{
  "AcquisitionMatrixPE": 100,
  "AcquisitionNumber": 1,
  "AcquisitionTime": "11:53:2.562500",
  "BandwidthPerPixelPhaseEncode": 18.519,
  "BaseResolution": 100,
  "BodyPartExamined": "BRAIN",
  "ConsistencyInfo": "N4_VE11C_LATEST_20160120",
  "ConversionSoftware": "dcm2niix",
  "ConversionSoftwareVersion": "v1.0.20180622 GCC4.9.2",
  "DerivedVendorReportedEchoSpacing": 0.000539986,
  "DeviceSerialNumber": "166078",
  "DwellTime": 2.1e-06,
  "EchoTime": 0.034,
  "EchoTrainLength": 100,
  "EffectiveEchoSpacing": 0.000539986,
  "FlipAngle": 90,
  "ImageOrientationPatientDICOM": [0.999905, 0.00191496, 0.0136245, -2.61189e-08, 0.990267, -0.139183],
  "ImageType": [
    "ORIGINAL",
    "PRIMARY",
    "M",
    "ND",
    "MOSAIC"
],
  "InPlanePhaseEncodingDirectionDICOM": "COL",
  "InstitutionAddress": "Street_StreetNo_Bei_Jing_District_CN_ZIP",
  "InstitutionName": "BeiJing_Normal_University",
  "InstitutionalDepartmentName": "Department",
  "MRAcquisitionType": "2D",
  "MagneticFieldStrength": 3,
  "Manufacturer": "Siemens",
  "ManufacturersModelName": "Prisma",
  "Modality": "MR",
  "MultibandAccelerationFactor": 3,
  "PartialFourier": 1,
  "PatientPosition": "HFS",
  "PercentPhaseFOV": 100,
  "PhaseEncodingDirection": "j-",
  "PhaseEncodingSteps": 100,
  "PhaseResolution": 1,
  "PixelBandwidth": 2380,
  "ProcedureStepDescription": "BNU_P2018_64CH_Liu.Jia",
  "ProtocolName": "bold_100x100_s3_2x2x2_232",
  "PulseSequenceDetails": "%SiemensSeq%_ep2d_bold",
  "ReceiveCoilActiveElements": "HC1-7;NC1",
  "ReceiveCoilName": "HeadNeck_64",
  "ReconMatrixPE": 100,
  "RepetitionTime": 2,
  "SAR": 0.0662394,
  "ScanOptions": "FS",
  "ScanningSequence": "EP",
  "SequenceName": "_epfid2d1_100",
  "SequenceVariant": "SK",
  "SeriesDescription": "bold_100x100_s3_2x2x2_232",
  "SeriesNumber": 8,
  "ShimSetting": [-5462, -11490, -1266, 224, -18, -214, -79, 21],
  "SliceThickness": 2,
  "SliceTiming": [1.485, 0, 0.99, 0.0825, 1.0725, 0.165, 1.155, 0.2475, 1.2375, 0.33, 1.32, 0.4125, 1.4025, 0.5775, 1.5675, 0.66, 1.65, 0.7425, 1.7325, 0.825, 1.815, 0.9075, 1.8975, 0.495, 1.485, 0, 0.99, 0.0825, 1.0725, 0.165, 1.155, 0.2475, 1.2375, 0.33, 1.32, 0.4125, 1.4025, 0.5775, 1.5675, 0.66, 1.65, 0.7425, 1.7325, 0.825, 1.815, 0.9075, 1.8975, 0.495, 1.485, 0, 0.99, 0.0825, 1.0725, 0.165, 1.155, 0.2475, 1.2375, 0.33, 1.32, 0.4125, 1.4025, 0.5775, 1.5675, 0.66, 1.65, 0.7425, 1.7325, 0.825, 1.815, 0.9075, 1.8975, 0.495],
  "SoftwareVersions": "syngo_MR_E11",
  "SpacingBetweenSlices": 2,
  "StationName": "AWP166078",
  "TaskName": "motor",
  "TotalReadoutTime": 0.0534586,
  "TxRefAmp": 237.457,
  "dcmmeta_affine": [
    [-1.9998106956481934, -5.223773413831623e-08, 0.02751675248146057, 101.03778839111328],
    [-0.0038299125153571367, 1.9805333614349365, -0.2783394157886505, -80.23189544677734],
    [0.027248915284872055, 0.27836576104164124, 1.9803459644317627, -91.376953125],
    [0.0, 0.0, 0.0, 1.0]
],
  "dcmmeta_reorient_transform": [
    [0.0, -1.0, 0.0, 99.0],
    [1.0, 0.0, 0.0, 0.0],
    [0.0, 0.0, 1.0, 0.0],
    [0.0, 0.0, 0.0, 1.0]
],
  "dcmmeta_shape": [100, 100, 72, 232],
  "dcmmeta_slice_dim": 2,
  "dcmmeta_version": 0.6,
  "global": {
    "const": {
      "AcquisitionMatrix": [100, 0, 0, 100],
      "AngioFlag": "N",
      "BitsAllocated": 16,
      "BitsStored": 12,
      "BodyPartExamined": "BRAIN",
      "Columns": 900,
      "EchoNumbers": 1,
      "EchoTime": 34.0,
      "EchoTrainLength": 100,
      "FlipAngle": 90.0,
      "HighBit": 11,
      "ImageOrientationPatient": [0.99990534906667, 0.00191495629137, 0.01362445779711, -2.6118867e-08, 0.99026669387835, -0.1391828832696],
      "ImagePositionPatient": [-900.96204199675, -909.58622875932, 36.627994912537],
      "ImageType": [
        "ORIGINAL",
        "PRIMARY",
        "M",
        "ND",
        "MOSAIC"
],
      "ImagedNucleus": "1H",
      "ImagingFrequency": 123.257831,
      "InPlanePhaseEncodingDirection": "COL",
      "MRAcquisitionType": "2D",
      "MagneticFieldStrength": 3.0,
      "Manufacturer": "SIEMENS",
      "ManufacturerModelName": "Prisma",
      "Modality": "MR",
      "NumberOfAverages": 1.0,
      "NumberOfPhaseEncodingSteps": 100,
      "PercentPhaseFieldOfView": 100.0,
      "PercentSampling": 100.0,
      "PerformedProcedureStepStartTime": "112003.781000",
      "PhotometricInterpretation": "MONOCHROME2",
      "PixelBandwidth": 2380.0,
      "PixelRepresentation": 0,
      "PixelSpacing": [2.0, 2.0],
      "ProtocolName": "bold_100x100_s3_2x2x2_232",
      "RepetitionTime": 2000.0,
      "Rows": 900,
      "SAR": 0.06623944589758,
      "SamplesPerPixel": 1,
      "ScanOptions": "FS",
      "ScanningSequence": "EP",
      "SequenceName": "*epfid2d1_100",
      "SequenceVariant": "SK",
      "SeriesDescription": "bold_100x100_s3_2x2x2_232",
      "SeriesNumber": 8,
      "SeriesTime": "115305.421000",
      "SliceLocation": -77.923026121686,
      "SliceThickness": 2.0,
      "SmallestImagePixelValue": 0,
      "SoftwareVersions": "syngo MR E11",
      "SpacingBetweenSlices": 1.9999999996,
      "SpecificCharacterSet": "ISO_IR 100",
      "StudyID": "1",
      "StudyTime": "112003.686000",
      "TransmitCoilName": "Body",
      "VariableFlipAngleFlag": "N",
      "WindowCenterWidthExplanation": "Algo1",
      "dBdt": 0.0},
    "slices": {}
  },
  "time": {
    "samples": {
      "AcquisitionNumber": [1, 2, 3, 4, 5, 6, 7, 8, 9, 10, 11, 12, 13, 14, 15, 16, 17, 18, 19, 20, 21, 22, 23, 24, 25, 26, 27, 28, 29, 30, 31, 32, 33, 34, 35, 36, 37, 38, 39, 40, 41, 42, 43, 44, 45, 46, 47, 48, 49, 50, 51, 52, 53, 54, 55, 56, 57, 58, 59, 60, 61, 62, 63, 64, 65, 66, 67, 68, 69, 70, 71, 72, 73, 74, 75, 76, 77, 78, 79, 80, 81, 82, 83, 84, 85, 86, 87, 88, 89, 90, 91, 92, 93, 94, 95, 96, 97, 98, 99, 100, 101, 102, 103, 104, 105, 106, 107, 108, 109, 110, 111, 112, 113, 114, 115, 116, 117, 118, 119, 120, 121, 122, 123, 124, 125, 126, 127, 128, 129, 130, 131, 132, 133, 134, 135, 136, 137, 138, 139, 140, 141, 142, 143, 144, 145, 146, 147, 148, 149, 150, 151, 152, 153, 154, 155, 156, 157, 158, 159, 160, 161, 162, 163, 164, 165, 166, 167, 168, 169, 170, 171, 172, 173, 174, 175, 176, 177, 178, 179, 180, 181, 182, 183, 184, 185, 186, 187, 188, 189, 190, 191, 192, 193, 194, 195, 196, 197, 198, 199, 200, 201, 202, 203, 204, 205, 206, 207, 208, 209, 210, 211, 212, 213, 214, 215, 216, 217, 218, 219, 220, 221, 222, 223, 224, 225, 226, 227, 228, 229, 230, 231, 232],
      "AcquisitionTime": ["115302.562500", "115304.562500", "115306.562500", "115308.562500", "115310.562500", "115312.562500", "115314.562500", "115316.562500", "115318.562500", "115320.562500", "115322.562500", "115324.562500", "115326.562500", "115328.562500", "115330.562500", "115332.562500", "115334.562500", "115336.562500", "115338.562500", "115340.562500", "115342.562500", "115344.562500", "115346.562500", "115348.562500", "115350.562500", "115352.562500", "115354.562500", "115356.562500", "115358.562500", "115400.562500", "115402.562500", "115404.562500", "115406.562500", "115408.562500", "115410.562500", "115412.562500", "115414.562500", "115416.562500", "115418.562500", "115420.562500", "115422.562500", "115424.562500", "115426.562500", "115428.562500", "115430.562500", "115432.562500", "115434.562500", "115436.562500", "115438.562500", "115440.562500", "115442.562500", "115444.562500", "115446.562500", "115448.562500", "115450.562500", "115452.562500", "115454.562500", "115456.562500", "115458.562500", "115500.562500", "115502.562500", "115504.562500", "115506.562500", "115508.562500", "115510.562500", "115512.562500", "115514.562500", "115516.562500", "115518.562500", "115520.562500", "115522.562500", "115524.562500", "115526.562500", "115528.562500", "115530.562500", "115532.562500", "115534.562500", "115536.562500", "115538.562500", "115540.562500", "115542.562500", "115544.562500", "115546.562500", "115548.562500", "115550.562500", "115552.562500", "115554.562500", "115556.562500", "115558.562500", "115600.562500", "115602.562500", "115604.562500", "115606.562500", "115608.562500", "115610.562500", "115612.562500", "115614.562500", "115616.562500", "115618.562500", "115620.562500", "115622.562500", "115624.562500", "115626.562500", "115628.562500", "115630.562500", "115632.562500", "115634.562500", "115636.562500", "115638.562500", "115640.562500", "115642.562500", "115644.562500", "115646.562500", "115648.562500", "115650.562500", "115652.562500", "115654.562500", "115656.562500", "115658.562500", "115700.562500", "115702.562500", "115704.562500", "115706.562500", "115708.562500", "115710.562500", "115712.562500", "115714.562500", "115716.562500", "115718.562500", "115720.562500", "115722.562500", "115724.562500", "115726.562500", "115728.562500", "115730.562500", "115732.562500", "115734.562500", "115736.562500", "115738.562500", "115740.562500", "115742.562500", "115744.562500", "115746.562500", "115748.562500", "115750.562500", "115752.562500", "115754.562500", "115756.562500", "115758.562500", "115800.562500", "115802.562500", "115804.562500", "115806.562500", "115808.562500", "115810.562500", "115812.562500", "115814.562500", "115816.562500", "115818.562500", "115820.562500", "115822.562500", "115824.562500", "115826.562500", "115828.562500", "115830.562500", "115832.562500", "115834.562500", "115836.562500", "115838.562500", "115840.562500", "115842.562500", "115844.562500", "115846.562500", "115848.562500", "115850.562500", "115852.562500", "115854.562500", "115856.562500", "115858.562500", "115900.562500", "115902.562500", "115904.562500", "115906.562500", "115908.562500", "115910.562500", "115912.562500", "115914.562500", "115916.562500", "115918.562500", "115920.562500", "115922.562500", "115924.562500", "115926.562500", "115928.562500", "115930.562500", "115932.562500", "115934.562500", "115936.562500", "115938.562500", "115940.562500", "115942.562500", "115944.562500", "115946.562500", "115948.562500", "115950.562500", "115952.562500", "115954.562500", "115956.562500", "115958.562500", "120000.562500", "120002.562500", "120004.562500", "120006.562500", "120008.562500", "120010.562500", "120012.562500", "120014.562500", "120016.562500", "120018.562500", "120020.562500", "120022.562500", "120024.562500", "120026.562500", "120028.562500", "120030.562500", "120032.562500", "120034.562500", "120036.562500", "120038.562500", "120040.562500", "120042.562500", "120044.562500"],
      "ContentTime": ["115305.425000", "115306.920000", "115308.921000", "115310.920000", "115312.921000", "115314.922000", "115316.921000", "115318.922000", "115320.921000", "115322.920000", "115324.920000", "115326.920000", "115328.921000", "115330.921000", "115332.921000", "115334.921000", "115336.421000", "115338.920000", "115340.920000", "115342.920000", "115344.920000", "115346.921000", "115348.921000", "115350.421000", "115352.921000", "115354.920000", "115356.921000", "115358.920000", "115400.921000", "115402.920000", "115404.922000", "115406.921000", "115408.921000", "115410.921000", "115412.920000", "115414.921000", "115416.920000", "115418.921000", "115420.920000", "115422.921000", "115424.922000", "115426.921000", "115428.921000", "115430.920000", "115432.920000", "115434.920000", "115436.920000", "115438.921000", "115440.921000", "115442.921000", "115444.922000", "115446.921000", "115448.920000", "115450.920000", "115452.920000", "115454.921000", "115456.921000", "115458.922000", "115500.921000", "115502.921000", "115504.920000", "115506.920000", "115508.921000", "115510.420000", "115512.920000", "115514.921000", "115516.921000", "115518.922000", "115520.921000", "115522.921000", "115524.921000", "115526.920000", "115528.921000", "115530.920000", "115532.921000", "115534.922000", "115536.921000", "115538.922000", "115540.920000", "115542.920000", "115544.920000", "115546.920000", "115548.922000", "115550.921000", "115552.922000", "115554.922000", "115556.921000", "115558.921000", "115600.921000", "115602.920000", "115604.920000", "115606.921000", "115608.921000", "115610.921000", "115612.921000", "115614.920000", "115616.920000", "115618.920000", "115620.920000", "115622.920000", "115624.921000", "115626.922000", "115628.921000", "115630.921000", "115632.920000", "115634.921000", "115636.921000", "115638.920000", "115640.922000", "115642.921000", "115644.921000", "115646.921000", "115648.921000", "115650.920000", "115652.920000", "115654.921000", "115656.920000", "115658.921000", "115700.921000", "115702.921000", "115704.922000", "115706.921000", "115708.920000", "115710.920000", "115712.921000", "115714.920000", "115716.922000", "115718.921000", "115720.921000", "115722.921000", "115724.920000", "115726.920000", "115728.920000", "115730.921000", "115732.920000", "115734.921000", "115736.921000", "115738.921000", "115740.921000", "115742.920000", "115744.920000", "115746.921000", "115748.920000", "115750.935000", "115752.922000", "115754.921000", "115756.921000", "115758.922000", "115800.920000", "115802.921000", "115804.920000", "115806.920000", "115808.922000", "115810.921000", "115812.922000", "115814.921000", "115816.921000", "115818.920000", "115820.920000", "115822.921000", "115824.920000", "115826.922000", "115828.921000", "115830.921000", "115832.921000", "115834.920000", "115836.921000", "115838.920000", "115840.921000", "115842.921000", "115844.921000", "115846.921000", "115848.922000", "115850.921000", "115852.920000", "115854.920000", "115856.920000", "115858.920000", "115900.921000", "115902.921000", "115904.922000", "115906.922000", "115908.921000", "115910.921000", "115912.920000", "115914.920000", "115916.921000", "115918.922000", "115920.922000", "115922.921000", "115924.921000", "115926.922000", "115928.920000", "115930.920000", "115932.920000", "115934.921000", "115936.921000", "115938.922000", "115940.921000", "115942.421000", "115944.920000", "115946.920000", "115948.921000", "115950.920000", "115952.920000", "115954.922000", "115956.922000", "115958.922000", "120000.921000", "120002.920000", "120004.920000", "120006.921000", "120008.921000", "120010.921000", "120012.921000", "120014.922000", "120016.921000", "120018.922000", "120020.921000", "120022.920000", "120024.920000", "120026.920000", "120028.922000", "120030.921000", "120032.922000", "120034.921000", "120036.921000", "120038.920000", "120040.920000", "120042.920000", "120044.920000", "120046.470000"],
      "InstanceCreationTime": ["115305.425000", "115306.920000", "115308.921000", "115310.920000", "115312.921000", "115314.922000", "115316.921000", "115318.922000", "115320.921000", "115322.920000", "115324.920000", "115326.920000", "115328.921000", "115330.921000", "115332.921000", "115334.921000", "115336.421000", "115338.920000", "115340.920000", "115342.920000", "115344.920000", "115346.921000", "115348.921000", "115350.421000", "115352.921000", "115354.920000", "115356.921000", "115358.920000", "115400.921000", "115402.920000", "115404.922000", "115406.921000", "115408.921000", "115410.921000", "115412.920000", "115414.921000", "115416.920000", "115418.921000", "115420.920000", "115422.921000", "115424.922000", "115426.921000", "115428.921000", "115430.920000", "115432.920000", "115434.920000", "115436.920000", "115438.921000", "115440.921000", "115442.921000", "115444.922000", "115446.921000", "115448.920000", "115450.920000", "115452.920000", "115454.921000", "115456.921000", "115458.922000", "115500.921000", "115502.921000", "115504.920000", "115506.920000", "115508.921000", "115510.420000", "115512.920000", "115514.921000", "115516.921000", "115518.922000", "115520.921000", "115522.921000", "115524.921000", "115526.920000", "115528.921000", "115530.920000", "115532.921000", "115534.922000", "115536.921000", "115538.922000", "115540.920000", "115542.920000", "115544.920000", "115546.920000", "115548.922000", "115550.921000", "115552.922000", "115554.922000", "115556.921000", "115558.921000", "115600.921000", "115602.920000", "115604.920000", "115606.921000", "115608.921000", "115610.921000", "115612.921000", "115614.920000", "115616.920000", "115618.920000", "115620.920000", "115622.920000", "115624.921000", "115626.922000", "115628.921000", "115630.921000", "115632.920000", "115634.921000", "115636.921000", "115638.920000", "115640.922000", "115642.921000", "115644.921000", "115646.921000", "115648.921000", "115650.920000", "115652.920000", "115654.921000", "115656.920000", "115658.921000", "115700.921000", "115702.921000", "115704.922000", "115706.921000", "115708.920000", "115710.920000", "115712.921000", "115714.920000", "115716.922000", "115718.921000", "115720.921000", "115722.921000", "115724.920000", "115726.920000", "115728.920000", "115730.921000", "115732.920000", "115734.921000", "115736.921000", "115738.921000", "115740.921000", "115742.920000", "115744.920000", "115746.921000", "115748.920000", "115750.935000", "115752.922000", "115754.921000", "115756.921000", "115758.922000", "115800.920000", "115802.921000", "115804.920000", "115806.920000", "115808.922000", "115810.921000", "115812.922000", "115814.921000", "115816.921000", "115818.920000", "115820.920000", "115822.921000", "115824.920000", "115826.922000", "115828.921000", "115830.921000", "115832.921000", "115834.920000", "115836.921000", "115838.920000", "115840.921000", "115842.921000", "115844.921000", "115846.921000", "115848.922000", "115850.921000", "115852.920000", "115854.920000", "115856.920000", "115858.920000", "115900.921000", "115902.921000", "115904.922000", "115906.922000", "115908.921000", "115910.921000", "115912.920000", "115914.920000", "115916.921000", "115918.922000", "115920.922000", "115922.921000", "115924.921000", "115926.922000", "115928.920000", "115930.920000", "115932.920000", "115934.921000", "115936.921000", "115938.922000", "115940.921000", "115942.421000", "115944.920000", "115946.920000", "115948.921000", "115950.920000", "115952.920000", "115954.922000", "115956.922000", "115958.922000", "120000.921000", "120002.920000", "120004.920000", "120006.921000", "120008.921000", "120010.921000", "120012.921000", "120014.922000", "120016.921000", "120018.922000", "120020.921000", "120022.920000", "120024.920000", "120026.920000", "120028.922000", "120030.921000", "120032.922000", "120034.921000", "120036.921000", "120038.920000", "120040.920000", "120042.920000", "120044.920000", "120046.470000"],
      "InstanceNumber": [1, 2, 3, 4, 5, 6, 7, 8, 9, 10, 11, 12, 13, 14, 15, 16, 17, 18, 19, 20, 21, 22, 23, 24, 25, 26, 27, 28, 29, 30, 31, 32, 33, 34, 35, 36, 37, 38, 39, 40, 41, 42, 43, 44, 45, 46, 47, 48, 49, 50, 51, 52, 53, 54, 55, 56, 57, 58, 59, 60, 61, 62, 63, 64, 65, 66, 67, 68, 69, 70, 71, 72, 73, 74, 75, 76, 77, 78, 79, 80, 81, 82, 83, 84, 85, 86, 87, 88, 89, 90, 91, 92, 93, 94, 95, 96, 97, 98, 99, 100, 101, 102, 103, 104, 105, 106, 107, 108, 109, 110, 111, 112, 113, 114, 115, 116, 117, 118, 119, 120, 121, 122, 123, 124, 125, 126, 127, 128, 129, 130, 131, 132, 133, 134, 135, 136, 137, 138, 139, 140, 141, 142, 143, 144, 145, 146, 147, 148, 149, 150, 151, 152, 153, 154, 155, 156, 157, 158, 159, 160, 161, 162, 163, 164, 165, 166, 167, 168, 169, 170, 171, 172, 173, 174, 175, 176, 177, 178, 179, 180, 181, 182, 183, 184, 185, 186, 187, 188, 189, 190, 191, 192, 193, 194, 195, 196, 197, 198, 199, 200, 201, 202, 203, 204, 205, 206, 207, 208, 209, 210, 211, 212, 213, 214, 215, 216, 217, 218, 219, 220, 221, 222, 223, 224, 225, 226, 227, 228, 229, 230, 231, 232],
      "LargestImagePixelValue": [2590, 2573, 2566, 2563, 2564, 2537, 2553, 2548, 2574, 2556, 2547, 2510, 2541, 2529, 2520, 2531, 2542, 2536, 2536, 2508, 2571, 2561, 2534, 2533, 2556, 2573, 2534, 2535, 2527, 2567, 2524, 2547, 2529, 2549, 2620, 2589, 2560, 2604, 2649, 2575, 2577, 2579, 2563, 2571, 2589, 2612, 2578, 2596, 2586, 2574, 2566, 2570, 2544, 2547, 2539, 2566, 2587, 2540, 2573, 2573, 2570, 2548, 2583, 2556, 2571, 2542, 2564, 2550, 2560, 2577, 2558, 2552, 2565, 2538, 2557, 2522, 2543, 2550, 2562, 2565, 2568, 2527, 2543, 2525, 2537, 2524, 2535, 2478, 2576, 2490, 2502, 2492, 2504, 2472, 2477, 2534, 2524, 2559, 2589, 2555, 2540, 2563, 2567, 2559, 2555, 2535, 2533, 2544, 2544, 2543, 2545, 2546, 2535, 2593, 2536, 2554, 2543, 2574, 2509, 2566, 2538, 2527, 2509, 2537, 2495, 2514, 2522, 2503, 2570, 2525, 2589, 2575, 2561, 2564, 2525, 2529, 2535, 2511, 2556, 2493, 2527, 2514, 2521, 2532, 2526, 2538, 2507, 2491, 2526, 2465, 2524, 2494, 2529, 2513, 2465, 2485, 2491, 2467, 2500, 2481, 2491, 2479, 2456, 2459, 2451, 2495, 2460, 2489, 2499, 2508, 2494, 2489, 2521, 2507, 2494, 2495, 2518, 2484, 2531, 2496, 2511, 2523, 2481, 2486, 2504, 2525, 2484, 2457, 2512, 2489, 2481, 2501, 2489, 2591, 2596, 2533, 2582, 2556, 2569, 2592, 2587, 2521, 2516, 2464, 2509, 2491, 2515, 2500, 2543, 2489, 2502, 2484, 2467, 2493, 2456, 2469, 2475, 2455, 2475, 2499, 2477, 2475, 2497, 2467, 2503, 2489, 2496, 2499, 2497, 2513, 2521, 2486],
      "WindowCenter": [746.0, 744.0, 743.0, 744.0, 744.0, 743.0, 743.0, 743.0, 745.0, 745.0, 744.0, 744.0, 744.0, 744.0, 742.0, 742.0, 741.0, 742.0, 744.0, 744.0, 744.0, 742.0, 742.0, 742.0, 742.0, 742.0, 742.0, 741.0, 741.0, 741.0, 743.0, 745.0, 744.0, 739.0, 743.0, 746.0, 743.0, 743.0, 745.0, 742.0, 744.0, 743.0, 745.0, 745.0, 745.0, 744.0, 744.0, 745.0, 743.0, 743.0, 745.0, 745.0, 744.0, 743.0, 743.0, 745.0, 744.0, 744.0, 744.0, 744.0, 743.0, 742.0, 745.0, 744.0, 743.0, 740.0, 739.0, 741.0, 742.0, 741.0, 740.0, 741.0, 743.0, 744.0, 745.0, 744.0, 742.0, 741.0, 741.0, 741.0, 742.0, 742.0, 743.0, 744.0, 743.0, 742.0, 743.0, 742.0, 740.0, 743.0, 743.0, 743.0, 743.0, 743.0, 743.0, 742.0, 743.0, 745.0, 742.0, 742.0, 742.0, 742.0, 742.0, 742.0, 743.0, 743.0, 744.0, 744.0, 744.0, 744.0, 744.0, 744.0, 743.0, 744.0, 743.0, 742.0, 742.0, 744.0, 742.0, 743.0, 742.0, 741.0, 743.0, 743.0, 740.0, 740.0, 741.0, 740.0, 741.0, 739.0, 740.0, 742.0, 742.0, 740.0, 740.0, 740.0, 741.0, 743.0, 744.0, 743.0, 743.0, 743.0, 741.0, 742.0, 742.0, 742.0, 743.0, 742.0, 743.0, 740.0, 742.0, 742.0, 743.0, 743.0, 741.0, 742.0, 744.0, 743.0, 741.0, 741.0, 742.0, 742.0, 741.0, 740.0, 740.0, 740.0, 740.0, 741.0, 744.0, 743.0, 741.0, 741.0, 742.0, 741.0, 740.0, 739.0, 738.0, 737.0, 739.0, 737.0, 738.0, 737.0, 738.0, 737.0, 738.0, 739.0, 739.0, 739.0, 739.0, 739.0, 740.0, 742.0, 740.0, 742.0, 737.0, 739.0, 745.0, 739.0, 740.0, 740.0, 740.0, 739.0, 740.0, 738.0, 738.0, 739.0, 741.0, 740.0, 740.0, 741.0, 744.0, 744.0, 742.0, 741.0, 740.0, 739.0, 738.0, 738.0, 739.0, 739.0, 740.0, 740.0, 740.0, 739.0, 739.0, 738.0, 737.0, 736.0, 736.0, 737.0, 737.0, 736.0],
      "WindowWidth": [1581.0, 1575.0, 1573.0, 1575.0, 1576.0, 1574.0, 1573.0, 1573.0, 1578.0, 1577.0, 1576.0, 1575.0, 1576.0, 1574.0, 1571.0, 1570.0, 1569.0, 1571.0, 1575.0, 1577.0, 1575.0, 1572.0, 1571.0, 1571.0, 1570.0, 1570.0, 1570.0, 1570.0, 1568.0, 1569.0, 1573.0, 1578.0, 1575.0, 1564.0, 1572.0, 1580.0, 1572.0, 1574.0, 1577.0, 1572.0, 1576.0, 1574.0, 1578.0, 1579.0, 1579.0, 1576.0, 1576.0, 1578.0, 1574.0, 1574.0, 1577.0, 1579.0, 1576.0, 1573.0, 1574.0, 1578.0, 1576.0, 1576.0, 1576.0, 1576.0, 1573.0, 1571.0, 1577.0, 1575.0, 1573.0, 1566.0, 1564.0, 1569.0, 1570.0, 1569.0, 1567.0, 1570.0, 1573.0, 1576.0, 1578.0, 1575.0, 1570.0, 1569.0, 1569.0, 1569.0, 1570.0, 1572.0, 1574.0, 1575.0, 1574.0, 1572.0, 1573.0, 1571.0, 1566.0, 1575.0, 1574.0, 1574.0, 1575.0, 1574.0, 1575.0, 1571.0, 1574.0, 1578.0, 1571.0, 1570.0, 1571.0, 1571.0, 1570.0, 1572.0, 1572.0, 1573.0, 1576.0, 1576.0, 1576.0, 1575.0, 1577.0, 1575.0, 1574.0, 1576.0, 1574.0, 1570.0, 1571.0, 1575.0, 1572.0, 1574.0, 1571.0, 1567.0, 1572.0, 1574.0, 1566.0, 1567.0, 1569.0, 1567.0, 1569.0, 1563.0, 1565.0, 1571.0, 1571.0, 1565.0, 1567.0, 1567.0, 1568.0, 1573.0, 1576.0, 1574.0, 1574.0, 1573.0, 1568.0, 1571.0, 1570.0, 1571.0, 1573.0, 1570.0, 1572.0, 1566.0, 1570.0, 1572.0, 1573.0, 1573.0, 1570.0, 1572.0, 1575.0, 1574.0, 1569.0, 1569.0, 1572.0, 1572.0, 1569.0, 1568.0, 1567.0, 1566.0, 1567.0, 1569.0, 1575.0, 1573.0, 1569.0, 1567.0, 1570.0, 1569.0, 1567.0, 1564.0, 1561.0, 1558.0, 1563.0, 1559.0, 1561.0, 1559.0, 1561.0, 1559.0, 1561.0, 1564.0, 1565.0, 1564.0, 1565.0, 1564.0, 1566.0, 1570.0, 1566.0, 1570.0, 1558.0, 1563.0, 1577.0, 1565.0, 1565.0, 1566.0, 1568.0, 1565.0, 1566.0, 1562.0, 1561.0, 1565.0, 1568.0, 1565.0, 1566.0, 1569.0, 1576.0, 1576.0, 1571.0, 1569.0, 1566.0, 1563.0, 1562.0, 1562.0, 1563.0, 1564.0, 1566.0, 1566.0, 1565.0, 1563.0, 1564.0, 1562.0, 1559.0, 1557.0, 1557.0, 1558.0, 1557.0, 1558.0]
    },
    "slices": {}
  }
}