{
  "AcquisitionMatrixPE": 100,
  "AcquisitionNumber": 1,
  "AcquisitionTime": "11:41:0.640000",
  "BandwidthPerPixelPhaseEncode": 18.519,
  "BaseResolution": 100,
  "BodyPartExamined": "BRAIN",
  "ConsistencyInfo": "N4_VE11C_LATEST_20160120",
  "ConversionSoftware": "dcm2niix",
  "ConversionSoftwareVersion": "v1.0.20180622 GCC4.9.2",
  "DerivedVendorReportedEchoSpacing": 0.000539986,
  "DeviceSerialNumber": "166078",
  "DwellTime": 2.1e-06,
  "EchoTime": 0.034,
  "EchoTrainLength": 100,
  "EffectiveEchoSpacing": 0.000539986,
  "FlipAngle": 90,
  "ImageOrientationPatientDICOM": [0.999905, 0.00191496, 0.0136245, -2.61189e-08, 0.990267, -0.139183],
  "ImageType": [
    "ORIGINAL",
    "PRIMARY",
    "M",
    "ND",
    "MOSAIC"
],
  "InPlanePhaseEncodingDirectionDICOM": "COL",
  "InstitutionAddress": "Street_StreetNo_Bei_Jing_District_CN_ZIP",
  "InstitutionName": "BeiJing_Normal_University",
  "InstitutionalDepartmentName": "Department",
  "MRAcquisitionType": "2D",
  "MagneticFieldStrength": 3,
  "Manufacturer": "Siemens",
  "ManufacturersModelName": "Prisma",
  "Modality": "MR",
  "MultibandAccelerationFactor": 3,
  "PartialFourier": 1,
  "PatientPosition": "HFS",
  "PercentPhaseFOV": 100,
  "PhaseEncodingDirection": "j-",
  "PhaseEncodingSteps": 100,
  "PhaseResolution": 1,
  "PixelBandwidth": 2380,
  "ProcedureStepDescription": "BNU_P2018_64CH_Liu.Jia",
  "ProtocolName": "bold_100x100_s3_2x2x2_232",
  "PulseSequenceDetails": "%SiemensSeq%_ep2d_bold",
  "ReceiveCoilActiveElements": "HC1-7;NC1",
  "ReceiveCoilName": "HeadNeck_64",
  "ReconMatrixPE": 100,
  "RepetitionTime": 2,
  "SAR": 0.0662394,
  "ScanOptions": "FS",
  "ScanningSequence": "EP",
  "SequenceName": "_epfid2d1_100",
  "SequenceVariant": "SK",
  "SeriesDescription": "bold_100x100_s3_2x2x2_232",
  "SeriesNumber": 5,
  "ShimSetting": [-5462, -11490, -1266, 224, -18, -214, -79, 21],
  "SliceThickness": 2,
  "SliceTiming": [1.485, 0, 0.99, 0.0825, 1.0725, 0.165, 1.155, 0.2475, 1.2375, 0.33, 1.32, 0.4125, 1.4025, 0.5775, 1.5675, 0.66, 1.65, 0.7425, 1.7325, 0.825, 1.815, 0.9075, 1.8975, 0.495, 1.485, 0, 0.99, 0.0825, 1.0725, 0.165, 1.155, 0.2475, 1.2375, 0.33, 1.32, 0.4125, 1.4025, 0.5775, 1.5675, 0.66, 1.65, 0.7425, 1.7325, 0.825, 1.815, 0.9075, 1.8975, 0.495, 1.485, 0, 0.99, 0.0825, 1.0725, 0.165, 1.155, 0.2475, 1.2375, 0.33, 1.32, 0.4125, 1.4025, 0.5775, 1.5675, 0.66, 1.65, 0.7425, 1.7325, 0.825, 1.815, 0.9075, 1.8975, 0.495],
  "SoftwareVersions": "syngo_MR_E11",
  "SpacingBetweenSlices": 2,
  "StationName": "AWP166078",
  "TaskName": "motor",
  "TotalReadoutTime": 0.0534586,
  "TxRefAmp": 237.457,
  "dcmmeta_affine": [
    [-1.9998106956481934, -5.223773413831623e-08, 0.02751675248146057, 101.03778839111328],
    [-0.0038299125153571367, 1.9805333614349365, -0.2783394157886505, -80.23189544677734],
    [0.027248915284872055, 0.27836576104164124, 1.9803459644317627, -91.376953125],
    [0.0, 0.0, 0.0, 1.0]
],
  "dcmmeta_reorient_transform": [
    [0.0, -1.0, 0.0, 99.0],
    [1.0, 0.0, 0.0, 0.0],
    [0.0, 0.0, 1.0, 0.0],
    [0.0, 0.0, 0.0, 1.0]
],
  "dcmmeta_shape": [100, 100, 72, 232],
  "dcmmeta_slice_dim": 2,
  "dcmmeta_version": 0.6,
  "global": {
    "const": {
      "AcquisitionMatrix": [100, 0, 0, 100],
      "AngioFlag": "N",
      "BitsAllocated": 16,
      "BitsStored": 12,
      "BodyPartExamined": "BRAIN",
      "Columns": 900,
      "EchoNumbers": 1,
      "EchoTime": 34.0,
      "EchoTrainLength": 100,
      "FlipAngle": 90.0,
      "HighBit": 11,
      "ImageOrientationPatient": [0.99990534906667, 0.00191495629137, 0.01362445779711, -2.6118867e-08, 0.99026669387835, -0.1391828832696],
      "ImagePositionPatient": [-900.96204199675, -909.58622875932, 36.627994912537],
      "ImageType": [
        "ORIGINAL",
        "PRIMARY",
        "M",
        "ND",
        "MOSAIC"
],
      "ImagedNucleus": "1H",
      "ImagingFrequency": 123.257834,
      "InPlanePhaseEncodingDirection": "COL",
      "MRAcquisitionType": "2D",
      "MagneticFieldStrength": 3.0,
      "Manufacturer": "SIEMENS",
      "ManufacturerModelName": "Prisma",
      "Modality": "MR",
      "NumberOfAverages": 1.0,
      "NumberOfPhaseEncodingSteps": 100,
      "PercentPhaseFieldOfView": 100.0,
      "PercentSampling": 100.0,
      "PerformedProcedureStepStartTime": "112003.781000",
      "PhotometricInterpretation": "MONOCHROME2",
      "PixelBandwidth": 2380.0,
      "PixelRepresentation": 0,
      "PixelSpacing": [2.0, 2.0],
      "ProtocolName": "bold_100x100_s3_2x2x2_232",
      "RepetitionTime": 2000.0,
      "Rows": 900,
      "SAR": 0.06623944589758,
      "SamplesPerPixel": 1,
      "ScanOptions": "FS",
      "ScanningSequence": "EP",
      "SequenceName": "*epfid2d1_100",
      "SequenceVariant": "SK",
      "SeriesDescription": "bold_100x100_s3_2x2x2_232",
      "SeriesNumber": 5,
      "SeriesTime": "114103.549000",
      "SliceLocation": -77.923026121686,
      "SliceThickness": 2.0,
      "SmallestImagePixelValue": 0,
      "SoftwareVersions": "syngo MR E11",
      "SpacingBetweenSlices": 1.9999999996,
      "SpecificCharacterSet": "ISO_IR 100",
      "StudyID": "1",
      "StudyTime": "112003.686000",
      "TransmitCoilName": "Body",
      "VariableFlipAngleFlag": "N",
      "WindowCenterWidthExplanation": "Algo1",
      "dBdt": 0.0},
    "slices": {}
  },
  "time": {
    "samples": {
      "AcquisitionNumber": [1, 2, 3, 4, 5, 6, 7, 8, 9, 10, 11, 12, 13, 14, 15, 16, 17, 18, 19, 20, 21, 22, 23, 24, 25, 26, 27, 28, 29, 30, 31, 32, 33, 34, 35, 36, 37, 38, 39, 40, 41, 42, 43, 44, 45, 46, 47, 48, 49, 50, 51, 52, 53, 54, 55, 56, 57, 58, 59, 60, 61, 62, 63, 64, 65, 66, 67, 68, 69, 70, 71, 72, 73, 74, 75, 76, 77, 78, 79, 80, 81, 82, 83, 84, 85, 86, 87, 88, 89, 90, 91, 92, 93, 94, 95, 96, 97, 98, 99, 100, 101, 102, 103, 104, 105, 106, 107, 108, 109, 110, 111, 112, 113, 114, 115, 116, 117, 118, 119, 120, 121, 122, 123, 124, 125, 126, 127, 128, 129, 130, 131, 132, 133, 134, 135, 136, 137, 138, 139, 140, 141, 142, 143, 144, 145, 146, 147, 148, 149, 150, 151, 152, 153, 154, 155, 156, 157, 158, 159, 160, 161, 162, 163, 164, 165, 166, 167, 168, 169, 170, 171, 172, 173, 174, 175, 176, 177, 178, 179, 180, 181, 182, 183, 184, 185, 186, 187, 188, 189, 190, 191, 192, 193, 194, 195, 196, 197, 198, 199, 200, 201, 202, 203, 204, 205, 206, 207, 208, 209, 210, 211, 212, 213, 214, 215, 216, 217, 218, 219, 220, 221, 222, 223, 224, 225, 226, 227, 228, 229, 230, 231, 232],
      "AcquisitionTime": ["114100.640000", "114102.640000", "114104.640000", "114106.640000", "114108.640000", "114110.640000", "114112.640000", "114114.640000", "114116.640000", "114118.640000", "114120.640000", "114122.640000", "114124.640000", "114126.640000", "114128.640000", "114130.640000", "114132.640000", "114134.640000", "114136.640000", "114138.640000", "114140.640000", "114142.640000", "114144.640000", "114146.640000", "114148.640000", "114150.640000", "114152.640000", "114154.640000", "114156.640000", "114158.640000", "114200.640000", "114202.640000", "114204.640000", "114206.640000", "114208.640000", "114210.640000", "114212.640000", "114214.640000", "114216.640000", "114218.640000", "114220.640000", "114222.640000", "114224.640000", "114226.640000", "114228.640000", "114230.640000", "114232.640000", "114234.640000", "114236.640000", "114238.640000", "114240.640000", "114242.640000", "114244.640000", "114246.640000", "114248.640000", "114250.640000", "114252.640000", "114254.640000", "114256.640000", "114258.640000", "114300.640000", "114302.640000", "114304.640000", "114306.640000", "114308.640000", "114310.640000", "114312.640000", "114314.640000", "114316.640000", "114318.640000", "114320.640000", "114322.640000", "114324.640000", "114326.640000", "114328.640000", "114330.640000", "114332.640000", "114334.640000", "114336.640000", "114338.640000", "114340.640000", "114342.640000", "114344.640000", "114346.640000", "114348.640000", "114350.640000", "114352.640000", "114354.640000", "114356.640000", "114358.640000", "114400.640000", "114402.640000", "114404.640000", "114406.640000", "114408.640000", "114410.640000", "114412.640000", "114414.640000", "114416.640000", "114418.640000", "114420.640000", "114422.640000", "114424.640000", "114426.640000", "114428.640000", "114430.640000", "114432.640000", "114434.640000", "114436.640000", "114438.640000", "114440.640000", "114442.640000", "114444.640000", "114446.640000", "114448.640000", "114450.640000", "114452.640000", "114454.640000", "114456.640000", "114458.640000", "114500.640000", "114502.640000", "114504.640000", "114506.640000", "114508.640000", "114510.640000", "114512.640000", "114514.640000", "114516.640000", "114518.640000", "114520.640000", "114522.640000", "114524.640000", "114526.640000", "114528.640000", "114530.640000", "114532.640000", "114534.640000", "114536.640000", "114538.640000", "114540.640000", "114542.640000", "114544.640000", "114546.640000", "114548.640000", "114550.640000", "114552.640000", "114554.640000", "114556.640000", "114558.640000", "114600.640000", "114602.640000", "114604.640000", "114606.640000", "114608.640000", "114610.640000", "114612.640000", "114614.640000", "114616.640000", "114618.640000", "114620.640000", "114622.640000", "114624.640000", "114626.640000", "114628.640000", "114630.640000", "114632.640000", "114634.640000", "114636.640000", "114638.640000", "114640.640000", "114642.640000", "114644.640000", "114646.640000", "114648.640000", "114650.640000", "114652.640000", "114654.640000", "114656.640000", "114658.640000", "114700.640000", "114702.640000", "114704.640000", "114706.640000", "114708.640000", "114710.640000", "114712.640000", "114714.640000", "114716.640000", "114718.640000", "114720.640000", "114722.640000", "114724.640000", "114726.640000", "114728.640000", "114730.640000", "114732.640000", "114734.640000", "114736.640000", "114738.640000", "114740.640000", "114742.640000", "114744.640000", "114746.640000", "114748.640000", "114750.640000", "114752.640000", "114754.640000", "114756.640000", "114758.640000", "114800.640000", "114802.640000", "114804.640000", "114806.640000", "114808.640000", "114810.640000", "114812.640000", "114814.640000", "114816.640000", "114818.640000", "114820.640000", "114822.640000", "114824.640000", "114826.640000", "114828.640000", "114830.640000", "114832.640000", "114834.640000", "114836.640000", "114838.640000", "114840.640000", "114842.640000"],
      "ContentTime": ["114103.553000", "114105.048000", "114107.047000", "114109.047000", "114111.048000", "114113.047000", "114115.048000", "114117.048000", "114119.049000", "114121.048000", "114123.047000", "114125.047000", "114127.047000", "114129.048000", "114131.047000", "114133.048000", "114135.048000", "114137.048000", "114139.048000", "114141.047000", "114143.047000", "114145.047000", "114147.047000", "114149.047000", "114151.048000", "114153.048000", "114155.048000", "114157.049000", "114159.047000", "114201.047000", "114203.047000", "114205.047000", "114207.049000", "114209.049000", "114211.049000", "114213.048000", "114215.048000", "114217.047000", "114219.047000", "114221.047000", "114223.048000", "114225.048000", "114227.048000", "114229.048000", "114231.048000", "114233.047000", "114235.047000", "114237.047000", "114239.047000", "114241.048000", "114243.048000", "114245.048000", "114247.048000", "114249.048000", "114251.048000", "114253.047000", "114255.047000", "114257.047000", "114259.048000", "114301.048000", "114303.049000", "114305.049000", "114307.049000", "114309.049000", "114311.047000", "114313.048000", "114315.047000", "114317.048000", "114319.049000", "114321.049000", "114323.049000", "114325.049000", "114327.048000", "114329.048000", "114331.048000", "114333.047000", "114335.049000", "114337.049000", "114339.048000", "114341.049000", "114343.048000", "114345.047000", "114347.047000", "114349.047000", "114351.048000", "114353.048000", "114355.048000", "114357.048000", "114359.049000", "114401.048000", "114403.048000", "114405.047000", "114407.047000", "114409.047000", "114411.048000", "114413.049000", "114415.048000", "114417.048000", "114419.047000", "114421.047000", "114423.047000", "114425.047000", "114427.048000", "114429.048000", "114431.049000", "114433.048000", "114435.049000", "114437.047000", "114439.048000", "114441.048000", "114443.047000", "114445.049000", "114447.048000", "114449.048000", "114451.048000", "114453.047000", "114455.047000", "114457.048000", "114459.047000", "114501.048000", "114503.048000", "114505.048000", "114507.048000", "114509.049000", "114511.047000", "114513.047000", "114515.047000", "114517.047000", "114519.049000", "114521.048000", "114523.049000", "114525.048000", "114527.048000", "114529.047000", "114531.048000", "114533.048000", "114535.047000", "114537.048000", "114539.049000", "114541.048000", "114543.048000", "114545.049000", "114547.048000", "114549.048000", "114551.047000", "114553.047000", "114555.049000", "114557.049000", "114559.049000", "114601.049000", "114603.047000", "114605.047000", "114607.047000", "114609.047000", "114611.047000", "114613.048000", "114615.049000", "114617.049000", "114619.048000", "114621.048000", "114623.047000", "114625.047000", "114627.047000", "114629.048000", "114631.049000", "114633.048000", "114635.049000", "114637.049000", "114639.048000", "114641.048000", "114643.047000", "114645.047000", "114647.049000", "114649.049000", "114651.048000", "114653.048000", "114655.049000", "114657.047000", "114659.047000", "114701.047000", "114703.048000", "114705.049000", "114707.048000", "114709.048000", "114711.049000", "114713.047000", "114715.048000", "114717.048000", "114719.048000", "114721.048000", "114723.048000", "114725.049000", "114727.049000", "114729.049000", "114731.047000", "114733.047000", "114735.047000", "114737.047000", "114739.049000", "114741.049000", "114743.049000", "114745.049000", "114747.048000", "114749.047000", "114751.048000", "114753.047000", "114755.048000", "114757.048000", "114759.048000", "114801.048000", "114803.048000", "114805.048000", "114807.048000", "114809.047000", "114811.047000", "114813.048000", "114815.049000", "114817.048000", "114819.049000", "114821.049000", "114823.060000", "114825.047000", "114827.048000", "114829.047000", "114831.047000", "114833.048000", "114835.048000", "114837.049000", "114839.048000", "114841.047000", "114843.048000", "114844.623000"],
      "InstanceCreationTime": ["114103.553000", "114105.048000", "114107.047000", "114109.047000", "114111.048000", "114113.047000", "114115.048000", "114117.048000", "114119.049000", "114121.048000", "114123.047000", "114125.047000", "114127.047000", "114129.048000", "114131.047000", "114133.048000", "114135.048000", "114137.048000", "114139.048000", "114141.047000", "114143.047000", "114145.047000", "114147.047000", "114149.047000", "114151.048000", "114153.048000", "114155.048000", "114157.049000", "114159.047000", "114201.047000", "114203.047000", "114205.047000", "114207.049000", "114209.049000", "114211.049000", "114213.048000", "114215.048000", "114217.047000", "114219.047000", "114221.047000", "114223.048000", "114225.048000", "114227.048000", "114229.048000", "114231.048000", "114233.047000", "114235.047000", "114237.047000", "114239.047000", "114241.048000", "114243.048000", "114245.048000", "114247.048000", "114249.048000", "114251.048000", "114253.047000", "114255.047000", "114257.047000", "114259.048000", "114301.048000", "114303.049000", "114305.049000", "114307.049000", "114309.049000", "114311.047000", "114313.048000", "114315.047000", "114317.048000", "114319.049000", "114321.049000", "114323.049000", "114325.049000", "114327.048000", "114329.048000", "114331.048000", "114333.047000", "114335.049000", "114337.049000", "114339.048000", "114341.049000", "114343.048000", "114345.047000", "114347.047000", "114349.047000", "114351.048000", "114353.048000", "114355.048000", "114357.048000", "114359.049000", "114401.048000", "114403.048000", "114405.047000", "114407.047000", "114409.047000", "114411.048000", "114413.049000", "114415.048000", "114417.048000", "114419.047000", "114421.047000", "114423.047000", "114425.047000", "114427.048000", "114429.048000", "114431.049000", "114433.048000", "114435.049000", "114437.047000", "114439.048000", "114441.048000", "114443.047000", "114445.049000", "114447.048000", "114449.048000", "114451.048000", "114453.047000", "114455.047000", "114457.048000", "114459.047000", "114501.048000", "114503.048000", "114505.048000", "114507.048000", "114509.049000", "114511.047000", "114513.047000", "114515.047000", "114517.047000", "114519.049000", "114521.048000", "114523.049000", "114525.048000", "114527.048000", "114529.047000", "114531.048000", "114533.048000", "114535.047000", "114537.048000", "114539.049000", "114541.048000", "114543.048000", "114545.049000", "114547.048000", "114549.048000", "114551.047000", "114553.047000", "114555.049000", "114557.049000", "114559.049000", "114601.049000", "114603.047000", "114605.047000", "114607.047000", "114609.047000", "114611.047000", "114613.048000", "114615.049000", "114617.049000", "114619.048000", "114621.048000", "114623.047000", "114625.047000", "114627.047000", "114629.048000", "114631.049000", "114633.048000", "114635.049000", "114637.049000", "114639.048000", "114641.048000", "114643.047000", "114645.047000", "114647.049000", "114649.049000", "114651.048000", "114653.048000", "114655.049000", "114657.047000", "114659.047000", "114701.047000", "114703.048000", "114705.049000", "114707.048000", "114709.048000", "114711.049000", "114713.047000", "114715.048000", "114717.048000", "114719.048000", "114721.048000", "114723.048000", "114725.049000", "114727.049000", "114729.049000", "114731.047000", "114733.047000", "114735.047000", "114737.047000", "114739.049000", "114741.049000", "114743.049000", "114745.049000", "114747.048000", "114749.047000", "114751.048000", "114753.047000", "114755.048000", "114757.048000", "114759.048000", "114801.048000", "114803.048000", "114805.048000", "114807.048000", "114809.047000", "114811.047000", "114813.048000", "114815.049000", "114817.048000", "114819.049000", "114821.049000", "114823.060000", "114825.047000", "114827.048000", "114829.047000", "114831.047000", "114833.048000", "114835.048000", "114837.049000", "114839.048000", "114841.047000", "114843.048000", "114844.623000"],
      "InstanceNumber": [1, 2, 3, 4, 5, 6, 7, 8, 9, 10, 11, 12, 13, 14, 15, 16, 17, 18, 19, 20, 21, 22, 23, 24, 25, 26, 27, 28, 29, 30, 31, 32, 33, 34, 35, 36, 37, 38, 39, 40, 41, 42, 43, 44, 45, 46, 47, 48, 49, 50, 51, 52, 53, 54, 55, 56, 57, 58, 59, 60, 61, 62, 63, 64, 65, 66, 67, 68, 69, 70, 71, 72, 73, 74, 75, 76, 77, 78, 79, 80, 81, 82, 83, 84, 85, 86, 87, 88, 89, 90, 91, 92, 93, 94, 95, 96, 97, 98, 99, 100, 101, 102, 103, 104, 105, 106, 107, 108, 109, 110, 111, 112, 113, 114, 115, 116, 117, 118, 119, 120, 121, 122, 123, 124, 125, 126, 127, 128, 129, 130, 131, 132, 133, 134, 135, 136, 137, 138, 139, 140, 141, 142, 143, 144, 145, 146, 147, 148, 149, 150, 151, 152, 153, 154, 155, 156, 157, 158, 159, 160, 161, 162, 163, 164, 165, 166, 167, 168, 169, 170, 171, 172, 173, 174, 175, 176, 177, 178, 179, 180, 181, 182, 183, 184, 185, 186, 187, 188, 189, 190, 191, 192, 193, 194, 195, 196, 197, 198, 199, 200, 201, 202, 203, 204, 205, 206, 207, 208, 209, 210, 211, 212, 213, 214, 215, 216, 217, 218, 219, 220, 221, 222, 223, 224, 225, 226, 227, 228, 229, 230, 231, 232],
      "LargestImagePixelValue": [2617, 2520, 2558, 2533, 2531, 2515, 2496, 2521, 2496, 2505, 2488, 2488, 2525, 2509, 2504, 2506, 2519, 2509, 2477, 2485, 2500, 2514, 2486, 2502, 2507, 2526, 2509, 2497, 2475, 2505, 2511, 2517, 2463, 2532, 2512, 2513, 2495, 2516, 2514, 2532, 2487, 2481, 2485, 2489, 2458, 2539, 2461, 2483, 2487, 2486, 2497, 2502, 2530, 2513, 2520, 2507, 2508, 2526, 2514, 2526, 2514, 2510, 2516, 2524, 2510, 2513, 2495, 2491, 2511, 2476, 2533, 2499, 2505, 2489, 2479, 2507, 2497, 2516, 2502, 2486, 2483, 2453, 2492, 2481, 2477, 2472, 2459, 2465, 2497, 2487, 2450, 2445, 2451, 2532, 2483, 2465, 2457, 2459, 2442, 2504, 2466, 2475, 2470, 2459, 2466, 2569, 2525, 2509, 2495, 2527, 2519, 2516, 2517, 2512, 2473, 2508, 2455, 2498, 2508, 2488, 2516, 2507, 2553, 2528, 2552, 2529, 2530, 2511, 2492, 2488, 2488, 2466, 2491, 2476, 2476, 2449, 2472, 2478, 2480, 2481, 2492, 2522, 2513, 2533, 2480, 2500, 2524, 2471, 2488, 2481, 2499, 2534, 2508, 2536, 2496, 2518, 2527, 2513, 2529, 2529, 2512, 2503, 2549, 2526, 2509, 2524, 2484, 2522, 2527, 2514, 2504, 2513, 2545, 2556, 2521, 2556, 2569, 2506, 2534, 2489, 2538, 2533, 2534, 2536, 2545, 2542, 2499, 2551, 2537, 2510, 2546, 2540, 2539, 2555, 2576, 2591, 2526, 2559, 2553, 2576, 2544, 2541, 2480, 2497, 2463, 2520, 2457, 2508, 2503, 2506, 2501, 2488, 2478, 2523, 2494, 2492, 2447, 2483, 2491, 2502, 2547, 2494, 2538, 2512, 2486, 2516, 2480, 2522, 2502, 2487, 2520, 2481],
      "WindowCenter": [743.0, 739.0, 738.0, 737.0, 740.0, 739.0, 738.0, 738.0, 739.0, 740.0, 741.0, 742.0, 742.0, 740.0, 740.0, 739.0, 739.0, 740.0, 739.0, 739.0, 739.0, 740.0, 739.0, 739.0, 740.0, 741.0, 741.0, 741.0, 740.0, 739.0, 739.0, 740.0, 738.0, 741.0, 740.0, 741.0, 740.0, 741.0, 741.0, 741.0, 741.0, 741.0, 742.0, 742.0, 741.0, 739.0, 738.0, 741.0, 741.0, 740.0, 740.0, 741.0, 741.0, 741.0, 741.0, 741.0, 741.0, 739.0, 739.0, 740.0, 739.0, 738.0, 740.0, 741.0, 741.0, 741.0, 741.0, 741.0, 740.0, 740.0, 741.0, 740.0, 740.0, 741.0, 743.0, 742.0, 741.0, 741.0, 740.0, 740.0, 740.0, 740.0, 740.0, 741.0, 742.0, 741.0, 740.0, 740.0, 741.0, 744.0, 744.0, 742.0, 741.0, 742.0, 742.0, 743.0, 742.0, 741.0, 740.0, 741.0, 741.0, 740.0, 741.0, 741.0, 741.0, 742.0, 743.0, 744.0, 742.0, 743.0, 741.0, 742.0, 741.0, 742.0, 742.0, 744.0, 741.0, 743.0, 744.0, 743.0, 742.0, 742.0, 744.0, 743.0, 741.0, 742.0, 743.0, 741.0, 740.0, 741.0, 744.0, 744.0, 741.0, 741.0, 741.0, 741.0, 741.0, 740.0, 743.0, 743.0, 743.0, 743.0, 743.0, 744.0, 743.0, 744.0, 743.0, 743.0, 745.0, 744.0, 743.0, 744.0, 743.0, 744.0, 744.0, 745.0, 744.0, 743.0, 743.0, 743.0, 743.0, 742.0, 743.0, 743.0, 744.0, 743.0, 742.0, 744.0, 743.0, 743.0, 742.0, 743.0, 743.0, 744.0, 742.0, 743.0, 743.0, 742.0, 744.0, 743.0, 742.0, 743.0, 744.0, 744.0, 741.0, 741.0, 741.0, 742.0, 740.0, 739.0, 741.0, 742.0, 743.0, 744.0, 745.0, 743.0, 742.0, 742.0, 742.0, 741.0, 743.0, 743.0, 742.0, 741.0, 740.0, 741.0, 740.0, 741.0, 740.0, 740.0, 740.0, 742.0, 742.0, 741.0, 741.0, 742.0, 740.0, 740.0, 741.0, 741.0, 741.0, 739.0, 739.0, 741.0, 742.0, 741.0, 739.0, 741.0, 742.0, 741.0, 741.0, 740.0],
      "WindowWidth": [1574.0, 1565.0, 1561.0, 1561.0, 1566.0, 1566.0, 1562.0, 1563.0, 1565.0, 1567.0, 1570.0, 1572.0, 1572.0, 1568.0, 1567.0, 1566.0, 1566.0, 1567.0, 1565.0, 1565.0, 1566.0, 1568.0, 1565.0, 1566.0, 1568.0, 1569.0, 1570.0, 1569.0, 1567.0, 1565.0, 1564.0, 1567.0, 1562.0, 1571.0, 1568.0, 1570.0, 1568.0, 1569.0, 1569.0, 1571.0, 1570.0, 1569.0, 1573.0, 1573.0, 1569.0, 1566.0, 1564.0, 1569.0, 1570.0, 1568.0, 1568.0, 1569.0, 1570.0, 1569.0, 1568.0, 1569.0, 1569.0, 1564.0, 1565.0, 1566.0, 1565.0, 1563.0, 1566.0, 1571.0, 1570.0, 1571.0, 1570.0, 1569.0, 1568.0, 1567.0, 1569.0, 1568.0, 1568.0, 1571.0, 1574.0, 1573.0, 1570.0, 1570.0, 1568.0, 1569.0, 1567.0, 1567.0, 1567.0, 1569.0, 1571.0, 1570.0, 1568.0, 1567.0, 1570.0, 1577.0, 1576.0, 1572.0, 1570.0, 1571.0, 1572.0, 1574.0, 1571.0, 1568.0, 1567.0, 1570.0, 1569.0, 1568.0, 1568.0, 1568.0, 1569.0, 1572.0, 1575.0, 1578.0, 1572.0, 1573.0, 1570.0, 1572.0, 1570.0, 1571.0, 1573.0, 1576.0, 1569.0, 1574.0, 1577.0, 1575.0, 1571.0, 1573.0, 1576.0, 1574.0, 1569.0, 1571.0, 1573.0, 1570.0, 1566.0, 1570.0, 1577.0, 1576.0, 1570.0, 1570.0, 1570.0, 1569.0, 1570.0, 1568.0, 1573.0, 1576.0, 1574.0, 1575.0, 1574.0, 1576.0, 1576.0, 1578.0, 1575.0, 1576.0, 1580.0, 1576.0, 1575.0, 1576.0, 1575.0, 1576.0, 1576.0, 1578.0, 1577.0, 1575.0, 1574.0, 1574.0, 1574.0, 1572.0, 1574.0, 1575.0, 1576.0, 1573.0, 1572.0, 1575.0, 1574.0, 1574.0, 1573.0, 1574.0, 1575.0, 1575.0, 1572.0, 1574.0, 1574.0, 1573.0, 1577.0, 1575.0, 1572.0, 1573.0, 1578.0, 1576.0, 1569.0, 1568.0, 1570.0, 1573.0, 1568.0, 1565.0, 1568.0, 1571.0, 1574.0, 1577.0, 1577.0, 1573.0, 1571.0, 1572.0, 1572.0, 1568.0, 1574.0, 1575.0, 1572.0, 1568.0, 1567.0, 1570.0, 1568.0, 1570.0, 1566.0, 1567.0, 1568.0, 1571.0, 1571.0, 1568.0, 1570.0, 1572.0, 1568.0, 1567.0, 1569.0, 1570.0, 1569.0, 1565.0, 1565.0, 1570.0, 1572.0, 1569.0, 1565.0, 1568.0, 1571.0, 1570.0, 1570.0, 1567.0]
    },
    "slices": {}
  }
}