{
  "AcquisitionMatrixPE": 100,
  "AcquisitionNumber": 1,
  "AcquisitionTime": "11:23:38.112500",
  "BandwidthPerPixelPhaseEncode": 18.519,
  "BaseResolution": 100,
  "BodyPartExamined": "BRAIN",
  "ConsistencyInfo": "N4_VE11C_LATEST_20160120",
  "ConversionSoftware": "dcm2niix",
  "ConversionSoftwareVersion": "v1.0.20180622 GCC4.9.2",
  "DerivedVendorReportedEchoSpacing": 0.000539986,
  "DeviceSerialNumber": "166078",
  "DwellTime": 2.1e-06,
  "EchoTime": 0.034,
  "EchoTrainLength": 100,
  "EffectiveEchoSpacing": 0.000539986,
  "FlipAngle": 90,
  "ImageOrientationPatientDICOM": [0.999905, 0.00191496, 0.0136245, -2.61189e-08, 0.990267, -0.139183],
  "ImageType": [
    "ORIGINAL",
    "PRIMARY",
    "M",
    "ND",
    "MOSAIC"
],
  "InPlanePhaseEncodingDirectionDICOM": "COL",
  "InstitutionAddress": "Street_StreetNo_Bei_Jing_District_CN_ZIP",
  "InstitutionName": "BeiJing_Normal_University",
  "InstitutionalDepartmentName": "Department",
  "MRAcquisitionType": "2D",
  "MagneticFieldStrength": 3,
  "Manufacturer": "Siemens",
  "ManufacturersModelName": "Prisma",
  "Modality": "MR",
  "MultibandAccelerationFactor": 3,
  "PartialFourier": 1,
  "PatientPosition": "HFS",
  "PercentPhaseFOV": 100,
  "PhaseEncodingDirection": "j-",
  "PhaseEncodingSteps": 100,
  "PhaseResolution": 1,
  "PixelBandwidth": 2380,
  "ProcedureStepDescription": "BNU_P2018_64CH_Liu.Jia",
  "ProtocolName": "bold_100x100_s3_2x2x2_232",
  "PulseSequenceDetails": "%SiemensSeq%_ep2d_bold",
  "ReceiveCoilActiveElements": "HC1-7;NC1",
  "ReceiveCoilName": "HeadNeck_64",
  "ReconMatrixPE": 100,
  "RepetitionTime": 2,
  "SAR": 0.0662394,
  "ScanOptions": "FS",
  "ScanningSequence": "EP",
  "SequenceName": "_epfid2d1_100",
  "SequenceVariant": "SK",
  "SeriesDescription": "bold_100x100_s3_2x2x2_232",
  "SeriesNumber": 3,
  "ShimSetting": [-5462, -11490, -1266, 224, -18, -214, -79, 21],
  "SliceThickness": 2,
  "SliceTiming": [1.485, 0, 0.99, 0.0825, 1.0725, 0.165, 1.155, 0.2475, 1.2375, 0.33, 1.32, 0.4125, 1.4025, 0.5775, 1.5675, 0.66, 1.65, 0.7425, 1.7325, 0.825, 1.815, 0.9075, 1.895, 0.495, 1.485, 0, 0.99, 0.0825, 1.0725, 0.165, 1.155, 0.2475, 1.2375, 0.33, 1.32, 0.4125, 1.4025, 0.5775, 1.5675, 0.66, 1.65, 0.7425, 1.7325, 0.825, 1.815, 0.9075, 1.895, 0.495, 1.485, 0, 0.99, 0.0825, 1.0725, 0.165, 1.155, 0.2475, 1.2375, 0.33, 1.32, 0.4125, 1.4025, 0.5775, 1.5675, 0.66, 1.65, 0.7425, 1.7325, 0.825, 1.815, 0.9075, 1.895, 0.495],
  "SoftwareVersions": "syngo_MR_E11",
  "SpacingBetweenSlices": 2,
  "StationName": "AWP166078",
  "TaskName": "motor",
  "TotalReadoutTime": 0.0534586,
  "TxRefAmp": 237.457,
  "dcmmeta_affine": [
    [-1.9998106956481934, -5.223773413831623e-08, 0.02751675248146057, 101.03778839111328],
    [-0.0038299125153571367, 1.9805333614349365, -0.2783394157886505, -80.23189544677734],
    [0.027248915284872055, 0.27836576104164124, 1.9803459644317627, -91.376953125],
    [0.0, 0.0, 0.0, 1.0]
],
  "dcmmeta_reorient_transform": [
    [0.0, -1.0, 0.0, 99.0],
    [1.0, 0.0, 0.0, 0.0],
    [0.0, 0.0, 1.0, 0.0],
    [0.0, 0.0, 0.0, 1.0]
],
  "dcmmeta_shape": [100, 100, 72, 232],
  "dcmmeta_slice_dim": 2,
  "dcmmeta_version": 0.6,
  "global": {
    "const": {
      "AcquisitionMatrix": [100, 0, 0, 100],
      "AngioFlag": "N",
      "BitsAllocated": 16,
      "BitsStored": 12,
      "BodyPartExamined": "BRAIN",
      "Columns": 900,
      "EchoNumbers": 1,
      "EchoTime": 34.0,
      "EchoTrainLength": 100,
      "FlipAngle": 90.0,
      "HighBit": 11,
      "ImageOrientationPatient": [0.99990534906667, 0.00191495629137, 0.01362445779711, -2.6118867e-08, 0.99026669387835, -0.1391828832696],
      "ImagePositionPatient": [-900.96204199675, -909.58622875932, 36.627994912537],
      "ImageType": [
        "ORIGINAL",
        "PRIMARY",
        "M",
        "ND",
        "MOSAIC"
],
      "ImagedNucleus": "1H",
      "ImagingFrequency": 123.257825,
      "InPlanePhaseEncodingDirection": "COL",
      "MRAcquisitionType": "2D",
      "MagneticFieldStrength": 3.0,
      "Manufacturer": "SIEMENS",
      "ManufacturerModelName": "Prisma",
      "Modality": "MR",
      "NumberOfAverages": 1.0,
      "NumberOfPhaseEncodingSteps": 100,
      "PercentPhaseFieldOfView": 100.0,
      "PercentSampling": 100.0,
      "PerformedProcedureStepStartTime": "112003.781000",
      "PhotometricInterpretation": "MONOCHROME2",
      "PixelBandwidth": 2380.0,
      "PixelRepresentation": 0,
      "PixelSpacing": [2.0, 2.0],
      "ProtocolName": "bold_100x100_s3_2x2x2_232",
      "RepetitionTime": 2000.0,
      "Rows": 900,
      "SAR": 0.06623944589758,
      "SamplesPerPixel": 1,
      "ScanOptions": "FS",
      "ScanningSequence": "EP",
      "SequenceName": "*epfid2d1_100",
      "SequenceVariant": "SK",
      "SeriesDescription": "bold_100x100_s3_2x2x2_232",
      "SeriesNumber": 3,
      "SeriesTime": "112340.778000",
      "SliceLocation": -77.923026121686,
      "SliceThickness": 2.0,
      "SmallestImagePixelValue": 0,
      "SoftwareVersions": "syngo MR E11",
      "SpacingBetweenSlices": 1.9999999996,
      "SpecificCharacterSet": "ISO_IR 100",
      "StudyID": "1",
      "StudyTime": "112003.686000",
      "TransmitCoilName": "Body",
      "VariableFlipAngleFlag": "N",
      "WindowCenterWidthExplanation": "Algo1",
      "dBdt": 0.0},
    "slices": {}
  },
  "time": {
    "samples": {
      "AcquisitionNumber": [1, 2, 3, 4, 5, 6, 7, 8, 9, 10, 11, 12, 13, 14, 15, 16, 17, 18, 19, 20, 21, 22, 23, 24, 25, 26, 27, 28, 29, 30, 31, 32, 33, 34, 35, 36, 37, 38, 39, 40, 41, 42, 43, 44, 45, 46, 47, 48, 49, 50, 51, 52, 53, 54, 55, 56, 57, 58, 59, 60, 61, 62, 63, 64, 65, 66, 67, 68, 69, 70, 71, 72, 73, 74, 75, 76, 77, 78, 79, 80, 81, 82, 83, 84, 85, 86, 87, 88, 89, 90, 91, 92, 93, 94, 95, 96, 97, 98, 99, 100, 101, 102, 103, 104, 105, 106, 107, 108, 109, 110, 111, 112, 113, 114, 115, 116, 117, 118, 119, 120, 121, 122, 123, 124, 125, 126, 127, 128, 129, 130, 131, 132, 133, 134, 135, 136, 137, 138, 139, 140, 141, 142, 143, 144, 145, 146, 147, 148, 149, 150, 151, 152, 153, 154, 155, 156, 157, 158, 159, 160, 161, 162, 163, 164, 165, 166, 167, 168, 169, 170, 171, 172, 173, 174, 175, 176, 177, 178, 179, 180, 181, 182, 183, 184, 185, 186, 187, 188, 189, 190, 191, 192, 193, 194, 195, 196, 197, 198, 199, 200, 201, 202, 203, 204, 205, 206, 207, 208, 209, 210, 211, 212, 213, 214, 215, 216, 217, 218, 219, 220, 221, 222, 223, 224, 225, 226, 227, 228, 229, 230, 231, 232],
      "AcquisitionTime": ["112338.112500", "112340.112500", "112342.112500", "112344.112500", "112346.112500", "112348.112500", "112350.112500", "112352.112500", "112354.112500", "112356.112500", "112358.112500", "112400.112500", "112402.112500", "112404.112500", "112406.112500", "112408.112500", "112410.112500", "112412.112500", "112414.112500", "112416.112500", "112418.112500", "112420.112500", "112422.112500", "112424.112500", "112426.112500", "112428.112500", "112430.112500", "112432.112500", "112434.112500", "112436.112500", "112438.112500", "112440.112500", "112442.112500", "112444.112500", "112446.112500", "112448.112500", "112450.112500", "112452.112500", "112454.112500", "112456.112500", "112458.112500", "112500.112500", "112502.112500", "112504.112500", "112506.112500", "112508.112500", "112510.112500", "112512.112500", "112514.112500", "112516.112500", "112518.112500", "112520.112500", "112522.112500", "112524.112500", "112526.112500", "112528.112500", "112530.112500", "112532.112500", "112534.112500", "112536.112500", "112538.112500", "112540.112500", "112542.112500", "112544.112500", "112546.112500", "112548.112500", "112550.112500", "112552.112500", "112554.112500", "112556.112500", "112558.112500", "112600.112500", "112602.112500", "112604.112500", "112606.112500", "112608.112500", "112610.112500", "112612.112500", "112614.112500", "112616.112500", "112618.112500", "112620.112500", "112622.112500", "112624.112500", "112626.112500", "112628.112500", "112630.112500", "112632.112500", "112634.112500", "112636.112500", "112638.112500", "112640.112500", "112642.112500", "112644.112500", "112646.112500", "112648.112500", "112650.112500", "112652.112500", "112654.112500", "112656.112500", "112658.112500", "112700.112500", "112702.112500", "112704.112500", "112706.112500", "112708.112500", "112710.112500", "112712.112500", "112714.112500", "112716.112500", "112718.112500", "112720.112500", "112722.112500", "112724.112500", "112726.112500", "112728.112500", "112730.112500", "112732.112500", "112734.112500", "112736.112500", "112738.112500", "112740.112500", "112742.112500", "112744.112500", "112746.112500", "112748.112500", "112750.112500", "112752.112500", "112754.112500", "112756.112500", "112758.112500", "112800.112500", "112802.112500", "112804.112500", "112806.112500", "112808.112500", "112810.112500", "112812.112500", "112814.112500", "112816.112500", "112818.112500", "112820.112500", "112822.112500", "112824.112500", "112826.112500", "112828.112500", "112830.112500", "112832.112500", "112834.112500", "112836.112500", "112838.112500", "112840.112500", "112842.112500", "112844.112500", "112846.112500", "112848.112500", "112850.112500", "112852.112500", "112854.112500", "112856.112500", "112858.112500", "112900.112500", "112902.112500", "112904.112500", "112906.112500", "112908.112500", "112910.112500", "112912.112500", "112914.112500", "112916.112500", "112918.112500", "112920.112500", "112922.112500", "112924.112500", "112926.112500", "112928.112500", "112930.112500", "112932.112500", "112934.112500", "112936.112500", "112938.112500", "112940.112500", "112942.112500", "112944.112500", "112946.112500", "112948.112500", "112950.112500", "112952.112500", "112954.112500", "112956.112500", "112958.112500", "113000.112500", "113002.112500", "113004.112500", "113006.112500", "113008.112500", "113010.112500", "113012.112500", "113014.112500", "113016.112500", "113018.112500", "113020.112500", "113022.112500", "113024.112500", "113026.112500", "113028.112500", "113030.112500", "113032.112500", "113034.112500", "113036.112500", "113038.112500", "113040.112500", "113042.112500", "113044.112500", "113046.112500", "113048.112500", "113050.112500", "113052.112500", "113054.112500", "113056.112500", "113058.112500", "113100.112500", "113102.112500", "113104.112500", "113106.112500", "113108.112500", "113110.112500", "113112.112500", "113114.112500", "113116.112500", "113118.112500", "113120.112500"],
      "ContentTime": ["112340.782000", "112342.778000", "112344.778000", "112346.779000", "112348.778000", "112350.778000", "112352.778000", "112354.779000", "112356.778000", "112358.777000", "112400.777000", "112402.778000", "112404.778000", "112406.779000", "112408.779000", "112410.778000", "112412.779000", "112414.777000", "112416.777000", "112418.777000", "112420.778000", "112422.779000", "112424.779000", "112426.779000", "112428.778000", "112430.778000", "112432.777000", "112434.777000", "112436.777000", "112438.779000", "112440.779000", "112442.778000", "112444.778000", "112446.778000", "112448.777000", "112450.778000", "112452.777000", "112454.777000", "112456.778000", "112458.779000", "112500.779000", "112502.778000", "112504.778000", "112506.777000", "112508.778000", "112510.778000", "112512.778000", "112514.778000", "112516.778000", "112518.778000", "112520.779000", "112522.778000", "112524.778000", "112526.777000", "112528.777000", "112530.778000", "112532.779000", "112534.778000", "112536.778000", "112538.779000", "112540.777000", "112542.777000", "112544.778000", "112546.778000", "112548.778000", "112550.778000", "112552.779000", "112554.778000", "112556.778000", "112558.777000", "112600.777000", "112602.777000", "112604.777000", "112606.779000", "112608.779000", "112610.779000", "112612.779000", "112614.778000", "112616.778000", "112618.777000", "112620.777000", "112622.779000", "112624.779000", "112626.778000", "112628.779000", "112630.778000", "112632.778000", "112634.778000", "112636.778000", "112638.778000", "112640.778000", "112642.778000", "112644.779000", "112646.778000", "112648.778000", "112650.777000", "112652.777000", "112654.777000", "112656.777000", "112658.779000", "112700.778000", "112702.778000", "112704.778000", "112706.778000", "112708.777000", "112710.778000", "112712.777000", "112714.777000", "112716.779000", "112718.778000", "112720.778000", "112722.778000", "112724.779000", "112726.777000", "112728.778000", "112730.777000", "112732.778000", "112734.779000", "112736.778000", "112738.779000", "112740.778000", "112742.779000", "112744.777000", "112746.778000", "112748.778000", "112750.779000", "112752.778000", "112754.778000", "112756.779000", "112758.778000", "112800.778000", "112802.777000", "112804.777000", "112806.777000", "112808.779000", "112810.779000", "112812.778000", "112814.779000", "112816.778000", "112818.777000", "112820.778000", "112822.778000", "112824.778000", "112826.778000", "112828.778000", "112830.779000", "112832.778000", "112834.778000", "112836.777000", "112838.778000", "112840.777000", "112842.779000", "112844.779000", "112846.779000", "112848.778000", "112850.778000", "112852.779000", "112854.778000", "112856.777000", "112858.778000", "112900.779000", "112902.779000", "112904.778000", "112906.779000", "112908.778000", "112910.778000", "112912.777000", "112914.777000", "112916.777000", "112918.778000", "112920.779000", "112922.779000", "112924.278000", "112926.779000", "112928.778000", "112930.777000", "112932.277000", "112934.777000", "112936.778000", "112938.778000", "112940.778000", "112942.779000", "112944.779000", "112946.777000", "112948.778000", "112950.778000", "112952.778000", "112954.778000", "112956.779000", "112958.779000", "113000.778000", "113002.779000", "113004.778000", "113006.778000", "113008.778000", "113010.778000", "113012.779000", "113014.778000", "113016.778000", "113018.778000", "113020.777000", "113022.778000", "113024.777000", "113026.778000", "113028.779000", "113030.779000", "113032.778000", "113034.778000", "113036.779000", "113038.777000", "113040.778000", "113042.778000", "113044.777000", "113046.778000", "113048.778000", "113050.779000", "113052.779000", "113054.779000", "113056.778000", "113058.778000", "113100.778000", "113102.779000", "113104.778000", "113106.779000", "113108.778000", "113110.779000", "113112.779000", "113114.778000", "113116.777000", "113118.777000", "113120.779000", "113122.314000"],
      "InstanceCreationTime": ["112340.782000", "112342.778000", "112344.778000", "112346.779000", "112348.778000", "112350.778000", "112352.778000", "112354.779000", "112356.778000", "112358.777000", "112400.777000", "112402.778000", "112404.778000", "112406.779000", "112408.779000", "112410.778000", "112412.779000", "112414.777000", "112416.777000", "112418.777000", "112420.778000", "112422.779000", "112424.779000", "112426.779000", "112428.778000", "112430.778000", "112432.777000", "112434.777000", "112436.777000", "112438.779000", "112440.779000", "112442.778000", "112444.778000", "112446.778000", "112448.777000", "112450.778000", "112452.777000", "112454.777000", "112456.778000", "112458.779000", "112500.779000", "112502.778000", "112504.778000", "112506.777000", "112508.778000", "112510.778000", "112512.778000", "112514.778000", "112516.778000", "112518.778000", "112520.779000", "112522.778000", "112524.778000", "112526.777000", "112528.777000", "112530.778000", "112532.779000", "112534.778000", "112536.778000", "112538.779000", "112540.777000", "112542.777000", "112544.778000", "112546.778000", "112548.778000", "112550.778000", "112552.779000", "112554.778000", "112556.778000", "112558.777000", "112600.777000", "112602.777000", "112604.777000", "112606.779000", "112608.779000", "112610.779000", "112612.779000", "112614.778000", "112616.778000", "112618.777000", "112620.777000", "112622.779000", "112624.779000", "112626.778000", "112628.779000", "112630.778000", "112632.778000", "112634.778000", "112636.778000", "112638.778000", "112640.778000", "112642.778000", "112644.779000", "112646.778000", "112648.778000", "112650.777000", "112652.777000", "112654.777000", "112656.777000", "112658.779000", "112700.778000", "112702.778000", "112704.778000", "112706.778000", "112708.777000", "112710.778000", "112712.777000", "112714.777000", "112716.779000", "112718.778000", "112720.778000", "112722.778000", "112724.779000", "112726.777000", "112728.778000", "112730.777000", "112732.778000", "112734.779000", "112736.778000", "112738.779000", "112740.778000", "112742.779000", "112744.777000", "112746.778000", "112748.778000", "112750.779000", "112752.778000", "112754.778000", "112756.779000", "112758.778000", "112800.778000", "112802.777000", "112804.777000", "112806.777000", "112808.779000", "112810.779000", "112812.778000", "112814.779000", "112816.778000", "112818.777000", "112820.778000", "112822.778000", "112824.778000", "112826.778000", "112828.778000", "112830.779000", "112832.778000", "112834.778000", "112836.777000", "112838.778000", "112840.777000", "112842.779000", "112844.779000", "112846.779000", "112848.778000", "112850.778000", "112852.779000", "112854.778000", "112856.777000", "112858.778000", "112900.779000", "112902.779000", "112904.778000", "112906.779000", "112908.778000", "112910.778000", "112912.777000", "112914.777000", "112916.777000", "112918.778000", "112920.779000", "112922.779000", "112924.278000", "112926.779000", "112928.778000", "112930.777000", "112932.277000", "112934.777000", "112936.778000", "112938.778000", "112940.778000", "112942.779000", "112944.779000", "112946.777000", "112948.778000", "112950.778000", "112952.778000", "112954.778000", "112956.779000", "112958.779000", "113000.778000", "113002.779000", "113004.778000", "113006.778000", "113008.778000", "113010.778000", "113012.779000", "113014.778000", "113016.778000", "113018.778000", "113020.777000", "113022.778000", "113024.777000", "113026.778000", "113028.779000", "113030.779000", "113032.778000", "113034.778000", "113036.779000", "113038.777000", "113040.778000", "113042.778000", "113044.777000", "113046.778000", "113048.778000", "113050.779000", "113052.779000", "113054.779000", "113056.778000", "113058.778000", "113100.778000", "113102.779000", "113104.778000", "113106.779000", "113108.778000", "113110.779000", "113112.779000", "113114.778000", "113116.777000", "113118.777000", "113120.779000", "113122.314000"],
      "InstanceNumber": [1, 2, 3, 4, 5, 6, 7, 8, 9, 10, 11, 12, 13, 14, 15, 16, 17, 18, 19, 20, 21, 22, 23, 24, 25, 26, 27, 28, 29, 30, 31, 32, 33, 34, 35, 36, 37, 38, 39, 40, 41, 42, 43, 44, 45, 46, 47, 48, 49, 50, 51, 52, 53, 54, 55, 56, 57, 58, 59, 60, 61, 62, 63, 64, 65, 66, 67, 68, 69, 70, 71, 72, 73, 74, 75, 76, 77, 78, 79, 80, 81, 82, 83, 84, 85, 86, 87, 88, 89, 90, 91, 92, 93, 94, 95, 96, 97, 98, 99, 100, 101, 102, 103, 104, 105, 106, 107, 108, 109, 110, 111, 112, 113, 114, 115, 116, 117, 118, 119, 120, 121, 122, 123, 124, 125, 126, 127, 128, 129, 130, 131, 132, 133, 134, 135, 136, 137, 138, 139, 140, 141, 142, 143, 144, 145, 146, 147, 148, 149, 150, 151, 152, 153, 154, 155, 156, 157, 158, 159, 160, 161, 162, 163, 164, 165, 166, 167, 168, 169, 170, 171, 172, 173, 174, 175, 176, 177, 178, 179, 180, 181, 182, 183, 184, 185, 186, 187, 188, 189, 190, 191, 192, 193, 194, 195, 196, 197, 198, 199, 200, 201, 202, 203, 204, 205, 206, 207, 208, 209, 210, 211, 212, 213, 214, 215, 216, 217, 218, 219, 220, 221, 222, 223, 224, 225, 226, 227, 228, 229, 230, 231, 232],
      "LargestImagePixelValue": [2570, 2552, 2472, 2513, 2502, 2516, 2515, 2501, 2499, 2501, 2478, 2508, 2495, 2535, 2499, 2536, 2484, 2527, 2490, 2511, 2467, 2488, 2535, 2518, 2494, 2543, 2529, 2515, 2539, 2555, 2485, 2521, 2472, 2548, 2565, 2513, 2522, 2493, 2469, 2495, 2489, 2420, 2407, 2395, 2550, 2677, 2565, 2732, 2488, 2490, 2441, 2558, 2484, 2511, 2519, 2536, 2520, 2530, 2520, 2560, 2516, 2536, 2494, 2534, 2535, 2530, 2526, 2516, 2497, 2529, 2549, 2523, 2539, 2536, 2529, 2561, 2489, 2562, 2533, 2543, 2521, 2556, 2528, 2536, 2515, 2552, 2548, 2549, 2555, 2537, 2576, 2507, 2538, 2530, 2559, 2577, 2528, 2539, 2508, 2518, 2531, 2503, 2548, 2513, 2526, 2501, 2521, 2314, 2854, 2566, 2497, 2652, 2625, 2495, 2496, 2481, 2530, 2513, 2511, 2505, 2501, 2543, 2454, 2557, 2594, 2463, 2686, 2442, 2572, 2485, 2483, 2446, 2496, 2477, 2465, 2473, 2459, 2578, 2543, 2514, 2506, 2527, 2506, 2560, 2519, 2499, 2478, 2481, 2498, 2495, 2486, 2529, 2492, 2550, 2520, 2500, 2487, 2494, 2462, 2494, 2543, 2542, 2475, 2511, 2490, 2521, 2462, 2456, 2470, 2469, 2477, 2495, 2484, 2469, 2474, 2496, 2493, 2459, 2445, 2467, 2451, 2475, 2447, 2460, 2450, 2497, 2712, 2618, 2545, 2508, 2667, 2627, 2530, 2477, 2495, 2484, 2468, 2470, 2460, 2540, 2471, 2505, 2504, 2482, 2517, 2474, 2516, 2472, 2485, 2589, 2481, 2507, 2477, 2506, 2488, 2562, 2528, 2623, 2542, 2509, 2537, 2543, 2503, 2532, 2510, 2472, 2525, 2497, 2551, 2495, 2526, 2502],
      "WindowCenter": [738.0, 736.0, 734.0, 735.0, 735.0, 736.0, 736.0, 734.0, 734.0, 737.0, 739.0, 739.0, 735.0, 735.0, 736.0, 738.0, 736.0, 736.0, 736.0, 738.0, 738.0, 736.0, 738.0, 739.0, 738.0, 738.0, 737.0, 738.0, 738.0, 738.0, 736.0, 735.0, 733.0, 735.0, 737.0, 738.0, 737.0, 736.0, 735.0, 736.0, 737.0, 723.0, 726.0, 720.0, 724.0, 729.0, 727.0, 736.0, 737.0, 736.0, 736.0, 740.0, 739.0, 738.0, 737.0, 737.0, 736.0, 736.0, 736.0, 737.0, 736.0, 737.0, 736.0, 736.0, 736.0, 737.0, 738.0, 739.0, 738.0, 736.0, 736.0, 737.0, 737.0, 735.0, 736.0, 737.0, 730.0, 735.0, 735.0, 734.0, 734.0, 732.0, 732.0, 733.0, 734.0, 736.0, 736.0, 737.0, 740.0, 741.0, 741.0, 739.0, 738.0, 739.0, 738.0, 737.0, 736.0, 736.0, 737.0, 737.0, 736.0, 735.0, 737.0, 736.0, 735.0, 729.0, 730.0, 715.0, 741.0, 724.0, 730.0, 720.0, 738.0, 736.0, 737.0, 737.0, 738.0, 737.0, 738.0, 738.0, 736.0, 732.0, 733.0, 735.0, 736.0, 731.0, 740.0, 732.0, 739.0, 737.0, 737.0, 735.0, 736.0, 735.0, 735.0, 735.0, 736.0, 737.0, 737.0, 737.0, 737.0, 737.0, 736.0, 736.0, 737.0, 736.0, 735.0, 735.0, 736.0, 736.0, 736.0, 737.0, 738.0, 739.0, 738.0, 739.0, 739.0, 738.0, 736.0, 736.0, 737.0, 735.0, 735.0, 736.0, 735.0, 736.0, 737.0, 736.0, 735.0, 735.0, 735.0, 734.0, 734.0, 734.0, 734.0, 734.0, 735.0, 736.0, 736.0, 736.0, 735.0, 737.0, 736.0, 736.0, 732.0, 720.0, 740.0, 733.0, 734.0, 730.0, 732.0, 740.0, 738.0, 736.0, 737.0, 738.0, 739.0, 739.0, 737.0, 738.0, 736.0, 736.0, 736.0, 736.0, 738.0, 737.0, 737.0, 737.0, 737.0, 737.0, 739.0, 739.0, 738.0, 738.0, 737.0, 739.0, 737.0, 741.0, 740.0, 739.0, 738.0, 737.0, 736.0, 735.0, 735.0, 735.0, 737.0, 736.0, 736.0, 735.0, 736.0, 735.0],
      "WindowWidth": [1564.0, 1558.0, 1554.0, 1556.0, 1557.0, 1560.0, 1559.0, 1553.0, 1554.0, 1562.0, 1566.0, 1565.0, 1555.0, 1556.0, 1560.0, 1563.0, 1558.0, 1558.0, 1560.0, 1566.0, 1564.0, 1558.0, 1563.0, 1566.0, 1565.0, 1565.0, 1562.0, 1563.0, 1565.0, 1565.0, 1559.0, 1557.0, 1553.0, 1557.0, 1563.0, 1564.0, 1563.0, 1560.0, 1558.0, 1560.0, 1561.0, 1530.0, 1536.0, 1522.0, 1533.0, 1545.0, 1540.0, 1560.0, 1564.0, 1559.0, 1560.0, 1570.0, 1567.0, 1565.0, 1562.0, 1562.0, 1559.0, 1560.0, 1559.0, 1560.0, 1559.0, 1560.0, 1559.0, 1560.0, 1559.0, 1560.0, 1564.0, 1566.0, 1564.0, 1559.0, 1559.0, 1561.0, 1562.0, 1557.0, 1560.0, 1561.0, 1546.0, 1557.0, 1556.0, 1555.0, 1554.0, 1550.0, 1549.0, 1553.0, 1556.0, 1558.0, 1559.0, 1562.0, 1568.0, 1570.0, 1572.0, 1567.0, 1564.0, 1566.0, 1563.0, 1562.0, 1558.0, 1559.0, 1560.0, 1561.0, 1560.0, 1558.0, 1561.0, 1559.0, 1556.0, 1542.0, 1548.0, 1512.0, 1572.0, 1531.0, 1546.0, 1521.0, 1565.0, 1560.0, 1561.0, 1561.0, 1564.0, 1562.0, 1565.0, 1564.0, 1560.0, 1550.0, 1552.0, 1557.0, 1559.0, 1548.0, 1568.0, 1550.0, 1566.0, 1561.0, 1560.0, 1557.0, 1559.0, 1557.0, 1556.0, 1558.0, 1558.0, 1562.0, 1560.0, 1562.0, 1561.0, 1560.0, 1558.0, 1560.0, 1560.0, 1559.0, 1558.0, 1558.0, 1559.0, 1560.0, 1559.0, 1561.0, 1564.0, 1566.0, 1564.0, 1567.0, 1566.0, 1564.0, 1559.0, 1559.0, 1561.0, 1555.0, 1557.0, 1559.0, 1556.0, 1559.0, 1561.0, 1558.0, 1556.0, 1557.0, 1555.0, 1553.0, 1554.0, 1554.0, 1553.0, 1554.0, 1556.0, 1558.0, 1558.0, 1558.0, 1557.0, 1561.0, 1558.0, 1559.0, 1551.0, 1522.0, 1571.0, 1551.0, 1555.0, 1545.0, 1549.0, 1567.0, 1563.0, 1558.0, 1561.0, 1563.0, 1566.0, 1565.0, 1562.0, 1563.0, 1559.0, 1558.0, 1559.0, 1559.0, 1562.0, 1561.0, 1561.0, 1560.0, 1560.0, 1561.0, 1565.0, 1565.0, 1562.0, 1562.0, 1561.0, 1567.0, 1559.0, 1569.0, 1567.0, 1564.0, 1563.0, 1561.0, 1558.0, 1557.0, 1556.0, 1556.0, 1560.0, 1557.0, 1558.0, 1555.0, 1557.0, 1557.0]
    },
    "slices": {}
  }
}