{
  "AcquisitionMatrixPE": 100,
  "AcquisitionNumber": 1,
  "AcquisitionTime": "12:10:5.520000",
  "BandwidthPerPixelPhaseEncode": 18.519,
  "BaseResolution": 100,
  "BodyPartExamined": "BRAIN",
  "ConsistencyInfo": "N4_VE11C_LATEST_20160120",
  "ConversionSoftware": "dcm2niix",
  "ConversionSoftwareVersion": "v1.0.20180622 GCC4.9.2",
  "DerivedVendorReportedEchoSpacing": 0.000539986,
  "DeviceSerialNumber": "166078",
  "DwellTime": 2.1e-06,
  "EchoTime": 0.034,
  "EchoTrainLength": 100,
  "EffectiveEchoSpacing": 0.000539986,
  "FlipAngle": 90,
  "ImageOrientationPatientDICOM": [0.999905, 0.00191496, 0.0136245, -2.61189e-08, 0.990267, -0.139183],
  "ImageType": [
    "ORIGINAL",
    "PRIMARY",
    "M",
    "ND",
    "MOSAIC"
],
  "InPlanePhaseEncodingDirectionDICOM": "COL",
  "InstitutionAddress": "Street_StreetNo_Bei_Jing_District_CN_ZIP",
  "InstitutionName": "BeiJing_Normal_University",
  "InstitutionalDepartmentName": "Department",
  "MRAcquisitionType": "2D",
  "MagneticFieldStrength": 3,
  "Manufacturer": "Siemens",
  "ManufacturersModelName": "Prisma",
  "Modality": "MR",
  "MultibandAccelerationFactor": 3,
  "PartialFourier": 1,
  "PatientPosition": "HFS",
  "PercentPhaseFOV": 100,
  "PhaseEncodingDirection": "j-",
  "PhaseEncodingSteps": 100,
  "PhaseResolution": 1,
  "PixelBandwidth": 2380,
  "ProcedureStepDescription": "BNU_P2018_64CH_Liu.Jia",
  "ProtocolName": "bold_100x100_s3_2x2x2_232",
  "PulseSequenceDetails": "%SiemensSeq%_ep2d_bold",
  "ReceiveCoilActiveElements": "HC1-7;NC1",
  "ReceiveCoilName": "HeadNeck_64",
  "ReconMatrixPE": 100,
  "RepetitionTime": 2,
  "SAR": 0.0662394,
  "ScanOptions": "FS",
  "ScanningSequence": "EP",
  "SequenceName": "_epfid2d1_100",
  "SequenceVariant": "SK",
  "SeriesDescription": "bold_100x100_s3_2x2x2_232",
  "SeriesNumber": 10,
  "ShimSetting": [-5462, -11490, -1266, 224, -18, -214, -79, 21],
  "SliceThickness": 2,
  "SliceTiming": [1.485, 0, 0.99, 0.0825, 1.0725, 0.165, 1.155, 0.2475, 1.2375, 0.33, 1.32, 0.4125, 1.4025, 0.5775, 1.5675, 0.66, 1.65, 0.7425, 1.7325, 0.825, 1.815, 0.9075, 1.8975, 0.495, 1.485, 0, 0.99, 0.0825, 1.0725, 0.165, 1.155, 0.2475, 1.2375, 0.33, 1.32, 0.4125, 1.4025, 0.5775, 1.5675, 0.66, 1.65, 0.7425, 1.7325, 0.825, 1.815, 0.9075, 1.8975, 0.495, 1.485, 0, 0.99, 0.0825, 1.0725, 0.165, 1.155, 0.2475, 1.2375, 0.33, 1.32, 0.4125, 1.4025, 0.5775, 1.5675, 0.66, 1.65, 0.7425, 1.7325, 0.825, 1.815, 0.9075, 1.8975, 0.495],
  "SoftwareVersions": "syngo_MR_E11",
  "SpacingBetweenSlices": 2,
  "StationName": "AWP166078",
  "TaskName": "motor",
  "TotalReadoutTime": 0.0534586,
  "TxRefAmp": 237.457,
  "dcmmeta_affine": [
    [-1.9998106956481934, -5.223773413831623e-08, 0.02751675248146057, 101.03778839111328],
    [-0.0038299125153571367, 1.9805333614349365, -0.2783394157886505, -80.23189544677734],
    [0.027248915284872055, 0.27836576104164124, 1.9803459644317627, -91.376953125],
    [0.0, 0.0, 0.0, 1.0]
],
  "dcmmeta_reorient_transform": [
    [0.0, -1.0, 0.0, 99.0],
    [1.0, 0.0, 0.0, 0.0],
    [0.0, 0.0, 1.0, 0.0],
    [0.0, 0.0, 0.0, 1.0]
],
  "dcmmeta_shape": [100, 100, 72, 232],
  "dcmmeta_slice_dim": 2,
  "dcmmeta_version": 0.6,
  "global": {
    "const": {
      "AcquisitionMatrix": [100, 0, 0, 100],
      "AngioFlag": "N",
      "BitsAllocated": 16,
      "BitsStored": 12,
      "BodyPartExamined": "BRAIN",
      "Columns": 900,
      "EchoNumbers": 1,
      "EchoTime": 34.0,
      "EchoTrainLength": 100,
      "FlipAngle": 90.0,
      "HighBit": 11,
      "ImageOrientationPatient": [0.99990534906667, 0.00191495629137, 0.01362445779711, -2.6118867e-08, 0.99026669387835, -0.1391828832696],
      "ImagePositionPatient": [-900.96204199675, -909.58622875932, 36.627994912537],
      "ImageType": [
        "ORIGINAL",
        "PRIMARY",
        "M",
        "ND",
        "MOSAIC"
],
      "ImagedNucleus": "1H",
      "ImagingFrequency": 123.257839,
      "InPlanePhaseEncodingDirection": "COL",
      "MRAcquisitionType": "2D",
      "MagneticFieldStrength": 3.0,
      "Manufacturer": "SIEMENS",
      "ManufacturerModelName": "Prisma",
      "Modality": "MR",
      "NumberOfAverages": 1.0,
      "NumberOfPhaseEncodingSteps": 100,
      "PercentPhaseFieldOfView": 100.0,
      "PercentSampling": 100.0,
      "PerformedProcedureStepStartTime": "112003.781000",
      "PhotometricInterpretation": "MONOCHROME2",
      "PixelBandwidth": 2380.0,
      "PixelRepresentation": 0,
      "PixelSpacing": [2.0, 2.0],
      "ProtocolName": "bold_100x100_s3_2x2x2_232",
      "RepetitionTime": 2000.0,
      "Rows": 900,
      "SAR": 0.06623944589758,
      "SamplesPerPixel": 1,
      "ScanOptions": "FS",
      "ScanningSequence": "EP",
      "SequenceName": "*epfid2d1_100",
      "SequenceVariant": "SK",
      "SeriesDescription": "bold_100x100_s3_2x2x2_232",
      "SeriesNumber": 10,
      "SeriesTime": "121007.916000",
      "SliceLocation": -77.923026121686,
      "SliceThickness": 2.0,
      "SmallestImagePixelValue": 0,
      "SoftwareVersions": "syngo MR E11",
      "SpacingBetweenSlices": 1.9999999996,
      "SpecificCharacterSet": "ISO_IR 100",
      "StudyID": "1",
      "StudyTime": "112003.686000",
      "TransmitCoilName": "Body",
      "VariableFlipAngleFlag": "N",
      "WindowCenterWidthExplanation": "Algo1",
      "dBdt": 0.0},
    "slices": {}
  },
  "time": {
    "samples": {
      "AcquisitionNumber": [1, 2, 3, 4, 5, 6, 7, 8, 9, 10, 11, 12, 13, 14, 15, 16, 17, 18, 19, 20, 21, 22, 23, 24, 25, 26, 27, 28, 29, 30, 31, 32, 33, 34, 35, 36, 37, 38, 39, 40, 41, 42, 43, 44, 45, 46, 47, 48, 49, 50, 51, 52, 53, 54, 55, 56, 57, 58, 59, 60, 61, 62, 63, 64, 65, 66, 67, 68, 69, 70, 71, 72, 73, 74, 75, 76, 77, 78, 79, 80, 81, 82, 83, 84, 85, 86, 87, 88, 89, 90, 91, 92, 93, 94, 95, 96, 97, 98, 99, 100, 101, 102, 103, 104, 105, 106, 107, 108, 109, 110, 111, 112, 113, 114, 115, 116, 117, 118, 119, 120, 121, 122, 123, 124, 125, 126, 127, 128, 129, 130, 131, 132, 133, 134, 135, 136, 137, 138, 139, 140, 141, 142, 143, 144, 145, 146, 147, 148, 149, 150, 151, 152, 153, 154, 155, 156, 157, 158, 159, 160, 161, 162, 163, 164, 165, 166, 167, 168, 169, 170, 171, 172, 173, 174, 175, 176, 177, 178, 179, 180, 181, 182, 183, 184, 185, 186, 187, 188, 189, 190, 191, 192, 193, 194, 195, 196, 197, 198, 199, 200, 201, 202, 203, 204, 205, 206, 207, 208, 209, 210, 211, 212, 213, 214, 215, 216, 217, 218, 219, 220, 221, 222, 223, 224, 225, 226, 227, 228, 229, 230, 231, 232],
      "AcquisitionTime": ["121005.520000", "121007.520000", "121009.520000", "121011.520000", "121013.520000", "121015.520000", "121017.520000", "121019.520000", "121021.520000", "121023.520000", "121025.520000", "121027.520000", "121029.520000", "121031.520000", "121033.520000", "121035.520000", "121037.520000", "121039.520000", "121041.520000", "121043.520000", "121045.520000", "121047.520000", "121049.520000", "121051.520000", "121053.520000", "121055.520000", "121057.520000", "121059.520000", "121101.520000", "121103.520000", "121105.520000", "121107.520000", "121109.520000", "121111.520000", "121113.520000", "121115.520000", "121117.520000", "121119.520000", "121121.520000", "121123.520000", "121125.520000", "121127.520000", "121129.520000", "121131.520000", "121133.520000", "121135.520000", "121137.520000", "121139.520000", "121141.520000", "121143.520000", "121145.520000", "121147.520000", "121149.520000", "121151.520000", "121153.520000", "121155.520000", "121157.520000", "121159.520000", "121201.520000", "121203.520000", "121205.520000", "121207.520000", "121209.520000", "121211.520000", "121213.520000", "121215.520000", "121217.520000", "121219.520000", "121221.520000", "121223.520000", "121225.520000", "121227.520000", "121229.520000", "121231.520000", "121233.520000", "121235.520000", "121237.520000", "121239.520000", "121241.520000", "121243.520000", "121245.520000", "121247.520000", "121249.520000", "121251.520000", "121253.520000", "121255.520000", "121257.520000", "121259.520000", "121301.520000", "121303.520000", "121305.520000", "121307.520000", "121309.520000", "121311.520000", "121313.520000", "121315.520000", "121317.520000", "121319.520000", "121321.520000", "121323.520000", "121325.520000", "121327.520000", "121329.520000", "121331.520000", "121333.520000", "121335.520000", "121337.520000", "121339.520000", "121341.520000", "121343.520000", "121345.520000", "121347.520000", "121349.520000", "121351.520000", "121353.520000", "121355.520000", "121357.520000", "121359.520000", "121401.520000", "121403.520000", "121405.520000", "121407.520000", "121409.520000", "121411.520000", "121413.520000", "121415.520000", "121417.520000", "121419.520000", "121421.520000", "121423.520000", "121425.520000", "121427.520000", "121429.520000", "121431.520000", "121433.520000", "121435.520000", "121437.520000", "121439.520000", "121441.520000", "121443.520000", "121445.520000", "121447.520000", "121449.520000", "121451.520000", "121453.520000", "121455.520000", "121457.520000", "121459.520000", "121501.520000", "121503.520000", "121505.520000", "121507.520000", "121509.520000", "121511.520000", "121513.520000", "121515.520000", "121517.520000", "121519.520000", "121521.520000", "121523.520000", "121525.520000", "121527.520000", "121529.520000", "121531.520000", "121533.520000", "121535.520000", "121537.520000", "121539.520000", "121541.520000", "121543.520000", "121545.520000", "121547.520000", "121549.520000", "121551.520000", "121553.520000", "121555.520000", "121557.520000", "121559.520000", "121601.520000", "121603.520000", "121605.520000", "121607.520000", "121609.520000", "121611.520000", "121613.520000", "121615.520000", "121617.520000", "121619.520000", "121621.520000", "121623.520000", "121625.520000", "121627.520000", "121629.520000", "121631.520000", "121633.520000", "121635.520000", "121637.520000", "121639.520000", "121641.520000", "121643.520000", "121645.520000", "121647.520000", "121649.520000", "121651.520000", "121653.520000", "121655.520000", "121657.520000", "121659.520000", "121701.520000", "121703.520000", "121705.520000", "121707.520000", "121709.520000", "121711.520000", "121713.520000", "121715.520000", "121717.520000", "121719.520000", "121721.520000", "121723.520000", "121725.520000", "121727.520000", "121729.520000", "121731.520000", "121733.520000", "121735.520000", "121737.520000", "121739.520000", "121741.520000", "121743.520000", "121745.520000", "121747.520000"],
      "ContentTime": ["121007.920000", "121009.416000", "121010.916000", "121012.916000", "121014.915000", "121016.915000", "121018.914000", "121021.414000", "121023.415000", "121024.916000", "121027.416000", "121029.415000", "121030.916000", "121032.916000", "121034.915000", "121036.914000", "121038.914000", "121040.915000", "121043.416000", "121045.415000", "121046.916000", "121048.915000", "121051.415000", "121052.915000", "121054.914000", "121056.914000", "121059.415000", "121100.915000", "121102.916000", "121104.915000", "121106.915000", "121108.915000", "121110.915000", "121113.414000", "121114.914000", "121117.416000", "121118.915000", "121120.916000", "121122.915000", "121124.915000", "121127.415000", "121128.914000", "121130.914000", "121132.915000", "121134.915000", "121137.416000", "121139.416000", "121140.915000", "121142.916000", "121145.416000", "121146.914000", "121149.414000", "121150.916000", "121153.416000", "121155.415000", "121157.415000", "121158.916000", "121201.416000", "121202.915000", "121204.914000", "121207.415000", "121208.915000", "121211.415000", "121213.416000", "121214.915000", "121216.915000", "121219.415000", "121220.915000", "121222.914000", "121224.914000", "121226.915000", "121228.915000", "121230.916000", "121232.915000", "121234.915000", "121236.916000", "121238.914000", "121240.914000", "121242.916000", "121245.416000", "121247.415000", "121248.916000", "121251.415000", "121252.915000", "121254.916000", "121256.914000", "121258.914000", "121301.416000", "121302.916000", "121304.915000", "121306.916000", "121308.916000", "121310.916000", "121312.916000", "121315.414000", "121317.414000", "121319.416000", "121321.416000", "121322.915000", "121324.915000", "121326.915000", "121328.916000", "121330.915000", "121333.414000", "121335.415000", "121337.415000", "121339.416000", "121341.416000", "121342.916000", "121345.415000", "121346.915000", "121348.915000", "121351.414000", "121352.916000", "121354.915000", "121357.416000", "121359.415000", "121400.915000", "121403.416000", "121404.915000", "121407.415000", "121409.414000", "121411.415000", "121412.916000", "121414.915000", "121416.915000", "121419.415000", "121420.915000", "121422.915000", "121424.915000", "121426.914000", "121428.915000", "121430.915000", "121433.416000", "121434.915000", "121436.915000", "121438.915000", "121441.414000", "121442.914000", "121444.915000", "121446.915000", "121448.916000", "121451.415000", "121452.916000", "121454.915000", "121456.916000", "121458.914000", "121500.915000", "121502.916000", "121504.915000", "121507.415000", "121508.915000", "121510.915000", "121512.915000", "121515.416000", "121517.414000", "121518.914000", "121521.416000", "121523.415000", "121524.915000", "121526.915000", "121528.915000", "121530.915000", "121532.916000", "121534.915000", "121537.415000", "121538.915000", "121540.916000", "121543.415000", "121544.916000", "121546.916000", "121548.916000", "121550.915000", "121552.914000", "121554.916000", "121556.915000", "121559.424000", "121601.415000", "121602.915000", "121605.415000", "121606.916000", "121608.914000", "121611.415000", "121612.915000", "121615.416000", "121617.416000", "121618.916000", "121620.915000", "121622.916000", "121624.916000", "121627.414000", "121629.414000", "121631.415000", "121632.915000", "121635.416000", "121636.915000", "121638.915000", "121640.916000", "121642.916000", "121645.414000", "121647.416000", "121648.915000", "121650.916000", "121653.416000", "121655.415000", "121656.915000", "121658.916000", "121700.915000", "121702.915000", "121705.416000", "121707.416000", "121708.915000", "121711.415000", "121712.916000", "121714.916000", "121717.415000", "121719.415000", "121720.914000", "121723.416000", "121725.416000", "121726.915000", "121729.416000", "121730.915000", "121733.416000", "121735.416000", "121736.915000", "121738.914000", "121740.916000", "121743.416000", "121745.416000", "121747.415000", "121748.865000"],
      "InstanceCreationTime": ["121007.920000", "121009.416000", "121010.916000", "121012.916000", "121014.915000", "121016.915000", "121018.914000", "121021.414000", "121023.415000", "121024.916000", "121027.416000", "121029.415000", "121030.916000", "121032.916000", "121034.915000", "121036.914000", "121038.914000", "121040.915000", "121043.416000", "121045.415000", "121046.916000", "121048.915000", "121051.415000", "121052.915000", "121054.914000", "121056.914000", "121059.415000", "121100.915000", "121102.916000", "121104.915000", "121106.915000", "121108.915000", "121110.915000", "121113.414000", "121114.914000", "121117.416000", "121118.915000", "121120.916000", "121122.915000", "121124.915000", "121127.415000", "121128.914000", "121130.914000", "121132.915000", "121134.915000", "121137.416000", "121139.416000", "121140.915000", "121142.916000", "121145.416000", "121146.914000", "121149.414000", "121150.916000", "121153.416000", "121155.415000", "121157.415000", "121158.916000", "121201.416000", "121202.915000", "121204.914000", "121207.415000", "121208.915000", "121211.415000", "121213.416000", "121214.915000", "121216.915000", "121219.415000", "121220.915000", "121222.914000", "121224.914000", "121226.915000", "121228.915000", "121230.916000", "121232.915000", "121234.915000", "121236.916000", "121238.914000", "121240.914000", "121242.916000", "121245.416000", "121247.415000", "121248.916000", "121251.415000", "121252.915000", "121254.916000", "121256.914000", "121258.914000", "121301.416000", "121302.916000", "121304.915000", "121306.916000", "121308.916000", "121310.916000", "121312.916000", "121315.414000", "121317.414000", "121319.416000", "121321.416000", "121322.915000", "121324.915000", "121326.915000", "121328.916000", "121330.915000", "121333.414000", "121335.415000", "121337.415000", "121339.416000", "121341.416000", "121342.916000", "121345.415000", "121346.915000", "121348.915000", "121351.414000", "121352.916000", "121354.915000", "121357.416000", "121359.415000", "121400.915000", "121403.416000", "121404.915000", "121407.415000", "121409.414000", "121411.415000", "121412.916000", "121414.915000", "121416.915000", "121419.415000", "121420.915000", "121422.915000", "121424.915000", "121426.914000", "121428.915000", "121430.915000", "121433.416000", "121434.915000", "121436.915000", "121438.915000", "121441.414000", "121442.914000", "121444.915000", "121446.915000", "121448.916000", "121451.415000", "121452.916000", "121454.915000", "121456.916000", "121458.914000", "121500.915000", "121502.916000", "121504.915000", "121507.415000", "121508.915000", "121510.915000", "121512.915000", "121515.416000", "121517.414000", "121518.914000", "121521.416000", "121523.415000", "121524.915000", "121526.915000", "121528.915000", "121530.915000", "121532.916000", "121534.915000", "121537.415000", "121538.915000", "121540.916000", "121543.415000", "121544.916000", "121546.916000", "121548.916000", "121550.915000", "121552.914000", "121554.916000", "121556.915000", "121559.424000", "121601.415000", "121602.915000", "121605.415000", "121606.916000", "121608.914000", "121611.415000", "121612.915000", "121615.416000", "121617.416000", "121618.916000", "121620.915000", "121622.916000", "121624.916000", "121627.414000", "121629.414000", "121631.415000", "121632.915000", "121635.416000", "121636.915000", "121638.915000", "121640.916000", "121642.916000", "121645.414000", "121647.416000", "121648.915000", "121650.916000", "121653.416000", "121655.415000", "121656.915000", "121658.916000", "121700.915000", "121702.915000", "121705.416000", "121707.416000", "121708.915000", "121711.415000", "121712.916000", "121714.916000", "121717.415000", "121719.415000", "121720.914000", "121723.416000", "121725.416000", "121726.915000", "121729.416000", "121730.915000", "121733.416000", "121735.416000", "121736.915000", "121738.914000", "121740.916000", "121743.416000", "121745.416000", "121747.415000", "121748.865000"],
      "InstanceNumber": [1, 2, 3, 4, 5, 6, 7, 8, 9, 10, 11, 12, 13, 14, 15, 16, 17, 18, 19, 20, 21, 22, 23, 24, 25, 26, 27, 28, 29, 30, 31, 32, 33, 34, 35, 36, 37, 38, 39, 40, 41, 42, 43, 44, 45, 46, 47, 48, 49, 50, 51, 52, 53, 54, 55, 56, 57, 58, 59, 60, 61, 62, 63, 64, 65, 66, 67, 68, 69, 70, 71, 72, 73, 74, 75, 76, 77, 78, 79, 80, 81, 82, 83, 84, 85, 86, 87, 88, 89, 90, 91, 92, 93, 94, 95, 96, 97, 98, 99, 100, 101, 102, 103, 104, 105, 106, 107, 108, 109, 110, 111, 112, 113, 114, 115, 116, 117, 118, 119, 120, 121, 122, 123, 124, 125, 126, 127, 128, 129, 130, 131, 132, 133, 134, 135, 136, 137, 138, 139, 140, 141, 142, 143, 144, 145, 146, 147, 148, 149, 150, 151, 152, 153, 154, 155, 156, 157, 158, 159, 160, 161, 162, 163, 164, 165, 166, 167, 168, 169, 170, 171, 172, 173, 174, 175, 176, 177, 178, 179, 180, 181, 182, 183, 184, 185, 186, 187, 188, 189, 190, 191, 192, 193, 194, 195, 196, 197, 198, 199, 200, 201, 202, 203, 204, 205, 206, 207, 208, 209, 210, 211, 212, 213, 214, 215, 216, 217, 218, 219, 220, 221, 222, 223, 224, 225, 226, 227, 228, 229, 230, 231, 232],
      "LargestImagePixelValue": [2660, 2612, 2569, 2567, 2576, 2583, 2563, 2570, 2574, 2578, 2561, 2566, 2550, 2553, 2565, 2536, 2537, 2537, 2560, 2529, 2536, 2546, 2531, 2535, 2568, 2525, 2524, 2656, 2587, 2577, 2617, 2534, 2663, 2583, 2542, 2555, 2542, 2558, 2564, 2548, 2549, 2548, 2539, 2536, 2520, 2535, 2519, 2525, 2547, 2536, 2536, 2548, 2525, 2543, 2531, 2496, 2550, 2509, 2533, 2511, 2530, 2512, 2526, 2507, 2528, 2516, 2505, 2504, 2526, 2532, 2553, 2530, 2553, 2507, 2500, 2541, 2522, 2528, 2531, 2531, 2522, 2516, 2516, 2516, 2509, 2515, 2514, 2501, 2503, 2477, 2508, 2492, 2513, 2524, 2515, 2504, 2529, 2477, 2613, 2567, 2595, 2581, 2501, 2616, 2748, 2528, 2571, 2526, 2534, 2522, 2537, 2518, 2548, 2524, 2545, 2532, 2521, 2542, 2529, 2565, 2536, 2556, 2563, 2532, 2532, 2542, 2521, 2519, 2544, 2571, 2559, 2547, 2592, 2520, 2548, 2515, 2571, 2560, 2550, 2511, 2515, 2545, 2502, 2505, 2552, 2522, 2549, 2506, 2538, 2538, 2558, 2547, 2520, 2520, 2529, 2527, 2508, 2541, 2543, 2533, 2550, 2519, 2516, 2534, 2498, 2493, 2501, 2546, 2506, 2526, 2490, 2527, 2550, 2538, 2533, 2517, 2556, 2542, 2524, 2519, 2523, 2553, 2517, 2545, 2519, 2508, 2468, 2528, 2488, 2463, 2461, 2486, 2512, 2498, 2530, 2496, 2515, 2526, 2488, 2510, 2516, 2553, 2533, 2574, 2595, 2552, 2558, 2584, 2646, 2516, 2529, 2526, 2518, 2528, 2504, 2556, 2520, 2525, 2516, 2519, 2551, 2506, 2531, 2540, 2522, 2545, 2485, 2518, 2496, 2522, 2510, 2494],
      "WindowCenter": [745.0, 744.0, 743.0, 742.0, 742.0, 741.0, 741.0, 742.0, 742.0, 744.0, 745.0, 745.0, 744.0, 743.0, 743.0, 742.0, 743.0, 742.0, 741.0, 742.0, 744.0, 743.0, 742.0, 742.0, 742.0, 740.0, 740.0, 741.0, 743.0, 737.0, 741.0, 740.0, 746.0, 745.0, 744.0, 745.0, 746.0, 745.0, 743.0, 742.0, 743.0, 743.0, 742.0, 741.0, 740.0, 741.0, 740.0, 741.0, 741.0, 741.0, 740.0, 740.0, 740.0, 741.0, 742.0, 743.0, 745.0, 743.0, 743.0, 743.0, 743.0, 743.0, 743.0, 742.0, 741.0, 739.0, 740.0, 742.0, 741.0, 740.0, 739.0, 739.0, 741.0, 741.0, 741.0, 742.0, 742.0, 742.0, 742.0, 742.0, 741.0, 742.0, 740.0, 742.0, 742.0, 741.0, 741.0, 742.0, 742.0, 742.0, 742.0, 743.0, 745.0, 745.0, 743.0, 741.0, 740.0, 737.0, 744.0, 741.0, 739.0, 737.0, 734.0, 736.0, 744.0, 740.0, 741.0, 740.0, 742.0, 742.0, 742.0, 742.0, 741.0, 744.0, 746.0, 744.0, 742.0, 742.0, 743.0, 743.0, 741.0, 740.0, 739.0, 740.0, 740.0, 739.0, 740.0, 739.0, 742.0, 738.0, 740.0, 735.0, 738.0, 737.0, 743.0, 739.0, 739.0, 742.0, 743.0, 743.0, 742.0, 741.0, 743.0, 743.0, 743.0, 743.0, 744.0, 744.0, 743.0, 741.0, 740.0, 740.0, 740.0, 740.0, 742.0, 743.0, 742.0, 742.0, 742.0, 742.0, 743.0, 743.0, 742.0, 742.0, 742.0, 741.0, 741.0, 743.0, 742.0, 743.0, 742.0, 742.0, 741.0, 741.0, 740.0, 739.0, 740.0, 740.0, 739.0, 738.0, 739.0, 742.0, 742.0, 742.0, 742.0, 743.0, 743.0, 744.0, 742.0, 740.0, 741.0, 740.0, 740.0, 741.0, 742.0, 741.0, 741.0, 740.0, 739.0, 741.0, 739.0, 739.0, 735.0, 739.0, 740.0, 736.0, 738.0, 736.0, 744.0, 742.0, 743.0, 743.0, 742.0, 741.0, 741.0, 744.0, 744.0, 744.0, 744.0, 744.0, 744.0, 743.0, 742.0, 741.0, 741.0, 741.0, 741.0, 740.0, 740.0, 740.0, 740.0, 740.0],
      "WindowWidth": [1577.0, 1574.0, 1572.0, 1570.0, 1569.0, 1567.0, 1568.0, 1569.0, 1571.0, 1575.0, 1578.0, 1578.0, 1575.0, 1572.0, 1571.0, 1571.0, 1572.0, 1570.0, 1567.0, 1570.0, 1576.0, 1573.0, 1570.0, 1571.0, 1571.0, 1565.0, 1566.0, 1568.0, 1574.0, 1558.0, 1569.0, 1566.0, 1579.0, 1576.0, 1575.0, 1578.0, 1579.0, 1578.0, 1572.0, 1571.0, 1573.0, 1572.0, 1569.0, 1566.0, 1564.0, 1567.0, 1564.0, 1567.0, 1568.0, 1568.0, 1566.0, 1566.0, 1565.0, 1568.0, 1570.0, 1573.0, 1577.0, 1572.0, 1573.0, 1572.0, 1573.0, 1572.0, 1571.0, 1570.0, 1568.0, 1564.0, 1566.0, 1569.0, 1568.0, 1564.0, 1562.0, 1562.0, 1569.0, 1567.0, 1567.0, 1570.0, 1570.0, 1570.0, 1570.0, 1569.0, 1569.0, 1569.0, 1566.0, 1569.0, 1569.0, 1568.0, 1568.0, 1569.0, 1570.0, 1572.0, 1571.0, 1574.0, 1578.0, 1576.0, 1571.0, 1568.0, 1566.0, 1558.0, 1574.0, 1567.0, 1562.0, 1559.0, 1552.0, 1554.0, 1576.0, 1564.0, 1568.0, 1566.0, 1570.0, 1570.0, 1570.0, 1570.0, 1567.0, 1574.0, 1579.0, 1576.0, 1570.0, 1571.0, 1572.0, 1573.0, 1568.0, 1565.0, 1564.0, 1566.0, 1566.0, 1563.0, 1565.0, 1565.0, 1570.0, 1562.0, 1566.0, 1553.0, 1562.0, 1560.0, 1573.0, 1564.0, 1562.0, 1570.0, 1573.0, 1573.0, 1570.0, 1569.0, 1573.0, 1574.0, 1572.0, 1573.0, 1575.0, 1575.0, 1574.0, 1569.0, 1566.0, 1565.0, 1565.0, 1567.0, 1570.0, 1571.0, 1569.0, 1569.0, 1569.0, 1570.0, 1572.0, 1572.0, 1569.0, 1570.0, 1570.0, 1568.0, 1566.0, 1573.0, 1571.0, 1572.0, 1571.0, 1569.0, 1567.0, 1567.0, 1565.0, 1563.0, 1567.0, 1567.0, 1563.0, 1561.0, 1563.0, 1569.0, 1569.0, 1570.0, 1570.0, 1572.0, 1572.0, 1574.0, 1569.0, 1566.0, 1567.0, 1566.0, 1565.0, 1567.0, 1569.0, 1568.0, 1567.0, 1565.0, 1563.0, 1566.0, 1564.0, 1562.0, 1554.0, 1562.0, 1564.0, 1556.0, 1560.0, 1555.0, 1576.0, 1570.0, 1572.0, 1573.0, 1571.0, 1568.0, 1569.0, 1574.0, 1574.0, 1575.0, 1575.0, 1576.0, 1576.0, 1572.0, 1571.0, 1567.0, 1567.0, 1568.0, 1567.0, 1566.0, 1564.0, 1565.0, 1564.0, 1566.0]
    },
    "slices": {}
  }
}