{
  "AcquisitionMatrixPE": 100,
  "AcquisitionNumber": 1,
  "AcquisitionTime": "11:32:27.490000",
  "BandwidthPerPixelPhaseEncode": 18.519,
  "BaseResolution": 100,
  "BodyPartExamined": "BRAIN",
  "ConsistencyInfo": "N4_VE11C_LATEST_20160120",
  "ConversionSoftware": "dcm2niix",
  "ConversionSoftwareVersion": "v1.0.20180622 GCC4.9.2",
  "DerivedVendorReportedEchoSpacing": 0.000539986,
  "DeviceSerialNumber": "166078",
  "DwellTime": 2.1e-06,
  "EchoTime": 0.034,
  "EchoTrainLength": 100,
  "EffectiveEchoSpacing": 0.000539986,
  "FlipAngle": 90,
  "ImageOrientationPatientDICOM": [0.999905, 0.00191496, 0.0136245, -2.61189e-08, 0.990267, -0.139183],
  "ImageType": [
    "ORIGINAL",
    "PRIMARY",
    "M",
    "ND",
    "MOSAIC"
],
  "InPlanePhaseEncodingDirectionDICOM": "COL",
  "InstitutionAddress": "Street_StreetNo_Bei_Jing_District_CN_ZIP",
  "InstitutionName": "BeiJing_Normal_University",
  "InstitutionalDepartmentName": "Department",
  "MRAcquisitionType": "2D",
  "MagneticFieldStrength": 3,
  "Manufacturer": "Siemens",
  "ManufacturersModelName": "Prisma",
  "Modality": "MR",
  "MultibandAccelerationFactor": 3,
  "PartialFourier": 1,
  "PatientPosition": "HFS",
  "PercentPhaseFOV": 100,
  "PhaseEncodingDirection": "j-",
  "PhaseEncodingSteps": 100,
  "PhaseResolution": 1,
  "PixelBandwidth": 2380,
  "ProcedureStepDescription": "BNU_P2018_64CH_Liu.Jia",
  "ProtocolName": "bold_100x100_s3_2x2x2_232",
  "PulseSequenceDetails": "%SiemensSeq%_ep2d_bold",
  "ReceiveCoilActiveElements": "HC1-7;NC1",
  "ReceiveCoilName": "HeadNeck_64",
  "ReconMatrixPE": 100,
  "RepetitionTime": 2,
  "SAR": 0.0662394,
  "ScanOptions": "FS",
  "ScanningSequence": "EP",
  "SequenceName": "_epfid2d1_100",
  "SequenceVariant": "SK",
  "SeriesDescription": "bold_100x100_s3_2x2x2_232",
  "SeriesNumber": 4,
  "ShimSetting": [-5462, -11490, -1266, 224, -18, -214, -79, 21],
  "SliceThickness": 2,
  "SliceTiming": [1.4825, 0, 0.99, 0.0825, 1.0725, 0.165, 1.155, 0.2475, 1.2375, 0.33, 1.3175, 0.4125, 1.4, 0.5775, 1.565, 0.66, 1.6475, 0.7425, 1.73, 0.825, 1.8125, 0.9075, 1.895, 0.495, 1.4825, 0, 0.99, 0.0825, 1.0725, 0.165, 1.155, 0.2475, 1.2375, 0.33, 1.3175, 0.4125, 1.4, 0.5775, 1.565, 0.66, 1.6475, 0.7425, 1.73, 0.825, 1.8125, 0.9075, 1.895, 0.495, 1.4825, 0, 0.99, 0.0825, 1.0725, 0.165, 1.155, 0.2475, 1.2375, 0.33, 1.3175, 0.4125, 1.4, 0.5775, 1.565, 0.66, 1.6475, 0.7425, 1.73, 0.825, 1.8125, 0.9075, 1.895, 0.495],
  "SoftwareVersions": "syngo_MR_E11",
  "SpacingBetweenSlices": 2,
  "StationName": "AWP166078",
  "TaskName": "motor",
  "TotalReadoutTime": 0.0534586,
  "TxRefAmp": 237.457,
  "dcmmeta_affine": [
    [-1.9998106956481934, -5.223773413831623e-08, 0.02751675248146057, 101.03778839111328],
    [-0.0038299125153571367, 1.9805333614349365, -0.2783394157886505, -80.23189544677734],
    [0.027248915284872055, 0.27836576104164124, 1.9803459644317627, -91.376953125],
    [0.0, 0.0, 0.0, 1.0]
],
  "dcmmeta_reorient_transform": [
    [0.0, -1.0, 0.0, 99.0],
    [1.0, 0.0, 0.0, 0.0],
    [0.0, 0.0, 1.0, 0.0],
    [0.0, 0.0, 0.0, 1.0]
],
  "dcmmeta_shape": [100, 100, 72, 232],
  "dcmmeta_slice_dim": 2,
  "dcmmeta_version": 0.6,
  "global": {
    "const": {
      "AcquisitionMatrix": [100, 0, 0, 100],
      "AngioFlag": "N",
      "BitsAllocated": 16,
      "BitsStored": 12,
      "BodyPartExamined": "BRAIN",
      "Columns": 900,
      "EchoNumbers": 1,
      "EchoTime": 34.0,
      "EchoTrainLength": 100,
      "FlipAngle": 90.0,
      "HighBit": 11,
      "ImageOrientationPatient": [0.99990534906667, 0.00191495629137, 0.01362445779711, -2.6118867e-08, 0.99026669387835, -0.1391828832696],
      "ImagePositionPatient": [-900.96204199675, -909.58622875932, 36.627994912537],
      "ImageType": [
        "ORIGINAL",
        "PRIMARY",
        "M",
        "ND",
        "MOSAIC"
],
      "ImagedNucleus": "1H",
      "ImagingFrequency": 123.257831,
      "InPlanePhaseEncodingDirection": "COL",
      "MRAcquisitionType": "2D",
      "MagneticFieldStrength": 3.0,
      "Manufacturer": "SIEMENS",
      "ManufacturerModelName": "Prisma",
      "Modality": "MR",
      "NumberOfAverages": 1.0,
      "NumberOfPhaseEncodingSteps": 100,
      "PercentPhaseFieldOfView": 100.0,
      "PercentSampling": 100.0,
      "PerformedProcedureStepStartTime": "112003.781000",
      "PhotometricInterpretation": "MONOCHROME2",
      "PixelBandwidth": 2380.0,
      "PixelRepresentation": 0,
      "PixelSpacing": [2.0, 2.0],
      "ProtocolName": "bold_100x100_s3_2x2x2_232",
      "RepetitionTime": 2000.0,
      "Rows": 900,
      "SAR": 0.06623944589758,
      "SamplesPerPixel": 1,
      "ScanOptions": "FS",
      "ScanningSequence": "EP",
      "SequenceName": "*epfid2d1_100",
      "SequenceVariant": "SK",
      "SeriesDescription": "bold_100x100_s3_2x2x2_232",
      "SeriesNumber": 4,
      "SeriesTime": "113229.493000",
      "SliceLocation": -77.923026121686,
      "SliceThickness": 2.0,
      "SmallestImagePixelValue": 0,
      "SoftwareVersions": "syngo MR E11",
      "SpacingBetweenSlices": 1.9999999996,
      "SpecificCharacterSet": "ISO_IR 100",
      "StudyID": "1",
      "StudyTime": "112003.686000",
      "TransmitCoilName": "Body",
      "VariableFlipAngleFlag": "N",
      "WindowCenterWidthExplanation": "Algo1",
      "dBdt": 0.0},
    "slices": {}
  },
  "time": {
    "samples": {
      "AcquisitionNumber": [1, 2, 3, 4, 5, 6, 7, 8, 9, 10, 11, 12, 13, 14, 15, 16, 17, 18, 19, 20, 21, 22, 23, 24, 25, 26, 27, 28, 29, 30, 31, 32, 33, 34, 35, 36, 37, 38, 39, 40, 41, 42, 43, 44, 45, 46, 47, 48, 49, 50, 51, 52, 53, 54, 55, 56, 57, 58, 59, 60, 61, 62, 63, 64, 65, 66, 67, 68, 69, 70, 71, 72, 73, 74, 75, 76, 77, 78, 79, 80, 81, 82, 83, 84, 85, 86, 87, 88, 89, 90, 91, 92, 93, 94, 95, 96, 97, 98, 99, 100, 101, 102, 103, 104, 105, 106, 107, 108, 109, 110, 111, 112, 113, 114, 115, 116, 117, 118, 119, 120, 121, 122, 123, 124, 125, 126, 127, 128, 129, 130, 131, 132, 133, 134, 135, 136, 137, 138, 139, 140, 141, 142, 143, 144, 145, 146, 147, 148, 149, 150, 151, 152, 153, 154, 155, 156, 157, 158, 159, 160, 161, 162, 163, 164, 165, 166, 167, 168, 169, 170, 171, 172, 173, 174, 175, 176, 177, 178, 179, 180, 181, 182, 183, 184, 185, 186, 187, 188, 189, 190, 191, 192, 193, 194, 195, 196, 197, 198, 199, 200, 201, 202, 203, 204, 205, 206, 207, 208, 209, 210, 211, 212, 213, 214, 215, 216, 217, 218, 219, 220, 221, 222, 223, 224, 225, 226, 227, 228, 229, 230, 231, 232],
      "AcquisitionTime": ["113227.490000", "113229.490000", "113231.490000", "113233.490000", "113235.490000", "113237.490000", "113239.490000", "113241.490000", "113243.490000", "113245.490000", "113247.490000", "113249.490000", "113251.490000", "113253.490000", "113255.490000", "113257.490000", "113259.490000", "113301.490000", "113303.490000", "113305.490000", "113307.490000", "113309.490000", "113311.490000", "113313.490000", "113315.490000", "113317.490000", "113319.490000", "113321.490000", "113323.490000", "113325.490000", "113327.490000", "113329.490000", "113331.490000", "113333.490000", "113335.490000", "113337.490000", "113339.490000", "113341.490000", "113343.490000", "113345.490000", "113347.490000", "113349.490000", "113351.490000", "113353.490000", "113355.490000", "113357.490000", "113359.490000", "113401.490000", "113403.490000", "113405.490000", "113407.490000", "113409.490000", "113411.490000", "113413.490000", "113415.490000", "113417.490000", "113419.490000", "113421.490000", "113423.490000", "113425.490000", "113427.490000", "113429.490000", "113431.490000", "113433.490000", "113435.490000", "113437.490000", "113439.490000", "113441.490000", "113443.490000", "113445.490000", "113447.490000", "113449.490000", "113451.490000", "113453.490000", "113455.490000", "113457.490000", "113459.490000", "113501.490000", "113503.490000", "113505.490000", "113507.490000", "113509.490000", "113511.490000", "113513.490000", "113515.490000", "113517.490000", "113519.490000", "113521.490000", "113523.490000", "113525.490000", "113527.490000", "113529.490000", "113531.490000", "113533.490000", "113535.490000", "113537.490000", "113539.490000", "113541.490000", "113543.490000", "113545.490000", "113547.490000", "113549.490000", "113551.490000", "113553.490000", "113555.490000", "113557.490000", "113559.490000", "113601.490000", "113603.490000", "113605.490000", "113607.490000", "113609.490000", "113611.490000", "113613.490000", "113615.490000", "113617.490000", "113619.490000", "113621.490000", "113623.490000", "113625.490000", "113627.490000", "113629.490000", "113631.490000", "113633.490000", "113635.490000", "113637.490000", "113639.490000", "113641.490000", "113643.490000", "113645.490000", "113647.490000", "113649.490000", "113651.490000", "113653.490000", "113655.490000", "113657.490000", "113659.490000", "113701.490000", "113703.490000", "113705.490000", "113707.490000", "113709.490000", "113711.490000", "113713.490000", "113715.490000", "113717.490000", "113719.490000", "113721.490000", "113723.490000", "113725.490000", "113727.490000", "113729.490000", "113731.490000", "113733.490000", "113735.490000", "113737.490000", "113739.490000", "113741.490000", "113743.490000", "113745.490000", "113747.490000", "113749.490000", "113751.490000", "113753.490000", "113755.490000", "113757.490000", "113759.490000", "113801.490000", "113803.490000", "113805.490000", "113807.490000", "113809.490000", "113811.490000", "113813.490000", "113815.490000", "113817.490000", "113819.490000", "113821.490000", "113823.490000", "113825.490000", "113827.490000", "113829.490000", "113831.490000", "113833.490000", "113835.490000", "113837.490000", "113839.490000", "113841.490000", "113843.490000", "113845.490000", "113847.490000", "113849.490000", "113851.490000", "113853.490000", "113855.490000", "113857.490000", "113859.490000", "113901.490000", "113903.490000", "113905.490000", "113907.490000", "113909.490000", "113911.490000", "113913.490000", "113915.490000", "113917.490000", "113919.490000", "113921.490000", "113923.490000", "113925.490000", "113927.490000", "113929.490000", "113931.490000", "113933.490000", "113935.490000", "113937.490000", "113939.490000", "113941.490000", "113943.490000", "113945.490000", "113947.490000", "113949.490000", "113951.490000", "113953.490000", "113955.490000", "113957.490000", "113959.490000", "114001.490000", "114003.490000", "114005.490000", "114007.490000", "114009.490000"],
      "ContentTime": ["113229.496000", "113231.480000", "113232.980000", "113234.979000", "113236.979000", "113239.480000", "113241.479000", "113242.979000", "113244.980000", "113247.480000", "113248.980000", "113251.480000", "113253.479000", "113255.479000", "113257.480000", "113258.979000", "113301.479000", "113302.979000", "113304.980000", "113307.481000", "113308.979000", "113310.979000", "113313.480000", "113315.479000", "113316.979000", "113319.479000", "113321.479000", "113322.980000", "113324.981000", "113326.980000", "113328.980000", "113330.979000", "113333.480000", "113334.979000", "113336.979000", "113339.479000", "113341.480000", "113343.479000", "113344.979000", "113346.979000", "113349.479000", "113350.979000", "113353.480000", "113354.979000", "113357.480000", "113358.980000", "113400.979000", "113402.979000", "113405.479000", "113407.479000", "113409.479000", "113411.479000", "113413.479000", "113414.981000", "113417.481000", "113418.979000", "113421.480000", "113422.979000", "113424.979000", "113426.979000", "113429.479000", "113430.980000", "113432.980000", "113434.980000", "113436.979000", "113439.479000", "113441.479000", "113442.979000", "113445.479000", "113446.979000", "113449.479000", "113451.480000", "113452.980000", "113454.980000", "113457.479000", "113458.979000", "113501.479000", "113503.479000", "113505.479000", "113506.979000", "113508.981000", "113510.980000", "113513.480000", "113515.479000", "113517.479000", "113518.979000", "113520.979000", "113522.979000", "113524.980000", "113526.981000", "113528.979000", "113531.479000", "113532.979000", "113534.979000", "113536.979000", "113538.979000", "113540.979000", "113543.481000", "113544.981000", "113547.480000", "113548.979000", "113550.979000", "113552.979000", "113554.979000", "113556.979000", "113558.979000", "113600.980000", "113603.479000", "113605.480000", "113607.479000", "113608.979000", "113610.979000", "113613.479000", "113614.979000", "113616.979000", "113619.481000", "113621.479000", "113623.479000", "113625.480000", "113627.479000", "113629.479000", "113630.979000", "113632.979000", "113634.980000", "113636.981000", "113639.479000", "113640.979000", "113642.979000", "113645.479000", "113647.479000", "113648.979000", "113650.979000", "113652.980000", "113654.980000", "113656.979000", "113659.479000", "113701.479000", "113702.979000", "113704.980000", "113707.479000", "113708.979000", "113710.980000", "113713.479000", "113715.479000", "113716.980000", "113719.479000", "113720.979000", "113722.979000", "113725.479000", "113726.980000", "113728.980000", "113731.479000", "113733.480000", "113735.479000", "113737.480000", "113739.479000", "113741.480000", "113742.979000", "113745.480000", "113746.981000", "113748.979000", "113751.479000", "113752.980000", "113754.980000", "113757.479000", "113758.980000", "113800.979000", "113802.981000", "113805.480000", "113806.979000", "113809.480000", "113810.979000", "113813.479000", "113815.479000", "113816.979000", "113818.980000", "113821.499000", "113822.980000", "113825.479000", "113826.980000", "113828.980000", "113830.980000", "113832.979000", "113834.980000", "113837.480000", "113838.980000", "113840.979000", "113843.480000", "113845.479000", "113847.479000", "113849.480000", "113851.480000", "113853.480000", "113854.980000", "113856.981000", "113859.479000", "113901.479000", "113902.980000", "113905.479000", "113906.979000", "113909.479000", "113910.979000", "113912.980000", "113914.981000", "113916.979000", "113919.479000", "113921.480000", "113922.979000", "113925.480000", "113926.979000", "113929.480000", "113931.481000", "113933.479000", "113935.479000", "113937.479000", "113938.979000", "113941.479000", "113942.980000", "113944.979000", "113946.980000", "113948.981000", "113951.479000", "113952.979000", "113954.979000", "113956.980000", "113958.979000", "114000.979000", "114002.979000", "114005.480000", "114006.980000", "114009.480000", "114010.979000"],
      "InstanceCreationTime": ["113229.496000", "113231.480000", "113232.980000", "113234.979000", "113236.979000", "113239.480000", "113241.479000", "113242.979000", "113244.980000", "113247.480000", "113248.980000", "113251.480000", "113253.479000", "113255.479000", "113257.480000", "113258.979000", "113301.479000", "113302.979000", "113304.980000", "113307.481000", "113308.979000", "113310.979000", "113313.480000", "113315.479000", "113316.979000", "113319.479000", "113321.479000", "113322.980000", "113324.981000", "113326.980000", "113328.980000", "113330.979000", "113333.480000", "113334.979000", "113336.979000", "113339.479000", "113341.480000", "113343.479000", "113344.979000", "113346.979000", "113349.479000", "113350.979000", "113353.480000", "113354.979000", "113357.480000", "113358.980000", "113400.979000", "113402.979000", "113405.479000", "113407.479000", "113409.479000", "113411.479000", "113413.479000", "113414.981000", "113417.481000", "113418.979000", "113421.480000", "113422.979000", "113424.979000", "113426.979000", "113429.479000", "113430.980000", "113432.980000", "113434.980000", "113436.979000", "113439.479000", "113441.479000", "113442.979000", "113445.479000", "113446.979000", "113449.479000", "113451.480000", "113452.980000", "113454.980000", "113457.479000", "113458.979000", "113501.479000", "113503.479000", "113505.479000", "113506.979000", "113508.981000", "113510.980000", "113513.480000", "113515.479000", "113517.479000", "113518.979000", "113520.979000", "113522.979000", "113524.980000", "113526.981000", "113528.979000", "113531.479000", "113532.979000", "113534.979000", "113536.979000", "113538.979000", "113540.979000", "113543.481000", "113544.981000", "113547.480000", "113548.979000", "113550.979000", "113552.979000", "113554.979000", "113556.979000", "113558.979000", "113600.980000", "113603.479000", "113605.480000", "113607.479000", "113608.979000", "113610.979000", "113613.479000", "113614.979000", "113616.979000", "113619.481000", "113621.479000", "113623.479000", "113625.480000", "113627.479000", "113629.479000", "113630.979000", "113632.979000", "113634.980000", "113636.981000", "113639.479000", "113640.979000", "113642.979000", "113645.479000", "113647.479000", "113648.979000", "113650.979000", "113652.980000", "113654.980000", "113656.979000", "113659.479000", "113701.479000", "113702.979000", "113704.980000", "113707.479000", "113708.979000", "113710.980000", "113713.479000", "113715.479000", "113716.980000", "113719.479000", "113720.979000", "113722.979000", "113725.479000", "113726.980000", "113728.980000", "113731.479000", "113733.480000", "113735.479000", "113737.480000", "113739.479000", "113741.480000", "113742.979000", "113745.480000", "113746.981000", "113748.979000", "113751.479000", "113752.980000", "113754.980000", "113757.479000", "113758.980000", "113800.979000", "113802.981000", "113805.480000", "113806.979000", "113809.480000", "113810.979000", "113813.479000", "113815.479000", "113816.979000", "113818.980000", "113821.499000", "113822.980000", "113825.479000", "113826.980000", "113828.980000", "113830.980000", "113832.979000", "113834.980000", "113837.480000", "113838.980000", "113840.979000", "113843.480000", "113845.479000", "113847.479000", "113849.480000", "113851.480000", "113853.480000", "113854.980000", "113856.981000", "113859.479000", "113901.479000", "113902.980000", "113905.479000", "113906.979000", "113909.479000", "113910.979000", "113912.980000", "113914.981000", "113916.979000", "113919.479000", "113921.480000", "113922.979000", "113925.480000", "113926.979000", "113929.480000", "113931.481000", "113933.479000", "113935.479000", "113937.479000", "113938.979000", "113941.479000", "113942.980000", "113944.979000", "113946.980000", "113948.981000", "113951.479000", "113952.979000", "113954.979000", "113956.980000", "113958.979000", "114000.979000", "114002.979000", "114005.480000", "114006.980000", "114009.480000", "114010.979000"],
      "InstanceNumber": [1, 2, 3, 4, 5, 6, 7, 8, 9, 10, 11, 12, 13, 14, 15, 16, 17, 18, 19, 20, 21, 22, 23, 24, 25, 26, 27, 28, 29, 30, 31, 32, 33, 34, 35, 36, 37, 38, 39, 40, 41, 42, 43, 44, 45, 46, 47, 48, 49, 50, 51, 52, 53, 54, 55, 56, 57, 58, 59, 60, 61, 62, 63, 64, 65, 66, 67, 68, 69, 70, 71, 72, 73, 74, 75, 76, 77, 78, 79, 80, 81, 82, 83, 84, 85, 86, 87, 88, 89, 90, 91, 92, 93, 94, 95, 96, 97, 98, 99, 100, 101, 102, 103, 104, 105, 106, 107, 108, 109, 110, 111, 112, 113, 114, 115, 116, 117, 118, 119, 120, 121, 122, 123, 124, 125, 126, 127, 128, 129, 130, 131, 132, 133, 134, 135, 136, 137, 138, 139, 140, 141, 142, 143, 144, 145, 146, 147, 148, 149, 150, 151, 152, 153, 154, 155, 156, 157, 158, 159, 160, 161, 162, 163, 164, 165, 166, 167, 168, 169, 170, 171, 172, 173, 174, 175, 176, 177, 178, 179, 180, 181, 182, 183, 184, 185, 186, 187, 188, 189, 190, 191, 192, 193, 194, 195, 196, 197, 198, 199, 200, 201, 202, 203, 204, 205, 206, 207, 208, 209, 210, 211, 212, 213, 214, 215, 216, 217, 218, 219, 220, 221, 222, 223, 224, 225, 226, 227, 228, 229, 230, 231, 232],
      "LargestImagePixelValue": [2587, 2540, 2512, 2509, 2514, 2514, 2530, 2523, 2526, 2515, 2542, 2494, 2537, 2508, 2524, 2571, 2507, 2565, 2555, 2513, 2480, 2492, 2451, 2448, 2515, 2503, 2490, 2493, 2578, 2514, 2546, 2523, 2580, 2525, 2538, 2571, 2508, 2513, 2481, 2491, 2556, 2511, 2509, 2524, 2499, 2519, 2475, 2528, 2499, 2520, 2473, 2524, 2439, 2482, 2435, 2474, 2469, 2567, 2447, 2513, 2497, 2498, 2509, 2484, 2518, 2495, 2523, 2497, 2494, 2474, 2491, 2536, 2505, 2543, 2565, 2467, 2492, 2489, 2447, 2498, 2475, 2473, 2489, 2470, 2469, 2479, 2508, 2488, 2457, 2449, 2500, 2459, 2505, 2487, 2497, 2539, 2502, 2539, 2557, 2466, 2501, 2536, 2538, 2520, 2531, 2484, 2489, 2513, 2492, 2460, 2492, 2494, 2473, 2537, 2491, 2500, 2508, 2502, 2490, 2479, 2513, 2502, 2505, 2507, 2503, 2534, 2503, 2504, 2509, 2541, 2533, 2514, 2513, 2489, 2486, 2475, 2511, 2498, 2506, 2505, 2523, 2531, 2521, 2490, 2491, 2498, 2521, 2507, 2501, 2508, 2537, 2502, 2501, 2521, 2475, 2478, 2503, 2489, 2530, 2523, 2507, 2482, 2455, 2477, 2490, 2464, 2461, 2468, 2510, 2483, 2488, 2499, 2488, 2474, 2468, 2485, 2457, 2477, 2487, 2447, 2466, 2465, 2474, 2477, 2457, 2469, 2474, 2437, 2466, 2461, 2498, 2516, 2524, 2500, 2470, 2470, 2475, 2486, 2482, 2498, 2502, 2523, 2517, 2557, 2523, 2538, 2518, 2521, 2473, 2519, 2553, 2522, 2492, 2541, 2541, 2535, 2517, 2439, 2493, 2450, 2464, 2476, 2500, 2474, 2492, 2459, 2465, 2478, 2494, 2473, 2502, 2465],
      "WindowCenter": [740.0, 739.0, 738.0, 736.0, 735.0, 737.0, 738.0, 735.0, 737.0, 738.0, 739.0, 739.0, 739.0, 735.0, 737.0, 741.0, 737.0, 743.0, 741.0, 741.0, 738.0, 743.0, 741.0, 739.0, 740.0, 739.0, 740.0, 741.0, 740.0, 738.0, 737.0, 737.0, 738.0, 738.0, 739.0, 740.0, 740.0, 741.0, 740.0, 739.0, 739.0, 738.0, 738.0, 738.0, 738.0, 740.0, 740.0, 740.0, 739.0, 740.0, 740.0, 743.0, 741.0, 742.0, 739.0, 740.0, 739.0, 742.0, 739.0, 741.0, 739.0, 739.0, 739.0, 738.0, 739.0, 738.0, 738.0, 738.0, 738.0, 738.0, 739.0, 739.0, 739.0, 739.0, 741.0, 741.0, 740.0, 739.0, 739.0, 741.0, 740.0, 738.0, 736.0, 737.0, 739.0, 739.0, 740.0, 740.0, 742.0, 742.0, 743.0, 741.0, 741.0, 740.0, 738.0, 740.0, 738.0, 737.0, 736.0, 736.0, 736.0, 741.0, 739.0, 738.0, 738.0, 738.0, 740.0, 741.0, 737.0, 736.0, 740.0, 741.0, 738.0, 739.0, 739.0, 740.0, 739.0, 739.0, 740.0, 739.0, 739.0, 740.0, 740.0, 739.0, 737.0, 739.0, 741.0, 741.0, 740.0, 741.0, 741.0, 740.0, 741.0, 739.0, 739.0, 738.0, 738.0, 739.0, 740.0, 740.0, 740.0, 738.0, 740.0, 741.0, 739.0, 738.0, 738.0, 739.0, 740.0, 738.0, 739.0, 739.0, 741.0, 741.0, 741.0, 741.0, 742.0, 741.0, 741.0, 741.0, 740.0, 740.0, 739.0, 738.0, 739.0, 740.0, 740.0, 738.0, 738.0, 738.0, 738.0, 738.0, 737.0, 739.0, 740.0, 740.0, 739.0, 739.0, 741.0, 741.0, 741.0, 740.0, 740.0, 741.0, 740.0, 740.0, 741.0, 741.0, 741.0, 741.0, 741.0, 741.0, 739.0, 742.0, 744.0, 743.0, 743.0, 742.0, 742.0, 742.0, 741.0, 740.0, 739.0, 741.0, 741.0, 740.0, 740.0, 740.0, 739.0, 741.0, 741.0, 740.0, 740.0, 743.0, 741.0, 741.0, 740.0, 739.0, 742.0, 741.0, 740.0, 740.0, 741.0, 741.0, 739.0, 741.0, 741.0, 741.0, 741.0, 741.0, 740.0, 737.0],
      "WindowWidth": [1569.0, 1567.0, 1564.0, 1559.0, 1557.0, 1562.0, 1564.0, 1557.0, 1560.0, 1563.0, 1566.0, 1565.0, 1565.0, 1557.0, 1562.0, 1570.0, 1561.0, 1576.0, 1570.0, 1571.0, 1564.0, 1575.0, 1572.0, 1567.0, 1569.0, 1567.0, 1569.0, 1571.0, 1570.0, 1563.0, 1560.0, 1560.0, 1563.0, 1562.0, 1565.0, 1569.0, 1569.0, 1571.0, 1568.0, 1566.0, 1566.0, 1564.0, 1563.0, 1564.0, 1564.0, 1567.0, 1568.0, 1568.0, 1565.0, 1567.0, 1569.0, 1575.0, 1572.0, 1573.0, 1566.0, 1567.0, 1567.0, 1571.0, 1566.0, 1569.0, 1566.0, 1566.0, 1566.0, 1564.0, 1566.0, 1564.0, 1563.0, 1562.0, 1563.0, 1564.0, 1565.0, 1566.0, 1565.0, 1566.0, 1571.0, 1570.0, 1568.0, 1566.0, 1566.0, 1571.0, 1568.0, 1564.0, 1559.0, 1562.0, 1565.0, 1565.0, 1567.0, 1569.0, 1573.0, 1573.0, 1576.0, 1571.0, 1571.0, 1568.0, 1563.0, 1567.0, 1564.0, 1562.0, 1558.0, 1560.0, 1560.0, 1570.0, 1567.0, 1564.0, 1564.0, 1563.0, 1568.0, 1570.0, 1562.0, 1559.0, 1569.0, 1571.0, 1564.0, 1566.0, 1567.0, 1567.0, 1567.0, 1566.0, 1567.0, 1566.0, 1566.0, 1567.0, 1568.0, 1565.0, 1561.0, 1566.0, 1571.0, 1570.0, 1568.0, 1569.0, 1571.0, 1569.0, 1570.0, 1566.0, 1564.0, 1563.0, 1564.0, 1565.0, 1568.0, 1568.0, 1568.0, 1563.0, 1567.0, 1572.0, 1567.0, 1563.0, 1564.0, 1565.0, 1567.0, 1563.0, 1565.0, 1567.0, 1571.0, 1571.0, 1570.0, 1571.0, 1572.0, 1570.0, 1571.0, 1569.0, 1569.0, 1567.0, 1566.0, 1564.0, 1565.0, 1568.0, 1567.0, 1564.0, 1564.0, 1563.0, 1562.0, 1562.0, 1560.0, 1564.0, 1567.0, 1568.0, 1566.0, 1566.0, 1571.0, 1570.0, 1570.0, 1568.0, 1568.0, 1570.0, 1567.0, 1568.0, 1569.0, 1569.0, 1571.0, 1569.0, 1570.0, 1569.0, 1564.0, 1573.0, 1577.0, 1576.0, 1575.0, 1573.0, 1573.0, 1572.0, 1569.0, 1567.0, 1566.0, 1569.0, 1569.0, 1568.0, 1568.0, 1568.0, 1564.0, 1570.0, 1569.0, 1568.0, 1569.0, 1574.0, 1569.0, 1569.0, 1568.0, 1565.0, 1572.0, 1571.0, 1568.0, 1568.0, 1570.0, 1569.0, 1565.0, 1571.0, 1571.0, 1571.0, 1570.0, 1569.0, 1568.0, 1561.0]
    },
    "slices": {}
  }
}