{
  "AcquisitionMatrixPE": 100,
  "AcquisitionNumber": 1,
  "AcquisitionTime": "14:13:35.350000",
  "BandwidthPerPixelPhaseEncode": 18.519,
  "BaseResolution": 100,
  "BodyPartExamined": "BRAIN",
  "ConsistencyInfo": "N4_VE11C_LATEST_20160120",
  "ConversionSoftware": "dcm2niix",
  "ConversionSoftwareVersion": "v1.0.20180622 GCC4.9.2",
  "DerivedVendorReportedEchoSpacing": 0.000539986,
  "DeviceSerialNumber": "166078",
  "DwellTime": 2.1e-06,
  "EchoTime": 0.034,
  "EchoTrainLength": 100,
  "EffectiveEchoSpacing": 0.000539986,
  "FlipAngle": 90,
  "ImageOrientationPatientDICOM": [0.998233, -0.0182341, -0.0565522, 0.00522675, 0.975008, -0.22211],
  "ImageType": [
    "ORIGINAL",
    "PRIMARY",
    "M",
    "ND",
    "MOSAIC"
],
  "InPlanePhaseEncodingDirectionDICOM": "COL",
  "InstitutionAddress": "Street_StreetNo_Bei_Jing_District_CN_ZIP",
  "InstitutionName": "BeiJing_Normal_University",
  "InstitutionalDepartmentName": "Department",
  "MRAcquisitionType": "2D",
  "MagneticFieldStrength": 3,
  "Manufacturer": "Siemens",
  "ManufacturersModelName": "Prisma",
  "Modality": "MR",
  "MultibandAccelerationFactor": 3,
  "PartialFourier": 1,
  "PatientPosition": "HFS",
  "PercentPhaseFOV": 100,
  "PhaseEncodingDirection": "j-",
  "PhaseEncodingSteps": 100,
  "PhaseResolution": 1,
  "PixelBandwidth": 2380,
  "ProcedureStepDescription": "BNU_P2018_64CH_Liu.Jia",
  "ProtocolName": "bold_100x100_s3_2x2x2_232",
  "PulseSequenceDetails": "%SiemensSeq%_ep2d_bold",
  "ReceiveCoilActiveElements": "HC1-7;NC1",
  "ReceiveCoilName": "HeadNeck_64",
  "ReconMatrixPE": 100,
  "RepetitionTime": 2,
  "SAR": 0.0681417,
  "ScanOptions": "FS",
  "ScanningSequence": "EP",
  "SequenceName": "_epfid2d1_100",
  "SequenceVariant": "SK",
  "SeriesDescription": "bold_100x100_s3_2x2x2_232",
  "SeriesNumber": 4,
  "ShimSetting": [-5479, -11477, -1295, 352, -19, -261, -203, 64],
  "SliceThickness": 2,
  "SliceTiming": [1.485, 0, 0.99, 0.0825, 1.0725, 0.165, 1.155, 0.2475, 1.2375, 0.33, 1.32, 0.4125, 1.4025, 0.5775, 1.5675, 0.66, 1.65, 0.7425, 1.7325, 0.825, 1.815, 0.9075, 1.8975, 0.495, 1.485, 0, 0.99, 0.0825, 1.0725, 0.165, 1.155, 0.2475, 1.2375, 0.33, 1.32, 0.4125, 1.4025, 0.5775, 1.5675, 0.66, 1.65, 0.7425, 1.7325, 0.825, 1.815, 0.9075, 1.8975, 0.495, 1.485, 0, 0.99, 0.0825, 1.0725, 0.165, 1.155, 0.2475, 1.2375, 0.33, 1.32, 0.4125, 1.4025, 0.5775, 1.5675, 0.66, 1.65, 0.7425, 1.7325, 0.825, 1.815, 0.9075, 1.8975, 0.495],
  "SoftwareVersions": "syngo_MR_E11",
  "SpacingBetweenSlices": 2,
  "StationName": "AWP166078",
  "TaskName": "motor",
  "TotalReadoutTime": 0.0534586,
  "TxRefAmp": 218.487,
  "dcmmeta_affine": [
    [-1.9964662790298462, 0.010453490540385246, -0.11837758868932724, 103.63636779785156],
    [0.03646811097860336, 1.9500150680541992, -0.4428447186946869, -79.05583190917969],
    [-0.11310440301895142, 0.44422078132629395, 1.9467601776123047, -93.23342895507812],
    [0.0, 0.0, 0.0, 1.0]
],
  "dcmmeta_reorient_transform": [
    [0.0, -1.0, 0.0, 99.0],
    [1.0, 0.0, 0.0, 0.0],
    [0.0, 0.0, 1.0, 0.0],
    [0.0, 0.0, 0.0, 1.0]
],
  "dcmmeta_shape": [100, 100, 72, 232],
  "dcmmeta_slice_dim": 2,
  "dcmmeta_version": 0.6,
  "global": {
    "const": {
      "AcquisitionMatrix": [100, 0, 0, 100],
      "AngioFlag": "N",
      "BitsAllocated": 16,
      "BitsStored": 12,
      "BodyPartExamined": "BRAIN",
      "Columns": 900,
      "EchoNumbers": 1,
      "EchoTime": 34.0,
      "EchoTrainLength": 100,
      "FlipAngle": 90.0,
      "HighBit": 11,
      "ImageOrientationPatient": [0.99823312284671, -0.0182340560803, -0.0565522028799, 0.00522674521977, 0.97500751695702, -0.2221103847453],
      "ImagePositionPatient": [-907.43915668098, -879.41442838769, 173.67449506139],
      "ImageType": [
        "ORIGINAL",
        "PRIMARY",
        "M",
        "ND",
        "MOSAIC"
],
      "ImagedNucleus": "1H",
      "ImagingFrequency": 123.257859,
      "InPlanePhaseEncodingDirection": "COL",
      "MRAcquisitionType": "2D",
      "MagneticFieldStrength": 3.0,
      "Manufacturer": "SIEMENS",
      "ManufacturerModelName": "Prisma",
      "Modality": "MR",
      "NumberOfAverages": 1.0,
      "NumberOfPhaseEncodingSteps": 100,
      "PercentPhaseFieldOfView": 100.0,
      "PercentSampling": 100.0,
      "PerformedProcedureStepStartTime": "140130.696000",
      "PhotometricInterpretation": "MONOCHROME2",
      "PixelBandwidth": 2380.0,
      "PixelRepresentation": 0,
      "PixelSpacing": [2.0, 2.0],
      "ProtocolName": "bold_100x100_s3_2x2x2_232",
      "RepetitionTime": 2000.0,
      "Rows": 900,
      "SAR": 0.06814165789722,
      "SamplesPerPixel": 1,
      "ScanOptions": "FS",
      "ScanningSequence": "EP",
      "SequenceName": "*epfid2d1_100",
      "SequenceVariant": "SK",
      "SeriesDescription": "bold_100x100_s3_2x2x2_232",
      "SeriesNumber": 4,
      "SeriesTime": "141337.512000",
      "SliceLocation": -79.380950601156,
      "SliceThickness": 2.0,
      "SmallestImagePixelValue": 0,
      "SoftwareVersions": "syngo MR E11",
      "SpacingBetweenSlices": 1.9999999973851,
      "SpecificCharacterSet": "ISO_IR 100",
      "StudyID": "1",
      "StudyTime": "140130.596000",
      "TransmitCoilName": "Body",
      "VariableFlipAngleFlag": "N",
      "WindowCenterWidthExplanation": "Algo1",
      "dBdt": 0.0},
    "slices": {}
  },
  "time": {
    "samples": {
      "AcquisitionNumber": [1, 2, 3, 4, 5, 6, 7, 8, 9, 10, 11, 12, 13, 14, 15, 16, 17, 18, 19, 20, 21, 22, 23, 24, 25, 26, 27, 28, 29, 30, 31, 32, 33, 34, 35, 36, 37, 38, 39, 40, 41, 42, 43, 44, 45, 46, 47, 48, 49, 50, 51, 52, 53, 54, 55, 56, 57, 58, 59, 60, 61, 62, 63, 64, 65, 66, 67, 68, 69, 70, 71, 72, 73, 74, 75, 76, 77, 78, 79, 80, 81, 82, 83, 84, 85, 86, 87, 88, 89, 90, 91, 92, 93, 94, 95, 96, 97, 98, 99, 100, 101, 102, 103, 104, 105, 106, 107, 108, 109, 110, 111, 112, 113, 114, 115, 116, 117, 118, 119, 120, 121, 122, 123, 124, 125, 126, 127, 128, 129, 130, 131, 132, 133, 134, 135, 136, 137, 138, 139, 140, 141, 142, 143, 144, 145, 146, 147, 148, 149, 150, 151, 152, 153, 154, 155, 156, 157, 158, 159, 160, 161, 162, 163, 164, 165, 166, 167, 168, 169, 170, 171, 172, 173, 174, 175, 176, 177, 178, 179, 180, 181, 182, 183, 184, 185, 186, 187, 188, 189, 190, 191, 192, 193, 194, 195, 196, 197, 198, 199, 200, 201, 202, 203, 204, 205, 206, 207, 208, 209, 210, 211, 212, 213, 214, 215, 216, 217, 218, 219, 220, 221, 222, 223, 224, 225, 226, 227, 228, 229, 230, 231, 232],
      "AcquisitionTime": ["141335.350000", "141337.350000", "141339.350000", "141341.350000", "141343.350000", "141345.350000", "141347.350000", "141349.350000", "141351.350000", "141353.350000", "141355.350000", "141357.350000", "141359.350000", "141401.350000", "141403.350000", "141405.350000", "141407.350000", "141409.350000", "141411.350000", "141413.350000", "141415.350000", "141417.350000", "141419.350000", "141421.350000", "141423.350000", "141425.350000", "141427.350000", "141429.350000", "141431.350000", "141433.350000", "141435.350000", "141437.350000", "141439.350000", "141441.350000", "141443.350000", "141445.350000", "141447.350000", "141449.350000", "141451.350000", "141453.350000", "141455.350000", "141457.350000", "141459.350000", "141501.350000", "141503.350000", "141505.350000", "141507.350000", "141509.350000", "141511.350000", "141513.350000", "141515.350000", "141517.350000", "141519.350000", "141521.350000", "141523.350000", "141525.350000", "141527.350000", "141529.350000", "141531.350000", "141533.350000", "141535.350000", "141537.350000", "141539.350000", "141541.350000", "141543.350000", "141545.350000", "141547.350000", "141549.350000", "141551.350000", "141553.350000", "141555.350000", "141557.350000", "141559.350000", "141601.350000", "141603.350000", "141605.350000", "141607.350000", "141609.350000", "141611.350000", "141613.350000", "141615.350000", "141617.350000", "141619.350000", "141621.350000", "141623.350000", "141625.350000", "141627.350000", "141629.350000", "141631.350000", "141633.350000", "141635.350000", "141637.350000", "141639.350000", "141641.350000", "141643.350000", "141645.350000", "141647.350000", "141649.350000", "141651.350000", "141653.350000", "141655.350000", "141657.350000", "141659.350000", "141701.350000", "141703.350000", "141705.350000", "141707.350000", "141709.350000", "141711.350000", "141713.350000", "141715.350000", "141717.350000", "141719.350000", "141721.350000", "141723.350000", "141725.350000", "141727.350000", "141729.350000", "141731.350000", "141733.350000", "141735.350000", "141737.350000", "141739.350000", "141741.350000", "141743.350000", "141745.350000", "141747.350000", "141749.350000", "141751.350000", "141753.350000", "141755.350000", "141757.350000", "141759.350000", "141801.350000", "141803.350000", "141805.350000", "141807.350000", "141809.350000", "141811.350000", "141813.350000", "141815.350000", "141817.350000", "141819.350000", "141821.350000", "141823.350000", "141825.350000", "141827.350000", "141829.350000", "141831.350000", "141833.350000", "141835.350000", "141837.350000", "141839.350000", "141841.350000", "141843.350000", "141845.350000", "141847.350000", "141849.350000", "141851.350000", "141853.350000", "141855.350000", "141857.350000", "141859.350000", "141901.350000", "141903.350000", "141905.350000", "141907.350000", "141909.350000", "141911.350000", "141913.350000", "141915.350000", "141917.350000", "141919.350000", "141921.350000", "141923.350000", "141925.350000", "141927.350000", "141929.350000", "141931.350000", "141933.350000", "141935.350000", "141937.350000", "141939.350000", "141941.350000", "141943.350000", "141945.350000", "141947.350000", "141949.350000", "141951.350000", "141953.350000", "141955.350000", "141957.350000", "141959.350000", "142001.350000", "142003.350000", "142005.350000", "142007.350000", "142009.350000", "142011.350000", "142013.350000", "142015.350000", "142017.350000", "142019.350000", "142021.350000", "142023.350000", "142025.350000", "142027.350000", "142029.350000", "142031.350000", "142033.350000", "142035.350000", "142037.350000", "142039.350000", "142041.350000", "142043.350000", "142045.350000", "142047.350000", "142049.350000", "142051.350000", "142053.350000", "142055.350000", "142057.350000", "142059.350000", "142101.350000", "142103.350000", "142105.350000", "142107.350000", "142109.350000", "142111.350000", "142113.350000", "142115.350000", "142117.350000"],
      "ContentTime": ["141337.516000", "141339.011000", "141341.011000", "141343.011000", "141345.012000", "141347.012000", "141349.011000", "141351.011000", "141353.012000", "141355.011000", "141357.011000", "141359.011000", "141401.011000", "141403.011000", "141405.011000", "141407.011000", "141409.011000", "141411.012000", "141413.011000", "141415.012000", "141417.011000", "141419.012000", "141421.011000", "141423.011000", "141425.011000", "141427.012000", "141429.012000", "141431.011000", "141433.011000", "141435.011000", "141437.011000", "141439.011000", "141441.011000", "141443.012000", "141445.012000", "141447.011000", "141449.011000", "141451.011000", "141453.011000", "141455.011000", "141457.011000", "141459.011000", "141501.012000", "141503.013000", "141505.011000", "141507.011000", "141509.011000", "141511.011000", "141513.011000", "141515.011000", "141517.012000", "141519.012000", "141521.012000", "141523.011000", "141525.012000", "141527.011000", "141529.011000", "141531.012000", "141533.012000", "141535.011000", "141537.012000", "141539.013000", "141541.011000", "141543.011000", "141545.011000", "141547.012000", "141549.011000", "141551.011000", "141553.012000", "141555.012000", "141557.011000", "141559.011000", "141601.011000", "141603.011000", "141605.011000", "141607.011000", "141609.012000", "141611.011000", "141613.012000", "141615.011000", "141617.011000", "141619.011000", "141621.012000", "141623.011000", "141625.011000", "141627.011000", "141629.012000", "141631.012000", "141633.011000", "141635.012000", "141637.011000", "141639.011000", "141641.011000", "141643.011000", "141645.012000", "141647.012000", "141649.012000", "141651.011000", "141653.011000", "141655.011000", "141657.011000", "141659.011000", "141701.011000", "141703.011000", "141705.013000", "141707.011000", "141709.011000", "141711.011000", "141713.011000", "141715.011000", "141717.011000", "141719.011000", "141721.011000", "141723.013000", "141725.011000", "141727.012000", "141729.011000", "141731.011000", "141733.011000", "141735.011000", "141737.011000", "141739.012000", "141741.012000", "141743.011000", "141745.012000", "141747.011000", "141749.011000", "141751.012000", "141753.011000", "141755.011000", "141757.013000", "141759.012000", "141801.029000", "141803.011000", "141805.011000", "141807.011000", "141809.011000", "141811.012000", "141813.011000", "141815.012000", "141817.011000", "141819.011000", "141821.012000", "141823.011000", "141825.011000", "141827.011000", "141829.011000", "141831.011000", "141833.012000", "141835.011000", "141837.012000", "141839.012000", "141841.011000", "141843.011000", "141845.012000", "141847.012000", "141849.012000", "141851.013000", "141853.011000", "141855.011000", "141857.012000", "141859.012000", "141901.011000", "141903.011000", "141905.011000", "141907.012000", "141909.013000", "141911.011000", "141913.011000", "141915.011000", "141917.012000", "141919.011000", "141921.011000", "141923.011000", "141925.012000", "141927.011000", "141929.011000", "141931.011000", "141933.012000", "141935.011000", "141937.011000", "141939.011000", "141941.011000", "141943.012000", "141945.012000", "141947.011000", "141949.012000", "141951.011000", "141953.011000", "141955.011000", "141957.012000", "141959.012000", "142001.012000", "142003.011000", "142005.011000", "142007.011000", "142009.011000", "142011.011000", "142013.011000", "142015.012000", "142017.012000", "142019.012000", "142021.012000", "142023.011000", "142025.012000", "142027.012000", "142029.011000", "142031.012000", "142033.011000", "142035.012000", "142037.012000", "142039.011000", "142041.011000", "142043.011000", "142045.012000", "142047.011000", "142049.011000", "142051.011000", "142053.013000", "142055.012000", "142057.011000", "142059.012000", "142101.011000", "142103.011000", "142105.011000", "142107.011000", "142109.013000", "142111.013000", "142113.011000", "142115.011000", "142117.011000", "142118.798000"],
      "InstanceCreationTime": ["141337.516000", "141339.011000", "141341.011000", "141343.011000", "141345.012000", "141347.012000", "141349.011000", "141351.011000", "141353.012000", "141355.011000", "141357.011000", "141359.011000", "141401.011000", "141403.011000", "141405.011000", "141407.011000", "141409.011000", "141411.012000", "141413.011000", "141415.012000", "141417.011000", "141419.012000", "141421.011000", "141423.011000", "141425.011000", "141427.012000", "141429.012000", "141431.011000", "141433.011000", "141435.011000", "141437.011000", "141439.011000", "141441.011000", "141443.012000", "141445.012000", "141447.011000", "141449.011000", "141451.011000", "141453.011000", "141455.011000", "141457.011000", "141459.011000", "141501.012000", "141503.013000", "141505.011000", "141507.011000", "141509.011000", "141511.011000", "141513.011000", "141515.011000", "141517.012000", "141519.012000", "141521.012000", "141523.011000", "141525.012000", "141527.011000", "141529.011000", "141531.012000", "141533.012000", "141535.011000", "141537.012000", "141539.013000", "141541.011000", "141543.011000", "141545.011000", "141547.012000", "141549.011000", "141551.011000", "141553.012000", "141555.012000", "141557.011000", "141559.011000", "141601.011000", "141603.011000", "141605.011000", "141607.011000", "141609.012000", "141611.011000", "141613.012000", "141615.011000", "141617.011000", "141619.011000", "141621.012000", "141623.011000", "141625.011000", "141627.011000", "141629.012000", "141631.012000", "141633.011000", "141635.012000", "141637.011000", "141639.011000", "141641.011000", "141643.011000", "141645.012000", "141647.012000", "141649.012000", "141651.011000", "141653.011000", "141655.011000", "141657.011000", "141659.011000", "141701.011000", "141703.011000", "141705.013000", "141707.011000", "141709.011000", "141711.011000", "141713.011000", "141715.011000", "141717.011000", "141719.011000", "141721.011000", "141723.013000", "141725.011000", "141727.012000", "141729.011000", "141731.011000", "141733.011000", "141735.011000", "141737.011000", "141739.012000", "141741.012000", "141743.011000", "141745.012000", "141747.011000", "141749.011000", "141751.012000", "141753.011000", "141755.011000", "141757.013000", "141759.012000", "141801.029000", "141803.011000", "141805.011000", "141807.011000", "141809.011000", "141811.012000", "141813.011000", "141815.012000", "141817.011000", "141819.011000", "141821.012000", "141823.011000", "141825.011000", "141827.011000", "141829.011000", "141831.011000", "141833.012000", "141835.011000", "141837.012000", "141839.012000", "141841.011000", "141843.011000", "141845.012000", "141847.012000", "141849.012000", "141851.013000", "141853.011000", "141855.011000", "141857.012000", "141859.012000", "141901.011000", "141903.011000", "141905.011000", "141907.012000", "141909.013000", "141911.011000", "141913.011000", "141915.011000", "141917.012000", "141919.011000", "141921.011000", "141923.011000", "141925.012000", "141927.011000", "141929.011000", "141931.011000", "141933.012000", "141935.011000", "141937.011000", "141939.011000", "141941.011000", "141943.012000", "141945.012000", "141947.011000", "141949.012000", "141951.011000", "141953.011000", "141955.011000", "141957.012000", "141959.012000", "142001.012000", "142003.011000", "142005.011000", "142007.011000", "142009.011000", "142011.011000", "142013.011000", "142015.012000", "142017.012000", "142019.012000", "142021.012000", "142023.011000", "142025.012000", "142027.012000", "142029.011000", "142031.012000", "142033.011000", "142035.012000", "142037.012000", "142039.011000", "142041.011000", "142043.011000", "142045.012000", "142047.011000", "142049.011000", "142051.011000", "142053.013000", "142055.012000", "142057.011000", "142059.012000", "142101.011000", "142103.011000", "142105.011000", "142107.011000", "142109.013000", "142111.013000", "142113.011000", "142115.011000", "142117.011000", "142118.798000"],
      "InstanceNumber": [1, 2, 3, 4, 5, 6, 7, 8, 9, 10, 11, 12, 13, 14, 15, 16, 17, 18, 19, 20, 21, 22, 23, 24, 25, 26, 27, 28, 29, 30, 31, 32, 33, 34, 35, 36, 37, 38, 39, 40, 41, 42, 43, 44, 45, 46, 47, 48, 49, 50, 51, 52, 53, 54, 55, 56, 57, 58, 59, 60, 61, 62, 63, 64, 65, 66, 67, 68, 69, 70, 71, 72, 73, 74, 75, 76, 77, 78, 79, 80, 81, 82, 83, 84, 85, 86, 87, 88, 89, 90, 91, 92, 93, 94, 95, 96, 97, 98, 99, 100, 101, 102, 103, 104, 105, 106, 107, 108, 109, 110, 111, 112, 113, 114, 115, 116, 117, 118, 119, 120, 121, 122, 123, 124, 125, 126, 127, 128, 129, 130, 131, 132, 133, 134, 135, 136, 137, 138, 139, 140, 141, 142, 143, 144, 145, 146, 147, 148, 149, 150, 151, 152, 153, 154, 155, 156, 157, 158, 159, 160, 161, 162, 163, 164, 165, 166, 167, 168, 169, 170, 171, 172, 173, 174, 175, 176, 177, 178, 179, 180, 181, 182, 183, 184, 185, 186, 187, 188, 189, 190, 191, 192, 193, 194, 195, 196, 197, 198, 199, 200, 201, 202, 203, 204, 205, 206, 207, 208, 209, 210, 211, 212, 213, 214, 215, 216, 217, 218, 219, 220, 221, 222, 223, 224, 225, 226, 227, 228, 229, 230, 231, 232],
      "LargestImagePixelValue": [3581, 3520, 3462, 3446, 3461, 3477, 3447, 3498, 3467, 3434, 3473, 3477, 3496, 3520, 3521, 3505, 3515, 3489, 3481, 3514, 3542, 3493, 3474, 3476, 3478, 3518, 3496, 3476, 3487, 3463, 3497, 3437, 3415, 3432, 3470, 3451, 3445, 3477, 3452, 3444, 3494, 3466, 3445, 3487, 3477, 3450, 3478, 3486, 3453, 3484, 3481, 3504, 3621, 3476, 3469, 3512, 3475, 3515, 3541, 3460, 3490, 3530, 3470, 3474, 3480, 3446, 3523, 3510, 3473, 3504, 3485, 3493, 3489, 3519, 3500, 3461, 3472, 3456, 3479, 3499, 3446, 3500, 3452, 3511, 3513, 3490, 3538, 3494, 3552, 3503, 3466, 3483, 3468, 3487, 3440, 3455, 3606, 3491, 3512, 3475, 3443, 3460, 3444, 3448, 3481, 3423, 3476, 3471, 3434, 3463, 3463, 3447, 3426, 3426, 3444, 3465, 3427, 3441, 3419, 3460, 3478, 3437, 3465, 3443, 3439, 3445, 3454, 3471, 3463, 3423, 3448, 3484, 3475, 3462, 3462, 3446, 3457, 3456, 3400, 3433, 3428, 3465, 3451, 3434, 3480, 3451, 3444, 3425, 3467, 3464, 3437, 3446, 3425, 3442, 3446, 3460, 3439, 3453, 3468, 3449, 3445, 3463, 3433, 3463, 3466, 3446, 3445, 3470, 3469, 3489, 3467, 3458, 3486, 3488, 3470, 3477, 3499, 3423, 3390, 3356, 3383, 3447, 3440, 3434, 3494, 3461, 3440, 3472, 3500, 3492, 3467, 3522, 3486, 3506, 3487, 3501, 3466, 3503, 3482, 3504, 3486, 3528, 3504, 3469, 3486, 3498, 3513, 3473, 3492, 3496, 3489, 3481, 3502, 3523, 3484, 3544, 3513, 3506, 3473, 3468, 3521, 3474, 3510, 3521, 3520, 3482, 3492, 3511, 3490, 3476, 3484, 3485],
      "WindowCenter": [782.0, 779.0, 778.0, 778.0, 777.0, 777.0, 777.0, 777.0, 777.0, 777.0, 778.0, 778.0, 778.0, 778.0, 778.0, 779.0, 779.0, 778.0, 779.0, 779.0, 779.0, 778.0, 778.0, 780.0, 780.0, 780.0, 781.0, 780.0, 779.0, 779.0, 779.0, 779.0, 779.0, 780.0, 781.0, 781.0, 778.0, 778.0, 777.0, 778.0, 780.0, 779.0, 780.0, 780.0, 780.0, 779.0, 779.0, 781.0, 781.0, 780.0, 779.0, 778.0, 779.0, 778.0, 778.0, 778.0, 778.0, 777.0, 778.0, 778.0, 778.0, 778.0, 779.0, 779.0, 779.0, 779.0, 779.0, 779.0, 779.0, 779.0, 778.0, 778.0, 778.0, 778.0, 778.0, 778.0, 778.0, 777.0, 778.0, 779.0, 778.0, 778.0, 779.0, 779.0, 779.0, 778.0, 780.0, 781.0, 780.0, 780.0, 779.0, 779.0, 778.0, 778.0, 778.0, 779.0, 779.0, 779.0, 780.0, 780.0, 780.0, 780.0, 781.0, 779.0, 780.0, 781.0, 780.0, 780.0, 779.0, 779.0, 779.0, 779.0, 779.0, 779.0, 781.0, 779.0, 778.0, 778.0, 778.0, 778.0, 777.0, 776.0, 777.0, 778.0, 778.0, 777.0, 776.0, 776.0, 777.0, 778.0, 778.0, 779.0, 779.0, 779.0, 779.0, 779.0, 778.0, 776.0, 778.0, 776.0, 775.0, 776.0, 777.0, 777.0, 779.0, 778.0, 779.0, 780.0, 780.0, 780.0, 780.0, 782.0, 782.0, 781.0, 779.0, 779.0, 780.0, 779.0, 779.0, 778.0, 779.0, 779.0, 779.0, 778.0, 778.0, 778.0, 778.0, 778.0, 779.0, 779.0, 779.0, 779.0, 779.0, 778.0, 777.0, 777.0, 777.0, 778.0, 775.0, 777.0, 776.0, 777.0, 779.0, 778.0, 779.0, 778.0, 778.0, 779.0, 779.0, 779.0, 780.0, 781.0, 780.0, 778.0, 777.0, 778.0, 777.0, 778.0, 777.0, 777.0, 779.0, 778.0, 777.0, 777.0, 778.0, 778.0, 777.0, 776.0, 778.0, 777.0, 777.0, 776.0, 776.0, 777.0, 778.0, 779.0, 778.0, 777.0, 778.0, 779.0, 779.0, 778.0, 778.0, 778.0, 779.0, 780.0, 779.0, 778.0, 777.0, 776.0, 777.0, 777.0],
      "WindowWidth": [1714.0, 1706.0, 1703.0, 1701.0, 1699.0, 1698.0, 1698.0, 1699.0, 1698.0, 1698.0, 1701.0, 1702.0, 1702.0, 1702.0, 1703.0, 1704.0, 1705.0, 1704.0, 1704.0, 1704.0, 1704.0, 1702.0, 1703.0, 1708.0, 1707.0, 1709.0, 1710.0, 1707.0, 1706.0, 1705.0, 1706.0, 1705.0, 1705.0, 1708.0, 1712.0, 1711.0, 1704.0, 1701.0, 1699.0, 1702.0, 1707.0, 1706.0, 1707.0, 1709.0, 1708.0, 1705.0, 1706.0, 1710.0, 1711.0, 1709.0, 1705.0, 1701.0, 1706.0, 1701.0, 1703.0, 1702.0, 1701.0, 1700.0, 1701.0, 1700.0, 1701.0, 1703.0, 1704.0, 1705.0, 1705.0, 1704.0, 1706.0, 1705.0, 1704.0, 1704.0, 1703.0, 1703.0, 1701.0, 1701.0, 1702.0, 1703.0, 1701.0, 1699.0, 1700.0, 1704.0, 1702.0, 1703.0, 1704.0, 1705.0, 1704.0, 1703.0, 1708.0, 1710.0, 1708.0, 1708.0, 1705.0, 1706.0, 1701.0, 1701.0, 1702.0, 1706.0, 1707.0, 1706.0, 1708.0, 1706.0, 1708.0, 1708.0, 1710.0, 1706.0, 1707.0, 1709.0, 1708.0, 1707.0, 1706.0, 1705.0, 1705.0, 1705.0, 1705.0, 1706.0, 1710.0, 1705.0, 1701.0, 1701.0, 1701.0, 1702.0, 1700.0, 1697.0, 1698.0, 1702.0, 1703.0, 1698.0, 1696.0, 1696.0, 1699.0, 1701.0, 1701.0, 1703.0, 1703.0, 1705.0, 1703.0, 1703.0, 1702.0, 1696.0, 1700.0, 1696.0, 1695.0, 1697.0, 1699.0, 1700.0, 1704.0, 1703.0, 1705.0, 1709.0, 1708.0, 1709.0, 1708.0, 1712.0, 1712.0, 1710.0, 1705.0, 1705.0, 1707.0, 1705.0, 1705.0, 1701.0, 1704.0, 1705.0, 1704.0, 1702.0, 1702.0, 1700.0, 1700.0, 1701.0, 1703.0, 1704.0, 1705.0, 1705.0, 1704.0, 1702.0, 1699.0, 1700.0, 1700.0, 1702.0, 1693.0, 1699.0, 1695.0, 1698.0, 1704.0, 1702.0, 1704.0, 1702.0, 1702.0, 1703.0, 1703.0, 1705.0, 1706.0, 1710.0, 1708.0, 1701.0, 1698.0, 1700.0, 1698.0, 1699.0, 1698.0, 1699.0, 1702.0, 1701.0, 1699.0, 1698.0, 1699.0, 1699.0, 1699.0, 1696.0, 1701.0, 1699.0, 1698.0, 1697.0, 1697.0, 1699.0, 1701.0, 1704.0, 1701.0, 1698.0, 1700.0, 1703.0, 1703.0, 1701.0, 1701.0, 1700.0, 1704.0, 1706.0, 1704.0, 1700.0, 1697.0, 1696.0, 1697.0, 1698.0]
    },
    "slices": {}
  }
}