{
  "AcquisitionMatrixPE": 100,
  "AcquisitionNumber": 1,
  "AcquisitionTime": "14:33:53.795000",
  "BandwidthPerPixelPhaseEncode": 18.519,
  "BaseResolution": 100,
  "BodyPartExamined": "BRAIN",
  "ConsistencyInfo": "N4_VE11C_LATEST_20160120",
  "ConversionSoftware": "dcm2niix",
  "ConversionSoftwareVersion": "v1.0.20180622 GCC4.9.2",
  "DerivedVendorReportedEchoSpacing": 0.000539986,
  "DeviceSerialNumber": "166078",
  "DwellTime": 2.1e-06,
  "EchoTime": 0.034,
  "EchoTrainLength": 100,
  "EffectiveEchoSpacing": 0.000539986,
  "FlipAngle": 90,
  "ImageOrientationPatientDICOM": [0.998233, -0.0182341, -0.0565522, 0.00522675, 0.975008, -0.22211],
  "ImageType": [
    "ORIGINAL",
    "PRIMARY",
    "M",
    "ND",
    "MOSAIC"
],
  "InPlanePhaseEncodingDirectionDICOM": "COL",
  "InstitutionAddress": "Street_StreetNo_Bei_Jing_District_CN_ZIP",
  "InstitutionName": "BeiJing_Normal_University",
  "InstitutionalDepartmentName": "Department",
  "MRAcquisitionType": "2D",
  "MagneticFieldStrength": 3,
  "Manufacturer": "Siemens",
  "ManufacturersModelName": "Prisma",
  "Modality": "MR",
  "MultibandAccelerationFactor": 3,
  "PartialFourier": 1,
  "PatientPosition": "HFS",
  "PercentPhaseFOV": 100,
  "PhaseEncodingDirection": "j-",
  "PhaseEncodingSteps": 100,
  "PhaseResolution": 1,
  "PixelBandwidth": 2380,
  "ProcedureStepDescription": "BNU_P2018_64CH_Liu.Jia",
  "ProtocolName": "bold_100x100_s3_2x2x2_232",
  "PulseSequenceDetails": "%SiemensSeq%_ep2d_bold",
  "ReceiveCoilActiveElements": "HC1-7;NC1",
  "ReceiveCoilName": "HeadNeck_64",
  "ReconMatrixPE": 100,
  "RepetitionTime": 2,
  "SAR": 0.0681417,
  "ScanOptions": "FS",
  "ScanningSequence": "EP",
  "SequenceName": "_epfid2d1_100",
  "SequenceVariant": "SK",
  "SeriesDescription": "bold_100x100_s3_2x2x2_232",
  "SeriesNumber": 8,
  "ShimSetting": [-5479, -11477, -1295, 352, -19, -261, -203, 64],
  "SliceThickness": 2,
  "SliceTiming": [1.485, 0, 0.99, 0.0825, 1.0725, 0.165, 1.155, 0.2475, 1.2375, 0.33, 1.32, 0.4125, 1.4025, 0.5775, 1.5675, 0.66, 1.65, 0.7425, 1.7325, 0.825, 1.815, 0.9075, 1.8975, 0.495, 1.485, 0, 0.99, 0.0825, 1.0725, 0.165, 1.155, 0.2475, 1.2375, 0.33, 1.32, 0.4125, 1.4025, 0.5775, 1.5675, 0.66, 1.65, 0.7425, 1.7325, 0.825, 1.815, 0.9075, 1.8975, 0.495, 1.485, 0, 0.99, 0.0825, 1.0725, 0.165, 1.155, 0.2475, 1.2375, 0.33, 1.32, 0.4125, 1.4025, 0.5775, 1.5675, 0.66, 1.65, 0.7425, 1.7325, 0.825, 1.815, 0.9075, 1.8975, 0.495],
  "SoftwareVersions": "syngo_MR_E11",
  "SpacingBetweenSlices": 2,
  "StationName": "AWP166078",
  "TaskName": "motor",
  "TotalReadoutTime": 0.0534586,
  "TxRefAmp": 218.487,
  "dcmmeta_affine": [
    [-1.9964662790298462, 0.010453490540385246, -0.11837758868932724, 103.63636779785156],
    [0.03646811097860336, 1.9500150680541992, -0.4428447186946869, -79.05583190917969],
    [-0.11310440301895142, 0.44422078132629395, 1.9467601776123047, -93.23342895507812],
    [0.0, 0.0, 0.0, 1.0]
],
  "dcmmeta_reorient_transform": [
    [0.0, -1.0, 0.0, 99.0],
    [1.0, 0.0, 0.0, 0.0],
    [0.0, 0.0, 1.0, 0.0],
    [0.0, 0.0, 0.0, 1.0]
],
  "dcmmeta_shape": [100, 100, 72, 232],
  "dcmmeta_slice_dim": 2,
  "dcmmeta_version": 0.6,
  "global": {
    "const": {
      "AcquisitionMatrix": [100, 0, 0, 100],
      "AngioFlag": "N",
      "BitsAllocated": 16,
      "BitsStored": 12,
      "BodyPartExamined": "BRAIN",
      "Columns": 900,
      "EchoNumbers": 1,
      "EchoTime": 34.0,
      "EchoTrainLength": 100,
      "FlipAngle": 90.0,
      "HighBit": 11,
      "ImageOrientationPatient": [0.99823312284671, -0.0182340560803, -0.0565522028799, 0.00522674521977, 0.97500751695702, -0.2221103847453],
      "ImagePositionPatient": [-907.43915668098, -879.41442838769, 173.67449506139],
      "ImageType": [
        "ORIGINAL",
        "PRIMARY",
        "M",
        "ND",
        "MOSAIC"
],
      "ImagedNucleus": "1H",
      "ImagingFrequency": 123.257859,
      "InPlanePhaseEncodingDirection": "COL",
      "MRAcquisitionType": "2D",
      "MagneticFieldStrength": 3.0,
      "Manufacturer": "SIEMENS",
      "ManufacturerModelName": "Prisma",
      "Modality": "MR",
      "NumberOfAverages": 1.0,
      "NumberOfPhaseEncodingSteps": 100,
      "PercentPhaseFieldOfView": 100.0,
      "PercentSampling": 100.0,
      "PerformedProcedureStepStartTime": "140130.696000",
      "PhotometricInterpretation": "MONOCHROME2",
      "PixelBandwidth": 2380.0,
      "PixelRepresentation": 0,
      "PixelSpacing": [2.0, 2.0],
      "ProtocolName": "bold_100x100_s3_2x2x2_232",
      "RepetitionTime": 2000.0,
      "Rows": 900,
      "SAR": 0.06814165789722,
      "SamplesPerPixel": 1,
      "ScanOptions": "FS",
      "ScanningSequence": "EP",
      "SequenceName": "*epfid2d1_100",
      "SequenceVariant": "SK",
      "SeriesDescription": "bold_100x100_s3_2x2x2_232",
      "SeriesNumber": 8,
      "SeriesTime": "143356.057000",
      "SliceLocation": -79.380950601156,
      "SliceThickness": 2.0,
      "SmallestImagePixelValue": 0,
      "SoftwareVersions": "syngo MR E11",
      "SpacingBetweenSlices": 1.9999999973851,
      "SpecificCharacterSet": "ISO_IR 100",
      "StudyID": "1",
      "StudyTime": "140130.596000",
      "TransmitCoilName": "Body",
      "VariableFlipAngleFlag": "N",
      "WindowCenterWidthExplanation": "Algo1",
      "dBdt": 0.0},
    "slices": {}
  },
  "time": {
    "samples": {
      "AcquisitionNumber": [1, 2, 3, 4, 5, 6, 7, 8, 9, 10, 11, 12, 13, 14, 15, 16, 17, 18, 19, 20, 21, 22, 23, 24, 25, 26, 27, 28, 29, 30, 31, 32, 33, 34, 35, 36, 37, 38, 39, 40, 41, 42, 43, 44, 45, 46, 47, 48, 49, 50, 51, 52, 53, 54, 55, 56, 57, 58, 59, 60, 61, 62, 63, 64, 65, 66, 67, 68, 69, 70, 71, 72, 73, 74, 75, 76, 77, 78, 79, 80, 81, 82, 83, 84, 85, 86, 87, 88, 89, 90, 91, 92, 93, 94, 95, 96, 97, 98, 99, 100, 101, 102, 103, 104, 105, 106, 107, 108, 109, 110, 111, 112, 113, 114, 115, 116, 117, 118, 119, 120, 121, 122, 123, 124, 125, 126, 127, 128, 129, 130, 131, 132, 133, 134, 135, 136, 137, 138, 139, 140, 141, 142, 143, 144, 145, 146, 147, 148, 149, 150, 151, 152, 153, 154, 155, 156, 157, 158, 159, 160, 161, 162, 163, 164, 165, 166, 167, 168, 169, 170, 171, 172, 173, 174, 175, 176, 177, 178, 179, 180, 181, 182, 183, 184, 185, 186, 187, 188, 189, 190, 191, 192, 193, 194, 195, 196, 197, 198, 199, 200, 201, 202, 203, 204, 205, 206, 207, 208, 209, 210, 211, 212, 213, 214, 215, 216, 217, 218, 219, 220, 221, 222, 223, 224, 225, 226, 227, 228, 229, 230, 231, 232],
      "AcquisitionTime": ["143353.795000", "143355.795000", "143357.795000", "143359.795000", "143401.795000", "143403.795000", "143405.795000", "143407.795000", "143409.795000", "143411.795000", "143413.795000", "143415.795000", "143417.795000", "143419.795000", "143421.795000", "143423.795000", "143425.795000", "143427.795000", "143429.795000", "143431.795000", "143433.795000", "143435.795000", "143437.795000", "143439.795000", "143441.795000", "143443.795000", "143445.795000", "143447.795000", "143449.795000", "143451.795000", "143453.795000", "143455.795000", "143457.795000", "143459.795000", "143501.795000", "143503.795000", "143505.795000", "143507.795000", "143509.795000", "143511.795000", "143513.795000", "143515.795000", "143517.795000", "143519.795000", "143521.795000", "143523.795000", "143525.795000", "143527.795000", "143529.795000", "143531.795000", "143533.795000", "143535.795000", "143537.795000", "143539.795000", "143541.795000", "143543.795000", "143545.795000", "143547.795000", "143549.795000", "143551.795000", "143553.795000", "143555.795000", "143557.795000", "143559.795000", "143601.795000", "143603.795000", "143605.795000", "143607.795000", "143609.795000", "143611.795000", "143613.795000", "143615.795000", "143617.795000", "143619.795000", "143621.795000", "143623.795000", "143625.795000", "143627.795000", "143629.795000", "143631.795000", "143633.795000", "143635.795000", "143637.795000", "143639.795000", "143641.795000", "143643.795000", "143645.795000", "143647.795000", "143649.795000", "143651.795000", "143653.795000", "143655.795000", "143657.795000", "143659.795000", "143701.795000", "143703.795000", "143705.795000", "143707.795000", "143709.795000", "143711.795000", "143713.795000", "143715.795000", "143717.795000", "143719.795000", "143721.795000", "143723.795000", "143725.795000", "143727.795000", "143729.795000", "143731.795000", "143733.795000", "143735.795000", "143737.795000", "143739.795000", "143741.795000", "143743.795000", "143745.795000", "143747.795000", "143749.795000", "143751.795000", "143753.795000", "143755.795000", "143757.795000", "143759.795000", "143801.795000", "143803.795000", "143805.795000", "143807.795000", "143809.795000", "143811.795000", "143813.795000", "143815.795000", "143817.795000", "143819.795000", "143821.795000", "143823.795000", "143825.795000", "143827.795000", "143829.795000", "143831.795000", "143833.795000", "143835.795000", "143837.795000", "143839.795000", "143841.795000", "143843.795000", "143845.795000", "143847.795000", "143849.795000", "143851.795000", "143853.795000", "143855.795000", "143857.795000", "143859.795000", "143901.795000", "143903.795000", "143905.795000", "143907.795000", "143909.795000", "143911.795000", "143913.795000", "143915.795000", "143917.795000", "143919.795000", "143921.795000", "143923.795000", "143925.795000", "143927.795000", "143929.795000", "143931.795000", "143933.795000", "143935.795000", "143937.795000", "143939.795000", "143941.795000", "143943.795000", "143945.795000", "143947.795000", "143949.795000", "143951.795000", "143953.795000", "143955.795000", "143957.795000", "143959.795000", "144001.795000", "144003.795000", "144005.795000", "144007.795000", "144009.795000", "144011.795000", "144013.795000", "144015.795000", "144017.795000", "144019.795000", "144021.795000", "144023.795000", "144025.795000", "144027.795000", "144029.795000", "144031.795000", "144033.795000", "144035.795000", "144037.795000", "144039.795000", "144041.795000", "144043.795000", "144045.795000", "144047.795000", "144049.795000", "144051.795000", "144053.795000", "144055.795000", "144057.795000", "144059.795000", "144101.795000", "144103.795000", "144105.795000", "144107.795000", "144109.795000", "144111.795000", "144113.795000", "144115.795000", "144117.795000", "144119.795000", "144121.795000", "144123.795000", "144125.795000", "144127.795000", "144129.795000", "144131.795000", "144133.795000", "144135.795000"],
      "ContentTime": ["143356.060000", "143357.556000", "143359.557000", "143401.557000", "143403.557000", "143405.556000", "143407.556000", "143409.556000", "143411.556000", "143413.556000", "143415.557000", "143417.557000", "143419.557000", "143421.556000", "143423.556000", "143425.556000", "143427.556000", "143429.556000", "143431.556000", "143433.557000", "143435.557000", "143437.557000", "143439.557000", "143441.556000", "143443.557000", "143445.556000", "143447.556000", "143449.557000", "143451.557000", "143453.557000", "143455.557000", "143457.556000", "143459.556000", "143501.556000", "143503.556000", "143505.556000", "143507.556000", "143509.558000", "143511.557000", "143513.557000", "143515.556000", "143517.556000", "143519.556000", "143521.556000", "143523.557000", "143525.557000", "143527.557000", "143529.557000", "143531.556000", "143533.556000", "143535.556000", "143537.556000", "143539.556000", "143541.556000", "143543.557000", "143545.557000", "143547.558000", "143549.556000", "143551.556000", "143553.556000", "143555.556000", "143557.557000", "143559.556000", "143601.557000", "143603.557000", "143605.557000", "143607.556000", "143609.556000", "143611.556000", "143613.556000", "143615.556000", "143617.557000", "143619.557000", "143621.558000", "143623.557000", "143625.556000", "143627.556000", "143629.556000", "143631.556000", "143633.557000", "143635.558000", "143637.557000", "143639.558000", "143641.557000", "143643.556000", "143645.557000", "143647.556000", "143649.557000", "143651.556000", "143653.557000", "143655.557000", "143657.557000", "143659.556000", "143701.556000", "143703.556000", "143705.556000", "143707.556000", "143709.556000", "143711.557000", "143713.557000", "143715.557000", "143717.556000", "143719.556000", "143721.556000", "143723.556000", "143725.556000", "143727.557000", "143729.558000", "143731.557000", "143733.557000", "143735.556000", "143737.556000", "143739.557000", "143741.556000", "143743.556000", "143745.557000", "143747.557000", "143749.557000", "143751.557000", "143753.557000", "143755.556000", "143757.556000", "143759.556000", "143801.556000", "143803.557000", "143805.557000", "143807.557000", "143809.556000", "143811.557000", "143813.556000", "143815.556000", "143817.556000", "143819.556000", "143821.557000", "143823.557000", "143825.557000", "143827.556000", "143829.556000", "143831.556000", "143833.557000", "143835.556000", "143837.556000", "143839.557000", "143841.557000", "143843.557000", "143845.556000", "143847.556000", "143849.556000", "143851.556000", "143853.557000", "143855.557000", "143857.558000", "143859.558000", "143901.556000", "143903.556000", "143905.556000", "143907.556000", "143909.556000", "143911.556000", "143913.557000", "143915.557000", "143917.558000", "143919.557000", "143921.556000", "143923.556000", "143925.556000", "143927.556000", "143929.556000", "143931.557000", "143933.557000", "143935.557000", "143937.556000", "143939.556000", "143941.556000", "143943.556000", "143945.557000", "143947.556000", "143949.557000", "143951.557000", "143953.558000", "143955.556000", "143957.556000", "143959.556000", "144001.556000", "144003.557000", "144005.558000", "144007.557000", "144009.558000", "144011.556000", "144013.556000", "144015.557000", "144017.556000", "144019.556000", "144021.556000", "144023.557000", "144025.557000", "144027.557000", "144029.556000", "144031.557000", "144033.556000", "144035.556000", "144037.557000", "144039.557000", "144041.558000", "144043.557000", "144045.557000", "144047.556000", "144049.556000", "144051.557000", "144053.556000", "144055.556000", "144057.557000", "144059.557000", "144101.557000", "144103.557000", "144105.556000", "144107.556000", "144109.556000", "144111.557000", "144113.556000", "144115.558000", "144117.557000", "144119.557000", "144121.557000", "144123.556000", "144125.556000", "144127.556000", "144129.557000", "144131.556000", "144133.557000", "144135.557000", "144137.289000"],
      "InstanceCreationTime": ["143356.060000", "143357.556000", "143359.557000", "143401.557000", "143403.557000", "143405.556000", "143407.556000", "143409.556000", "143411.556000", "143413.556000", "143415.557000", "143417.557000", "143419.557000", "143421.556000", "143423.556000", "143425.556000", "143427.556000", "143429.556000", "143431.556000", "143433.557000", "143435.557000", "143437.557000", "143439.557000", "143441.556000", "143443.557000", "143445.556000", "143447.556000", "143449.557000", "143451.557000", "143453.557000", "143455.557000", "143457.556000", "143459.556000", "143501.556000", "143503.556000", "143505.556000", "143507.556000", "143509.558000", "143511.557000", "143513.557000", "143515.556000", "143517.556000", "143519.556000", "143521.556000", "143523.557000", "143525.557000", "143527.557000", "143529.557000", "143531.556000", "143533.556000", "143535.556000", "143537.556000", "143539.556000", "143541.556000", "143543.557000", "143545.557000", "143547.558000", "143549.556000", "143551.556000", "143553.556000", "143555.556000", "143557.557000", "143559.556000", "143601.557000", "143603.557000", "143605.557000", "143607.556000", "143609.556000", "143611.556000", "143613.556000", "143615.556000", "143617.557000", "143619.557000", "143621.558000", "143623.557000", "143625.556000", "143627.556000", "143629.556000", "143631.556000", "143633.557000", "143635.558000", "143637.557000", "143639.558000", "143641.557000", "143643.556000", "143645.557000", "143647.556000", "143649.557000", "143651.556000", "143653.557000", "143655.557000", "143657.557000", "143659.556000", "143701.556000", "143703.556000", "143705.556000", "143707.556000", "143709.556000", "143711.557000", "143713.557000", "143715.557000", "143717.556000", "143719.556000", "143721.556000", "143723.556000", "143725.556000", "143727.557000", "143729.558000", "143731.557000", "143733.557000", "143735.556000", "143737.556000", "143739.557000", "143741.556000", "143743.556000", "143745.557000", "143747.557000", "143749.557000", "143751.557000", "143753.557000", "143755.556000", "143757.556000", "143759.556000", "143801.556000", "143803.557000", "143805.557000", "143807.557000", "143809.556000", "143811.557000", "143813.556000", "143815.556000", "143817.556000", "143819.556000", "143821.557000", "143823.557000", "143825.557000", "143827.556000", "143829.556000", "143831.556000", "143833.557000", "143835.556000", "143837.556000", "143839.557000", "143841.557000", "143843.557000", "143845.556000", "143847.556000", "143849.556000", "143851.556000", "143853.557000", "143855.557000", "143857.558000", "143859.558000", "143901.556000", "143903.556000", "143905.556000", "143907.556000", "143909.556000", "143911.556000", "143913.557000", "143915.557000", "143917.558000", "143919.557000", "143921.556000", "143923.556000", "143925.556000", "143927.556000", "143929.556000", "143931.557000", "143933.557000", "143935.557000", "143937.556000", "143939.556000", "143941.556000", "143943.556000", "143945.557000", "143947.556000", "143949.557000", "143951.557000", "143953.558000", "143955.556000", "143957.556000", "143959.556000", "144001.556000", "144003.557000", "144005.558000", "144007.557000", "144009.558000", "144011.556000", "144013.556000", "144015.557000", "144017.556000", "144019.556000", "144021.556000", "144023.557000", "144025.557000", "144027.557000", "144029.556000", "144031.557000", "144033.556000", "144035.556000", "144037.557000", "144039.557000", "144041.558000", "144043.557000", "144045.557000", "144047.556000", "144049.556000", "144051.557000", "144053.556000", "144055.556000", "144057.557000", "144059.557000", "144101.557000", "144103.557000", "144105.556000", "144107.556000", "144109.556000", "144111.557000", "144113.556000", "144115.558000", "144117.557000", "144119.557000", "144121.557000", "144123.556000", "144125.556000", "144127.556000", "144129.557000", "144131.556000", "144133.557000", "144135.557000", "144137.289000"],
      "InstanceNumber": [1, 2, 3, 4, 5, 6, 7, 8, 9, 10, 11, 12, 13, 14, 15, 16, 17, 18, 19, 20, 21, 22, 23, 24, 25, 26, 27, 28, 29, 30, 31, 32, 33, 34, 35, 36, 37, 38, 39, 40, 41, 42, 43, 44, 45, 46, 47, 48, 49, 50, 51, 52, 53, 54, 55, 56, 57, 58, 59, 60, 61, 62, 63, 64, 65, 66, 67, 68, 69, 70, 71, 72, 73, 74, 75, 76, 77, 78, 79, 80, 81, 82, 83, 84, 85, 86, 87, 88, 89, 90, 91, 92, 93, 94, 95, 96, 97, 98, 99, 100, 101, 102, 103, 104, 105, 106, 107, 108, 109, 110, 111, 112, 113, 114, 115, 116, 117, 118, 119, 120, 121, 122, 123, 124, 125, 126, 127, 128, 129, 130, 131, 132, 133, 134, 135, 136, 137, 138, 139, 140, 141, 142, 143, 144, 145, 146, 147, 148, 149, 150, 151, 152, 153, 154, 155, 156, 157, 158, 159, 160, 161, 162, 163, 164, 165, 166, 167, 168, 169, 170, 171, 172, 173, 174, 175, 176, 177, 178, 179, 180, 181, 182, 183, 184, 185, 186, 187, 188, 189, 190, 191, 192, 193, 194, 195, 196, 197, 198, 199, 200, 201, 202, 203, 204, 205, 206, 207, 208, 209, 210, 211, 212, 213, 214, 215, 216, 217, 218, 219, 220, 221, 222, 223, 224, 225, 226, 227, 228, 229, 230, 231, 232],
      "LargestImagePixelValue": [3553, 3542, 3471, 3472, 3529, 3503, 3504, 3477, 3498, 3527, 3448, 3402, 3411, 3478, 3426, 3474, 3402, 3403, 3441, 3454, 3442, 3434, 3449, 3442, 3451, 3451, 3481, 3427, 3445, 3457, 3444, 3440, 3435, 3452, 3478, 3450, 3431, 3435, 3429, 3459, 3420, 3453, 3436, 3414, 3423, 3438, 3455, 3473, 3466, 3470, 3428, 3445, 3450, 3457, 3445, 3476, 3468, 3460, 3460, 3477, 3449, 3481, 3475, 3468, 3469, 3482, 3417, 3440, 3425, 3381, 3510, 3459, 3420, 3453, 3440, 3476, 3477, 3493, 3442, 3466, 3460, 3481, 3461, 3484, 3468, 3466, 3456, 3471, 3503, 3501, 3460, 3485, 3472, 3454, 3464, 3471, 3483, 3464, 3463, 3485, 3471, 3466, 3469, 3450, 3479, 3463, 3479, 3487, 3487, 3462, 3454, 3466, 3464, 3448, 3450, 3486, 3484, 3492, 3466, 3476, 3436, 3476, 3493, 3466, 3490, 3465, 3459, 3446, 3465, 3467, 3470, 3485, 3472, 3509, 3497, 3494, 3500, 3469, 3483, 3463, 3458, 3469, 3473, 3450, 3474, 3459, 3486, 3468, 3462, 3472, 3478, 3479, 3493, 3509, 3491, 3457, 3478, 3474, 3474, 3498, 3481, 3504, 3470, 3479, 3466, 3474, 3505, 3442, 3465, 3463, 3475, 3479, 3485, 3471, 3473, 3477, 3484, 3501, 3470, 3483, 3482, 3485, 3485, 3455, 3499, 3477, 3472, 3468, 3483, 3428, 3448, 3457, 3472, 3513, 3448, 3468, 3484, 3469, 3456, 3472, 3481, 3492, 3523, 3489, 3525, 3501, 3492, 3476, 3462, 3494, 3528, 3510, 3488, 3493, 3497, 3499, 3515, 3499, 3552, 3456, 3455, 3477, 3480, 3461, 3501, 3490, 3485, 3499, 3457, 3505, 3487, 3494],
      "WindowCenter": [782.0, 780.0, 780.0, 779.0, 778.0, 777.0, 777.0, 777.0, 777.0, 776.0, 777.0, 776.0, 776.0, 778.0, 777.0, 778.0, 778.0, 778.0, 778.0, 778.0, 778.0, 778.0, 779.0, 779.0, 779.0, 779.0, 779.0, 779.0, 777.0, 777.0, 778.0, 779.0, 779.0, 779.0, 778.0, 778.0, 778.0, 778.0, 778.0, 777.0, 777.0, 778.0, 778.0, 778.0, 778.0, 778.0, 779.0, 778.0, 776.0, 774.0, 774.0, 775.0, 776.0, 776.0, 777.0, 778.0, 778.0, 777.0, 777.0, 777.0, 778.0, 778.0, 777.0, 777.0, 778.0, 779.0, 776.0, 773.0, 773.0, 771.0, 775.0, 773.0, 775.0, 775.0, 776.0, 777.0, 778.0, 778.0, 778.0, 778.0, 778.0, 778.0, 777.0, 778.0, 779.0, 778.0, 778.0, 778.0, 777.0, 776.0, 776.0, 776.0, 777.0, 777.0, 777.0, 776.0, 777.0, 777.0, 776.0, 777.0, 776.0, 776.0, 776.0, 776.0, 777.0, 779.0, 780.0, 779.0, 777.0, 777.0, 777.0, 778.0, 779.0, 778.0, 780.0, 779.0, 778.0, 777.0, 776.0, 777.0, 776.0, 776.0, 777.0, 777.0, 777.0, 776.0, 776.0, 777.0, 777.0, 776.0, 777.0, 778.0, 777.0, 776.0, 775.0, 776.0, 776.0, 776.0, 777.0, 777.0, 777.0, 777.0, 777.0, 776.0, 776.0, 776.0, 776.0, 777.0, 777.0, 776.0, 776.0, 777.0, 777.0, 776.0, 777.0, 777.0, 777.0, 775.0, 775.0, 776.0, 777.0, 777.0, 777.0, 775.0, 774.0, 775.0, 776.0, 775.0, 774.0, 775.0, 777.0, 778.0, 779.0, 778.0, 777.0, 777.0, 778.0, 778.0, 777.0, 777.0, 777.0, 776.0, 775.0, 776.0, 777.0, 777.0, 776.0, 775.0, 776.0, 776.0, 776.0, 776.0, 776.0, 775.0, 774.0, 775.0, 778.0, 778.0, 777.0, 775.0, 775.0, 776.0, 778.0, 778.0, 779.0, 778.0, 778.0, 778.0, 778.0, 779.0, 778.0, 777.0, 776.0, 778.0, 779.0, 777.0, 776.0, 775.0, 777.0, 776.0, 775.0, 775.0, 774.0, 773.0, 775.0, 775.0, 776.0, 776.0, 776.0, 776.0, 777.0, 777.0],
      "WindowWidth": [1712.0, 1707.0, 1705.0, 1702.0, 1699.0, 1698.0, 1698.0, 1698.0, 1697.0, 1693.0, 1696.0, 1696.0, 1696.0, 1699.0, 1697.0, 1701.0, 1699.0, 1699.0, 1700.0, 1700.0, 1700.0, 1701.0, 1703.0, 1704.0, 1703.0, 1703.0, 1704.0, 1701.0, 1696.0, 1697.0, 1699.0, 1702.0, 1703.0, 1702.0, 1701.0, 1701.0, 1700.0, 1701.0, 1699.0, 1699.0, 1698.0, 1700.0, 1700.0, 1699.0, 1699.0, 1699.0, 1702.0, 1700.0, 1695.0, 1689.0, 1688.0, 1690.0, 1693.0, 1694.0, 1698.0, 1699.0, 1699.0, 1697.0, 1697.0, 1698.0, 1700.0, 1700.0, 1697.0, 1697.0, 1701.0, 1702.0, 1694.0, 1686.0, 1687.0, 1681.0, 1691.0, 1686.0, 1692.0, 1692.0, 1694.0, 1698.0, 1701.0, 1701.0, 1699.0, 1700.0, 1701.0, 1701.0, 1698.0, 1701.0, 1703.0, 1700.0, 1700.0, 1699.0, 1697.0, 1694.0, 1693.0, 1694.0, 1697.0, 1698.0, 1696.0, 1693.0, 1696.0, 1697.0, 1694.0, 1696.0, 1695.0, 1695.0, 1694.0, 1693.0, 1697.0, 1701.0, 1705.0, 1703.0, 1697.0, 1697.0, 1698.0, 1699.0, 1702.0, 1700.0, 1705.0, 1702.0, 1699.0, 1696.0, 1694.0, 1696.0, 1695.0, 1694.0, 1695.0, 1697.0, 1697.0, 1695.0, 1695.0, 1696.0, 1697.0, 1694.0, 1696.0, 1699.0, 1697.0, 1693.0, 1691.0, 1693.0, 1695.0, 1694.0, 1696.0, 1696.0, 1696.0, 1697.0, 1696.0, 1694.0, 1694.0, 1694.0, 1694.0, 1697.0, 1697.0, 1694.0, 1694.0, 1696.0, 1696.0, 1695.0, 1696.0, 1697.0, 1697.0, 1692.0, 1690.0, 1693.0, 1697.0, 1696.0, 1697.0, 1692.0, 1689.0, 1691.0, 1693.0, 1690.0, 1689.0, 1692.0, 1695.0, 1699.0, 1702.0, 1698.0, 1698.0, 1698.0, 1698.0, 1698.0, 1696.0, 1696.0, 1695.0, 1694.0, 1691.0, 1693.0, 1696.0, 1698.0, 1694.0, 1692.0, 1695.0, 1693.0, 1694.0, 1695.0, 1695.0, 1692.0, 1687.0, 1690.0, 1699.0, 1700.0, 1695.0, 1691.0, 1689.0, 1692.0, 1699.0, 1700.0, 1702.0, 1700.0, 1699.0, 1698.0, 1700.0, 1701.0, 1700.0, 1695.0, 1694.0, 1700.0, 1701.0, 1696.0, 1694.0, 1691.0, 1697.0, 1693.0, 1690.0, 1691.0, 1689.0, 1686.0, 1690.0, 1690.0, 1694.0, 1694.0, 1692.0, 1694.0, 1696.0, 1697.0]
    },
    "slices": {}
  }
}