{
  "AcquisitionMatrixPE": 100,
  "AcquisitionNumber": 1,
  "AcquisitionTime": "14:42:31.447500",
  "BandwidthPerPixelPhaseEncode": 18.519,
  "BaseResolution": 100,
  "BodyPartExamined": "BRAIN",
  "ConsistencyInfo": "N4_VE11C_LATEST_20160120",
  "ConversionSoftware": "dcm2niix",
  "ConversionSoftwareVersion": "v1.0.20180622 GCC4.9.2",
  "DerivedVendorReportedEchoSpacing": 0.000539986,
  "DeviceSerialNumber": "166078",
  "DwellTime": 2.1e-06,
  "EchoTime": 0.034,
  "EchoTrainLength": 100,
  "EffectiveEchoSpacing": 0.000539986,
  "FlipAngle": 90,
  "ImageOrientationPatientDICOM": [0.998233, -0.0182341, -0.0565522, 0.00522675, 0.975008, -0.22211],
  "ImageType": [
    "ORIGINAL",
    "PRIMARY",
    "M",
    "ND",
    "MOSAIC"
],
  "InPlanePhaseEncodingDirectionDICOM": "COL",
  "InstitutionAddress": "Street_StreetNo_Bei_Jing_District_CN_ZIP",
  "InstitutionName": "BeiJing_Normal_University",
  "InstitutionalDepartmentName": "Department",
  "MRAcquisitionType": "2D",
  "MagneticFieldStrength": 3,
  "Manufacturer": "Siemens",
  "ManufacturersModelName": "Prisma",
  "Modality": "MR",
  "MultibandAccelerationFactor": 3,
  "PartialFourier": 1,
  "PatientPosition": "HFS",
  "PercentPhaseFOV": 100,
  "PhaseEncodingDirection": "j-",
  "PhaseEncodingSteps": 100,
  "PhaseResolution": 1,
  "PixelBandwidth": 2380,
  "ProcedureStepDescription": "BNU_P2018_64CH_Liu.Jia",
  "ProtocolName": "bold_100x100_s3_2x2x2_232",
  "PulseSequenceDetails": "%SiemensSeq%_ep2d_bold",
  "ReceiveCoilActiveElements": "HC1-7;NC1",
  "ReceiveCoilName": "HeadNeck_64",
  "ReconMatrixPE": 100,
  "RepetitionTime": 2,
  "SAR": 0.0681417,
  "ScanOptions": "FS",
  "ScanningSequence": "EP",
  "SequenceName": "_epfid2d1_100",
  "SequenceVariant": "SK",
  "SeriesDescription": "bold_100x100_s3_2x2x2_232",
  "SeriesNumber": 9,
  "ShimSetting": [-5479, -11477, -1295, 352, -19, -261, -203, 64],
  "SliceThickness": 2,
  "SliceTiming": [1.4825, 0, 0.9875, 0.0825, 1.07, 0.165, 1.1525, 0.2475, 1.235, 0.33, 1.3175, 0.4125, 1.4, 0.5775, 1.565, 0.66, 1.6475, 0.7425, 1.73, 0.8225, 1.8125, 0.905, 1.895, 0.495, 1.4825, 0, 0.9875, 0.0825, 1.07, 0.165, 1.1525, 0.2475, 1.235, 0.33, 1.3175, 0.4125, 1.4, 0.5775, 1.565, 0.66, 1.6475, 0.7425, 1.73, 0.8225, 1.8125, 0.905, 1.895, 0.495, 1.4825, 0, 0.9875, 0.0825, 1.07, 0.165, 1.1525, 0.2475, 1.235, 0.33, 1.3175, 0.4125, 1.4, 0.5775, 1.565, 0.66, 1.6475, 0.7425, 1.73, 0.8225, 1.8125, 0.905, 1.895, 0.495],
  "SoftwareVersions": "syngo_MR_E11",
  "SpacingBetweenSlices": 2,
  "StationName": "AWP166078",
  "TaskName": "motor",
  "TotalReadoutTime": 0.0534586,
  "TxRefAmp": 218.487,
  "dcmmeta_affine": [
    [-1.9964662790298462, 0.010453490540385246, -0.11837758868932724, 103.63636779785156],
    [0.03646811097860336, 1.9500150680541992, -0.4428447186946869, -79.05583190917969],
    [-0.11310440301895142, 0.44422078132629395, 1.9467601776123047, -93.23342895507812],
    [0.0, 0.0, 0.0, 1.0]
],
  "dcmmeta_reorient_transform": [
    [0.0, -1.0, 0.0, 99.0],
    [1.0, 0.0, 0.0, 0.0],
    [0.0, 0.0, 1.0, 0.0],
    [0.0, 0.0, 0.0, 1.0]
],
  "dcmmeta_shape": [100, 100, 72, 232],
  "dcmmeta_slice_dim": 2,
  "dcmmeta_version": 0.6,
  "global": {
    "const": {
      "AcquisitionMatrix": [100, 0, 0, 100],
      "AngioFlag": "N",
      "BitsAllocated": 16,
      "BitsStored": 12,
      "BodyPartExamined": "BRAIN",
      "Columns": 900,
      "EchoNumbers": 1,
      "EchoTime": 34.0,
      "EchoTrainLength": 100,
      "FlipAngle": 90.0,
      "HighBit": 11,
      "ImageOrientationPatient": [0.99823312284671, -0.0182340560803, -0.0565522028799, 0.00522674521977, 0.97500751695702, -0.2221103847453],
      "ImagePositionPatient": [-907.43915668098, -879.41442838769, 173.67449506139],
      "ImageType": [
        "ORIGINAL",
        "PRIMARY",
        "M",
        "ND",
        "MOSAIC"
],
      "ImagedNucleus": "1H",
      "ImagingFrequency": 123.257864,
      "InPlanePhaseEncodingDirection": "COL",
      "MRAcquisitionType": "2D",
      "MagneticFieldStrength": 3.0,
      "Manufacturer": "SIEMENS",
      "ManufacturerModelName": "Prisma",
      "Modality": "MR",
      "NumberOfAverages": 1.0,
      "NumberOfPhaseEncodingSteps": 100,
      "PercentPhaseFieldOfView": 100.0,
      "PercentSampling": 100.0,
      "PerformedProcedureStepStartTime": "140130.696000",
      "PhotometricInterpretation": "MONOCHROME2",
      "PixelBandwidth": 2380.0,
      "PixelRepresentation": 0,
      "PixelSpacing": [2.0, 2.0],
      "ProtocolName": "bold_100x100_s3_2x2x2_232",
      "RepetitionTime": 2000.0,
      "Rows": 900,
      "SAR": 0.06814165789722,
      "SamplesPerPixel": 1,
      "ScanOptions": "FS",
      "ScanningSequence": "EP",
      "SequenceName": "*epfid2d1_100",
      "SequenceVariant": "SK",
      "SeriesDescription": "bold_100x100_s3_2x2x2_232",
      "SeriesNumber": 9,
      "SeriesTime": "144233.502000",
      "SliceLocation": -79.380950601156,
      "SliceThickness": 2.0,
      "SmallestImagePixelValue": 0,
      "SoftwareVersions": "syngo MR E11",
      "SpacingBetweenSlices": 1.9999999973851,
      "SpecificCharacterSet": "ISO_IR 100",
      "StudyID": "1",
      "StudyTime": "140130.596000",
      "TransmitCoilName": "Body",
      "VariableFlipAngleFlag": "N",
      "WindowCenterWidthExplanation": "Algo1",
      "dBdt": 0.0},
    "slices": {}
  },
  "time": {
    "samples": {
      "AcquisitionNumber": [1, 2, 3, 4, 5, 6, 7, 8, 9, 10, 11, 12, 13, 14, 15, 16, 17, 18, 19, 20, 21, 22, 23, 24, 25, 26, 27, 28, 29, 30, 31, 32, 33, 34, 35, 36, 37, 38, 39, 40, 41, 42, 43, 44, 45, 46, 47, 48, 49, 50, 51, 52, 53, 54, 55, 56, 57, 58, 59, 60, 61, 62, 63, 64, 65, 66, 67, 68, 69, 70, 71, 72, 73, 74, 75, 76, 77, 78, 79, 80, 81, 82, 83, 84, 85, 86, 87, 88, 89, 90, 91, 92, 93, 94, 95, 96, 97, 98, 99, 100, 101, 102, 103, 104, 105, 106, 107, 108, 109, 110, 111, 112, 113, 114, 115, 116, 117, 118, 119, 120, 121, 122, 123, 124, 125, 126, 127, 128, 129, 130, 131, 132, 133, 134, 135, 136, 137, 138, 139, 140, 141, 142, 143, 144, 145, 146, 147, 148, 149, 150, 151, 152, 153, 154, 155, 156, 157, 158, 159, 160, 161, 162, 163, 164, 165, 166, 167, 168, 169, 170, 171, 172, 173, 174, 175, 176, 177, 178, 179, 180, 181, 182, 183, 184, 185, 186, 187, 188, 189, 190, 191, 192, 193, 194, 195, 196, 197, 198, 199, 200, 201, 202, 203, 204, 205, 206, 207, 208, 209, 210, 211, 212, 213, 214, 215, 216, 217, 218, 219, 220, 221, 222, 223, 224, 225, 226, 227, 228, 229, 230, 231, 232],
      "AcquisitionTime": ["144231.447500", "144233.447500", "144235.447500", "144237.447500", "144239.447500", "144241.447500", "144243.447500", "144245.447500", "144247.447500", "144249.447500", "144251.447500", "144253.447500", "144255.447500", "144257.447500", "144259.447500", "144301.447500", "144303.447500", "144305.447500", "144307.447500", "144309.447500", "144311.447500", "144313.447500", "144315.447500", "144317.447500", "144319.447500", "144321.447500", "144323.447500", "144325.447500", "144327.447500", "144329.447500", "144331.447500", "144333.447500", "144335.447500", "144337.447500", "144339.447500", "144341.447500", "144343.447500", "144345.447500", "144347.447500", "144349.447500", "144351.447500", "144353.447500", "144355.447500", "144357.447500", "144359.447500", "144401.447500", "144403.447500", "144405.447500", "144407.447500", "144409.447500", "144411.447500", "144413.447500", "144415.447500", "144417.447500", "144419.447500", "144421.447500", "144423.447500", "144425.447500", "144427.447500", "144429.447500", "144431.447500", "144433.447500", "144435.447500", "144437.447500", "144439.447500", "144441.447500", "144443.447500", "144445.447500", "144447.447500", "144449.447500", "144451.447500", "144453.447500", "144455.447500", "144457.447500", "144459.447500", "144501.447500", "144503.447500", "144505.447500", "144507.447500", "144509.447500", "144511.447500", "144513.447500", "144515.447500", "144517.447500", "144519.447500", "144521.447500", "144523.447500", "144525.447500", "144527.447500", "144529.447500", "144531.447500", "144533.447500", "144535.447500", "144537.447500", "144539.447500", "144541.447500", "144543.447500", "144545.447500", "144547.447500", "144549.447500", "144551.447500", "144553.447500", "144555.447500", "144557.447500", "144559.447500", "144601.447500", "144603.447500", "144605.447500", "144607.447500", "144609.447500", "144611.447500", "144613.447500", "144615.447500", "144617.447500", "144619.447500", "144621.447500", "144623.447500", "144625.447500", "144627.447500", "144629.447500", "144631.447500", "144633.447500", "144635.447500", "144637.447500", "144639.447500", "144641.447500", "144643.447500", "144645.447500", "144647.447500", "144649.447500", "144651.447500", "144653.447500", "144655.447500", "144657.447500", "144659.447500", "144701.447500", "144703.447500", "144705.447500", "144707.447500", "144709.447500", "144711.447500", "144713.447500", "144715.447500", "144717.447500", "144719.447500", "144721.447500", "144723.447500", "144725.447500", "144727.447500", "144729.447500", "144731.447500", "144733.447500", "144735.447500", "144737.447500", "144739.447500", "144741.447500", "144743.447500", "144745.447500", "144747.447500", "144749.447500", "144751.447500", "144753.447500", "144755.447500", "144757.447500", "144759.447500", "144801.447500", "144803.447500", "144805.447500", "144807.447500", "144809.447500", "144811.447500", "144813.447500", "144815.447500", "144817.447500", "144819.447500", "144821.447500", "144823.447500", "144825.447500", "144827.447500", "144829.447500", "144831.447500", "144833.447500", "144835.447500", "144837.447500", "144839.447500", "144841.447500", "144843.447500", "144845.447500", "144847.447500", "144849.447500", "144851.447500", "144853.447500", "144855.447500", "144857.447500", "144859.447500", "144901.447500", "144903.447500", "144905.447500", "144907.447500", "144909.447500", "144911.447500", "144913.447500", "144915.447500", "144917.447500", "144919.447500", "144921.447500", "144923.447500", "144925.447500", "144927.447500", "144929.447500", "144931.447500", "144933.447500", "144935.447500", "144937.447500", "144939.447500", "144941.447500", "144943.447500", "144945.447500", "144947.447500", "144949.447500", "144951.447500", "144953.447500", "144955.447500", "144957.447500", "144959.447500", "145001.447500", "145003.447500", "145005.447500", "145007.447500", "145009.447500", "145011.447500", "145013.447500"],
      "ContentTime": ["144233.506000", "144235.002000", "144237.501000", "144239.002000", "144241.501000", "144243.002000", "144245.002000", "144247.002000", "144249.002000", "144251.502000", "144253.002000", "144255.002000", "144257.002000", "144259.502000", "144301.002000", "144303.002000", "144305.002000", "144307.002000", "144309.002000", "144311.501000", "144313.002000", "144315.002000", "144317.002000", "144319.002000", "144321.002000", "144323.002000", "144325.002000", "144327.002000", "144329.002000", "144331.002000", "144333.002000", "144335.002000", "144337.002000", "144339.002000", "144341.002000", "144343.002000", "144345.002000", "144347.002000", "144349.002000", "144351.002000", "144353.503000", "144355.002000", "144357.002000", "144359.502000", "144401.002000", "144403.502000", "144405.002000", "144407.501000", "144409.002000", "144411.002000", "144413.002000", "144415.002000", "144417.002000", "144419.002000", "144421.002000", "144423.002000", "144425.002000", "144427.502000", "144429.002000", "144431.002000", "144433.002000", "144435.002000", "144437.002000", "144439.002000", "144441.501000", "144443.002000", "144445.002000", "144447.002000", "144449.002000", "144451.002000", "144453.002000", "144455.002000", "144457.002000", "144459.002000", "144501.002000", "144503.002000", "144505.002000", "144507.002000", "144509.501000", "144511.002000", "144513.501000", "144515.002000", "144517.002000", "144519.002000", "144521.002000", "144523.002000", "144525.002000", "144527.002000", "144529.002000", "144531.002000", "144533.501000", "144535.002000", "144537.002000", "144539.002000", "144541.002000", "144543.002000", "144545.002000", "144547.002000", "144549.502000", "144551.002000", "144553.501000", "144555.003000", "144557.002000", "144559.002000", "144601.002000", "144603.501000", "144605.002000", "144607.002000", "144609.002000", "144611.002000", "144613.003000", "144615.002000", "144617.002000", "144619.002000", "144621.002000", "144623.002000", "144625.002000", "144627.002000", "144629.002000", "144631.002000", "144633.002000", "144635.002000", "144637.002000", "144639.002000", "144641.002000", "144643.002000", "144645.002000", "144647.002000", "144649.002000", "144651.002000", "144653.002000", "144655.002000", "144657.002000", "144659.002000", "144701.002000", "144703.002000", "144705.502000", "144707.002000", "144709.502000", "144711.002000", "144713.002000", "144715.502000", "144717.002000", "144719.010000", "144721.002000", "144723.502000", "144725.002000", "144727.002000", "144729.002000", "144731.002000", "144733.002000", "144735.002000", "144737.002000", "144739.501000", "144741.002000", "144743.002000", "144745.002000", "144747.002000", "144749.501000", "144751.002000", "144753.002000", "144755.002000", "144757.002000", "144759.502000", "144801.002000", "144803.002000", "144805.501000", "144807.002000", "144809.002000", "144811.002000", "144813.002000", "144815.002000", "144817.002000", "144819.002000", "144821.002000", "144823.002000", "144825.002000", "144827.002000", "144829.502000", "144831.002000", "144833.002000", "144835.002000", "144837.002000", "144839.002000", "144841.002000", "144843.502000", "144845.002000", "144847.002000", "144849.002000", "144851.002000", "144853.002000", "144855.502000", "144857.002000", "144859.002000", "144901.002000", "144903.002000", "144905.002000", "144907.002000", "144909.503000", "144911.502000", "144913.002000", "144915.002000", "144917.002000", "144919.501000", "144921.002000", "144923.002000", "144925.002000", "144927.002000", "144929.002000", "144931.002000", "144933.502000", "144935.002000", "144937.002000", "144939.002000", "144941.002000", "144943.002000", "144945.002000", "144947.002000", "144949.002000", "144951.002000", "144953.002000", "144955.002000", "144957.002000", "144959.002000", "145001.002000", "145003.002000", "145005.002000", "145007.501000", "145009.002000", "145011.002000", "145013.002000", "145014.928000"],
      "InstanceCreationTime": ["144233.506000", "144235.002000", "144237.501000", "144239.002000", "144241.501000", "144243.002000", "144245.002000", "144247.002000", "144249.002000", "144251.502000", "144253.002000", "144255.002000", "144257.002000", "144259.502000", "144301.002000", "144303.002000", "144305.002000", "144307.002000", "144309.002000", "144311.501000", "144313.002000", "144315.002000", "144317.002000", "144319.002000", "144321.002000", "144323.002000", "144325.002000", "144327.002000", "144329.002000", "144331.002000", "144333.002000", "144335.002000", "144337.002000", "144339.002000", "144341.002000", "144343.002000", "144345.002000", "144347.002000", "144349.002000", "144351.002000", "144353.503000", "144355.002000", "144357.002000", "144359.502000", "144401.002000", "144403.502000", "144405.002000", "144407.501000", "144409.002000", "144411.002000", "144413.002000", "144415.002000", "144417.002000", "144419.002000", "144421.002000", "144423.002000", "144425.002000", "144427.502000", "144429.002000", "144431.002000", "144433.002000", "144435.002000", "144437.002000", "144439.002000", "144441.501000", "144443.002000", "144445.002000", "144447.002000", "144449.002000", "144451.002000", "144453.002000", "144455.002000", "144457.002000", "144459.002000", "144501.002000", "144503.002000", "144505.002000", "144507.002000", "144509.501000", "144511.002000", "144513.501000", "144515.002000", "144517.002000", "144519.002000", "144521.002000", "144523.002000", "144525.002000", "144527.002000", "144529.002000", "144531.002000", "144533.501000", "144535.002000", "144537.002000", "144539.002000", "144541.002000", "144543.002000", "144545.002000", "144547.002000", "144549.502000", "144551.002000", "144553.501000", "144555.003000", "144557.002000", "144559.002000", "144601.002000", "144603.501000", "144605.002000", "144607.002000", "144609.002000", "144611.002000", "144613.003000", "144615.002000", "144617.002000", "144619.002000", "144621.002000", "144623.002000", "144625.002000", "144627.002000", "144629.002000", "144631.002000", "144633.002000", "144635.002000", "144637.002000", "144639.002000", "144641.002000", "144643.002000", "144645.002000", "144647.002000", "144649.002000", "144651.002000", "144653.002000", "144655.002000", "144657.002000", "144659.002000", "144701.002000", "144703.002000", "144705.502000", "144707.002000", "144709.502000", "144711.002000", "144713.002000", "144715.502000", "144717.002000", "144719.010000", "144721.002000", "144723.502000", "144725.002000", "144727.002000", "144729.002000", "144731.002000", "144733.002000", "144735.002000", "144737.002000", "144739.501000", "144741.002000", "144743.002000", "144745.002000", "144747.002000", "144749.501000", "144751.002000", "144753.002000", "144755.002000", "144757.002000", "144759.502000", "144801.002000", "144803.002000", "144805.501000", "144807.002000", "144809.002000", "144811.002000", "144813.002000", "144815.002000", "144817.002000", "144819.002000", "144821.002000", "144823.002000", "144825.002000", "144827.002000", "144829.502000", "144831.002000", "144833.002000", "144835.002000", "144837.002000", "144839.002000", "144841.002000", "144843.502000", "144845.002000", "144847.002000", "144849.002000", "144851.002000", "144853.002000", "144855.502000", "144857.002000", "144859.002000", "144901.002000", "144903.002000", "144905.002000", "144907.002000", "144909.503000", "144911.502000", "144913.002000", "144915.002000", "144917.002000", "144919.501000", "144921.002000", "144923.002000", "144925.002000", "144927.002000", "144929.002000", "144931.002000", "144933.502000", "144935.002000", "144937.002000", "144939.002000", "144941.002000", "144943.002000", "144945.002000", "144947.002000", "144949.002000", "144951.002000", "144953.002000", "144955.002000", "144957.002000", "144959.002000", "145001.002000", "145003.002000", "145005.002000", "145007.501000", "145009.002000", "145011.002000", "145013.002000", "145014.928000"],
      "InstanceNumber": [1, 2, 3, 4, 5, 6, 7, 8, 9, 10, 11, 12, 13, 14, 15, 16, 17, 18, 19, 20, 21, 22, 23, 24, 25, 26, 27, 28, 29, 30, 31, 32, 33, 34, 35, 36, 37, 38, 39, 40, 41, 42, 43, 44, 45, 46, 47, 48, 49, 50, 51, 52, 53, 54, 55, 56, 57, 58, 59, 60, 61, 62, 63, 64, 65, 66, 67, 68, 69, 70, 71, 72, 73, 74, 75, 76, 77, 78, 79, 80, 81, 82, 83, 84, 85, 86, 87, 88, 89, 90, 91, 92, 93, 94, 95, 96, 97, 98, 99, 100, 101, 102, 103, 104, 105, 106, 107, 108, 109, 110, 111, 112, 113, 114, 115, 116, 117, 118, 119, 120, 121, 122, 123, 124, 125, 126, 127, 128, 129, 130, 131, 132, 133, 134, 135, 136, 137, 138, 139, 140, 141, 142, 143, 144, 145, 146, 147, 148, 149, 150, 151, 152, 153, 154, 155, 156, 157, 158, 159, 160, 161, 162, 163, 164, 165, 166, 167, 168, 169, 170, 171, 172, 173, 174, 175, 176, 177, 178, 179, 180, 181, 182, 183, 184, 185, 186, 187, 188, 189, 190, 191, 192, 193, 194, 195, 196, 197, 198, 199, 200, 201, 202, 203, 204, 205, 206, 207, 208, 209, 210, 211, 212, 213, 214, 215, 216, 217, 218, 219, 220, 221, 222, 223, 224, 225, 226, 227, 228, 229, 230, 231, 232],
      "LargestImagePixelValue": [3609, 3530, 3513, 3510, 3483, 3493, 3513, 3494, 3497, 3493, 3505, 3489, 3503, 3480, 3522, 3529, 3519, 3498, 3476, 3483, 3478, 3479, 3471, 3450, 3541, 3417, 3404, 3440, 3454, 3449, 3431, 3456, 3468, 3449, 3441, 3428, 3462, 3449, 3495, 3444, 3442, 3454, 3474, 3441, 3424, 3454, 3439, 3454, 3468, 3463, 3487, 3479, 3491, 3467, 3492, 3493, 3487, 3501, 3506, 3501, 3479, 3476, 3521, 3495, 3493, 3536, 3490, 3477, 3498, 3490, 3504, 3496, 3495, 3503, 3514, 3504, 3493, 3474, 3500, 3495, 3521, 3489, 3471, 3481, 3466, 3477, 3466, 3464, 3481, 3506, 3516, 3501, 3499, 3508, 3528, 3529, 3508, 3543, 3513, 3516, 3498, 3531, 3522, 3520, 3504, 3521, 3474, 3434, 3462, 3457, 3462, 3484, 3427, 3473, 3482, 3519, 3475, 3466, 3482, 3465, 3496, 3501, 3487, 3443, 3487, 3468, 3459, 3493, 3439, 3445, 3495, 3487, 3477, 3457, 3506, 3479, 3473, 3494, 3457, 3497, 3512, 3482, 3497, 3500, 3497, 3479, 3486, 3484, 3456, 3503, 3466, 3442, 3489, 3472, 3471, 3483, 3472, 3474, 3482, 3474, 3495, 3489, 3487, 3447, 3478, 3493, 3503, 3487, 3514, 3464, 3489, 3496, 3491, 3508, 3503, 3514, 3522, 3476, 3477, 3470, 3469, 3505, 3498, 3485, 3477, 3488, 3486, 3517, 3492, 3486, 3477, 3470, 3448, 3504, 3461, 3454, 3448, 3470, 3472, 3492, 3439, 3454, 3469, 3482, 3467, 3452, 3488, 3469, 3464, 3485, 3476, 3490, 3480, 3462, 3476, 3464, 3443, 3402, 3421, 3432, 3420, 3448, 3449, 3444, 3444, 3450, 3456, 3492, 3464, 3478, 3470, 3456],
      "WindowCenter": [781.0, 778.0, 777.0, 777.0, 777.0, 777.0, 777.0, 776.0, 775.0, 776.0, 777.0, 777.0, 777.0, 777.0, 777.0, 777.0, 777.0, 776.0, 775.0, 775.0, 775.0, 776.0, 776.0, 775.0, 776.0, 776.0, 775.0, 775.0, 776.0, 776.0, 777.0, 778.0, 777.0, 775.0, 774.0, 774.0, 775.0, 776.0, 777.0, 776.0, 775.0, 774.0, 774.0, 774.0, 774.0, 775.0, 775.0, 776.0, 778.0, 777.0, 777.0, 777.0, 777.0, 777.0, 777.0, 777.0, 777.0, 776.0, 777.0, 778.0, 777.0, 777.0, 777.0, 777.0, 777.0, 776.0, 776.0, 777.0, 776.0, 776.0, 776.0, 776.0, 777.0, 778.0, 779.0, 779.0, 779.0, 778.0, 777.0, 777.0, 778.0, 777.0, 777.0, 777.0, 777.0, 777.0, 776.0, 777.0, 777.0, 778.0, 777.0, 777.0, 777.0, 777.0, 777.0, 779.0, 778.0, 778.0, 777.0, 777.0, 777.0, 777.0, 777.0, 777.0, 779.0, 778.0, 776.0, 775.0, 775.0, 775.0, 775.0, 775.0, 775.0, 777.0, 777.0, 777.0, 777.0, 776.0, 776.0, 776.0, 777.0, 777.0, 775.0, 775.0, 776.0, 776.0, 776.0, 776.0, 777.0, 777.0, 778.0, 777.0, 777.0, 777.0, 777.0, 777.0, 777.0, 776.0, 777.0, 777.0, 777.0, 775.0, 775.0, 776.0, 777.0, 778.0, 778.0, 778.0, 778.0, 778.0, 778.0, 776.0, 776.0, 776.0, 776.0, 777.0, 776.0, 776.0, 777.0, 777.0, 777.0, 776.0, 775.0, 776.0, 777.0, 776.0, 775.0, 775.0, 777.0, 777.0, 776.0, 776.0, 777.0, 777.0, 778.0, 778.0, 778.0, 777.0, 777.0, 777.0, 776.0, 776.0, 776.0, 776.0, 775.0, 776.0, 776.0, 778.0, 776.0, 778.0, 777.0, 778.0, 777.0, 777.0, 776.0, 775.0, 776.0, 776.0, 776.0, 776.0, 776.0, 776.0, 775.0, 775.0, 775.0, 775.0, 776.0, 777.0, 776.0, 774.0, 774.0, 776.0, 777.0, 777.0, 774.0, 776.0, 776.0, 776.0, 775.0, 775.0, 776.0, 777.0, 777.0, 777.0, 778.0, 778.0, 776.0, 775.0, 776.0, 776.0, 776.0, 776.0],
      "WindowWidth": [1709.0, 1701.0, 1696.0, 1696.0, 1698.0, 1698.0, 1697.0, 1694.0, 1691.0, 1693.0, 1697.0, 1696.0, 1696.0, 1698.0, 1698.0, 1696.0, 1696.0, 1694.0, 1691.0, 1690.0, 1691.0, 1693.0, 1693.0, 1692.0, 1696.0, 1693.0, 1692.0, 1693.0, 1695.0, 1695.0, 1696.0, 1698.0, 1696.0, 1692.0, 1689.0, 1688.0, 1692.0, 1695.0, 1697.0, 1694.0, 1690.0, 1689.0, 1688.0, 1689.0, 1689.0, 1691.0, 1690.0, 1694.0, 1698.0, 1697.0, 1697.0, 1696.0, 1697.0, 1696.0, 1698.0, 1698.0, 1696.0, 1695.0, 1696.0, 1699.0, 1697.0, 1697.0, 1697.0, 1696.0, 1695.0, 1693.0, 1694.0, 1695.0, 1695.0, 1693.0, 1693.0, 1695.0, 1698.0, 1699.0, 1702.0, 1703.0, 1703.0, 1698.0, 1697.0, 1699.0, 1701.0, 1698.0, 1696.0, 1698.0, 1698.0, 1697.0, 1695.0, 1697.0, 1697.0, 1698.0, 1697.0, 1696.0, 1697.0, 1698.0, 1699.0, 1702.0, 1700.0, 1699.0, 1696.0, 1696.0, 1697.0, 1696.0, 1697.0, 1698.0, 1702.0, 1700.0, 1693.0, 1691.0, 1690.0, 1691.0, 1692.0, 1691.0, 1691.0, 1696.0, 1697.0, 1698.0, 1696.0, 1693.0, 1695.0, 1695.0, 1698.0, 1695.0, 1690.0, 1691.0, 1695.0, 1694.0, 1694.0, 1695.0, 1696.0, 1697.0, 1700.0, 1696.0, 1695.0, 1696.0, 1697.0, 1695.0, 1695.0, 1694.0, 1695.0, 1697.0, 1696.0, 1692.0, 1691.0, 1694.0, 1697.0, 1698.0, 1698.0, 1698.0, 1698.0, 1699.0, 1698.0, 1694.0, 1694.0, 1693.0, 1694.0, 1696.0, 1695.0, 1693.0, 1696.0, 1696.0, 1697.0, 1692.0, 1691.0, 1692.0, 1697.0, 1693.0, 1690.0, 1691.0, 1697.0, 1697.0, 1694.0, 1694.0, 1695.0, 1696.0, 1699.0, 1698.0, 1699.0, 1698.0, 1698.0, 1696.0, 1692.0, 1693.0, 1693.0, 1692.0, 1690.0, 1693.0, 1695.0, 1698.0, 1695.0, 1698.0, 1697.0, 1698.0, 1696.0, 1695.0, 1692.0, 1691.0, 1692.0, 1693.0, 1693.0, 1693.0, 1693.0, 1693.0, 1690.0, 1692.0, 1692.0, 1691.0, 1693.0, 1695.0, 1692.0, 1688.0, 1689.0, 1692.0, 1695.0, 1697.0, 1688.0, 1693.0, 1694.0, 1694.0, 1690.0, 1691.0, 1693.0, 1696.0, 1697.0, 1697.0, 1700.0, 1699.0, 1694.0, 1691.0, 1692.0, 1693.0, 1692.0, 1692.0]
    },
    "slices": {}
  }
}