{
  "AcquisitionMatrixPE": 100,
  "AcquisitionNumber": 1,
  "AcquisitionTime": "14:13:41.295000",
  "BandwidthPerPixelPhaseEncode": 18.519,
  "BaseResolution": 100,
  "BodyPartExamined": "BRAIN",
  "ConsistencyInfo": "N4_VE11C_LATEST_20160120",
  "ConversionSoftware": "dcm2niix",
  "ConversionSoftwareVersion": "v1.0.20180622 GCC4.9.2",
  "DerivedVendorReportedEchoSpacing": 0.000539986,
  "DeviceSerialNumber": "166078",
  "DwellTime": 2.1e-06,
  "EchoTime": 0.034,
  "EchoTrainLength": 100,
  "EffectiveEchoSpacing": 0.000539986,
  "FlipAngle": 90,
  "ImageOrientationPatientDICOM": [0.999468, 0.0322922, 0.0045389, -0.0314096, 0.990728, -0.132178],
  "ImageType": [
    "ORIGINAL",
    "PRIMARY",
    "M",
    "ND",
    "MOSAIC"
],
  "InPlanePhaseEncodingDirectionDICOM": "COL",
  "InstitutionAddress": "Street_StreetNo_Bei_Jing_District_CN_ZIP",
  "InstitutionName": "BeiJing_Normal_University",
  "InstitutionalDepartmentName": "Department",
  "MRAcquisitionType": "2D",
  "MagneticFieldStrength": 3,
  "Manufacturer": "Siemens",
  "ManufacturersModelName": "Prisma",
  "Modality": "MR",
  "MultibandAccelerationFactor": 3,
  "PartialFourier": 1,
  "PatientPosition": "HFS",
  "PercentPhaseFOV": 100,
  "PhaseEncodingDirection": "j-",
  "PhaseEncodingSteps": 100,
  "PhaseResolution": 1,
  "PixelBandwidth": 2380,
  "ProcedureStepDescription": "BNU_P2018_64CH_Liu.Jia",
  "ProtocolName": "bold_100x100_s3_2x2x2_232",
  "PulseSequenceDetails": "%SiemensSeq%_ep2d_bold",
  "ReceiveCoilActiveElements": "HC1-7;NC1",
  "ReceiveCoilName": "HeadNeck_64",
  "ReconMatrixPE": 100,
  "RepetitionTime": 2,
  "SAR": 0.0678593,
  "ScanOptions": "FS",
  "ScanningSequence": "EP",
  "SequenceName": "_epfid2d1_100",
  "SequenceVariant": "SK",
  "SeriesDescription": "bold_100x100_s3_2x2x2_232",
  "SeriesNumber": 5,
  "ShimSetting": [-5457, -11481, -1281, 285, -53, -359, -198, 55],
  "SliceThickness": 2,
  "SliceTiming": [1.485, 0, 0.99, 0.0825, 1.0725, 0.165, 1.155, 0.2475, 1.2375, 0.33, 1.32, 0.4125, 1.4025, 0.5775, 1.5675, 0.66, 1.65, 0.7425, 1.7325, 0.825, 1.815, 0.9075, 1.8975, 0.495, 1.485, 0, 0.99, 0.0825, 1.0725, 0.165, 1.155, 0.2475, 1.2375, 0.33, 1.32, 0.4125, 1.4025, 0.5775, 1.5675, 0.66, 1.65, 0.7425, 1.7325, 0.825, 1.815, 0.9075, 1.8975, 0.495, 1.485, 0, 0.99, 0.0825, 1.0725, 0.165, 1.155, 0.2475, 1.2375, 0.33, 1.32, 0.4125, 1.4025, 0.5775, 1.5675, 0.66, 1.65, 0.7425, 1.7325, 0.825, 1.815, 0.9075, 1.8975, 0.495],
  "SoftwareVersions": "syngo_MR_E11",
  "SpacingBetweenSlices": 2,
  "StationName": "AWP166078",
  "TaskName": "motor",
  "TotalReadoutTime": 0.0534586,
  "TxRefAmp": 213.694,
  "dcmmeta_affine": [
    [-1.9989362955093384, -0.06281910836696625, 0.01753029227256775, 102.72970581054688],
    [-0.0645844042301178, 1.9814562797546387, -0.2639312446117401, -79.41693115234375],
    [0.009077792055904865, 0.26435697078704834, 1.982431173324585, -83.16288757324219],
    [0.0, 0.0, 0.0, 1.0]
],
  "dcmmeta_reorient_transform": [
    [0.0, -1.0, 0.0, 99.0],
    [1.0, 0.0, 0.0, 0.0],
    [0.0, 0.0, 1.0, 0.0],
    [0.0, 0.0, 0.0, 1.0]
],
  "dcmmeta_shape": [100, 100, 72, 232],
  "dcmmeta_slice_dim": 2,
  "dcmmeta_version": 0.6,
  "global": {
    "const": {
      "AcquisitionMatrix": [100, 0, 0, 100],
      "AngioFlag": "N",
      "BitsAllocated": 16,
      "BitsStored": 12,
      "BodyPartExamined": "BRAIN",
      "Columns": 900,
      "EchoNumbers": 1,
      "EchoTime": 34.0,
      "EchoTrainLength": 100,
      "FlipAngle": 90.0,
      "HighBit": 11,
      "ImageOrientationPatient": [0.99946816466345, 0.03229220102566, 0.00453889603335, -0.0314095532137, 0.9907281602744, -0.1321784869267],
      "ImagePositionPatient": [-870.95749991881, -935.16353371955, 45.120123381127],
      "ImageType": [
        "ORIGINAL",
        "PRIMARY",
        "M",
        "ND",
        "MOSAIC"
],
      "ImagedNucleus": "1H",
      "ImagingFrequency": 123.257851,
      "InPlanePhaseEncodingDirection": "COL",
      "MRAcquisitionType": "2D",
      "MagneticFieldStrength": 3.0,
      "Manufacturer": "SIEMENS",
      "ManufacturerModelName": "Prisma",
      "Modality": "MR",
      "NumberOfAverages": 1.0,
      "NumberOfPhaseEncodingSteps": 100,
      "PercentPhaseFieldOfView": 100.0,
      "PercentSampling": 100.0,
      "PerformedProcedureStepStartTime": "135258.271000",
      "PhotometricInterpretation": "MONOCHROME2",
      "PixelBandwidth": 2380.0,
      "PixelRepresentation": 0,
      "PixelSpacing": [2.0, 2.0],
      "ProtocolName": "bold_100x100_s3_2x2x2_232",
      "RepetitionTime": 2000.0,
      "Rows": 900,
      "SAR": 0.06785933907303,
      "SamplesPerPixel": 1,
      "ScanOptions": "FS",
      "ScanningSequence": "EP",
      "SequenceName": "*epfid2d1_100",
      "SequenceVariant": "SK",
      "SeriesDescription": "bold_100x100_s3_2x2x2_232",
      "SeriesNumber": 5,
      "SeriesTime": "141343.624000",
      "SliceLocation": -71.051602811888,
      "SliceThickness": 2.0,
      "SmallestImagePixelValue": 0,
      "SoftwareVersions": "syngo MR E11",
      "SpacingBetweenSlices": 2.0000000354017,
      "SpecificCharacterSet": "ISO_IR 100",
      "StudyID": "1",
      "StudyTime": "135258.182000",
      "TransmitCoilName": "Body",
      "VariableFlipAngleFlag": "N",
      "WindowCenterWidthExplanation": "Algo1",
      "dBdt": 0.0},
    "slices": {}
  },
  "time": {
    "samples": {
      "AcquisitionNumber": [1, 2, 3, 4, 5, 6, 7, 8, 9, 10, 11, 12, 13, 14, 15, 16, 17, 18, 19, 20, 21, 22, 23, 24, 25, 26, 27, 28, 29, 30, 31, 32, 33, 34, 35, 36, 37, 38, 39, 40, 41, 42, 43, 44, 45, 46, 47, 48, 49, 50, 51, 52, 53, 54, 55, 56, 57, 58, 59, 60, 61, 62, 63, 64, 65, 66, 67, 68, 69, 70, 71, 72, 73, 74, 75, 76, 77, 78, 79, 80, 81, 82, 83, 84, 85, 86, 87, 88, 89, 90, 91, 92, 93, 94, 95, 96, 97, 98, 99, 100, 101, 102, 103, 104, 105, 106, 107, 108, 109, 110, 111, 112, 113, 114, 115, 116, 117, 118, 119, 120, 121, 122, 123, 124, 125, 126, 127, 128, 129, 130, 131, 132, 133, 134, 135, 136, 137, 138, 139, 140, 141, 142, 143, 144, 145, 146, 147, 148, 149, 150, 151, 152, 153, 154, 155, 156, 157, 158, 159, 160, 161, 162, 163, 164, 165, 166, 167, 168, 169, 170, 171, 172, 173, 174, 175, 176, 177, 178, 179, 180, 181, 182, 183, 184, 185, 186, 187, 188, 189, 190, 191, 192, 193, 194, 195, 196, 197, 198, 199, 200, 201, 202, 203, 204, 205, 206, 207, 208, 209, 210, 211, 212, 213, 214, 215, 216, 217, 218, 219, 220, 221, 222, 223, 224, 225, 226, 227, 228, 229, 230, 231, 232],
      "AcquisitionTime": ["141341.295000", "141343.295000", "141345.295000", "141347.295000", "141349.295000", "141351.295000", "141353.295000", "141355.295000", "141357.295000", "141359.295000", "141401.295000", "141403.295000", "141405.295000", "141407.295000", "141409.295000", "141411.295000", "141413.295000", "141415.295000", "141417.295000", "141419.295000", "141421.295000", "141423.295000", "141425.295000", "141427.295000", "141429.295000", "141431.295000", "141433.295000", "141435.295000", "141437.295000", "141439.295000", "141441.295000", "141443.295000", "141445.295000", "141447.295000", "141449.295000", "141451.295000", "141453.295000", "141455.295000", "141457.295000", "141459.295000", "141501.295000", "141503.295000", "141505.295000", "141507.295000", "141509.295000", "141511.295000", "141513.295000", "141515.295000", "141517.295000", "141519.295000", "141521.295000", "141523.295000", "141525.295000", "141527.295000", "141529.295000", "141531.295000", "141533.295000", "141535.295000", "141537.295000", "141539.295000", "141541.295000", "141543.295000", "141545.295000", "141547.295000", "141549.295000", "141551.295000", "141553.295000", "141555.295000", "141557.295000", "141559.295000", "141601.295000", "141603.295000", "141605.295000", "141607.295000", "141609.295000", "141611.295000", "141613.295000", "141615.295000", "141617.295000", "141619.295000", "141621.295000", "141623.295000", "141625.295000", "141627.295000", "141629.295000", "141631.295000", "141633.295000", "141635.295000", "141637.295000", "141639.295000", "141641.295000", "141643.295000", "141645.295000", "141647.295000", "141649.295000", "141651.295000", "141653.295000", "141655.295000", "141657.295000", "141659.295000", "141701.295000", "141703.295000", "141705.295000", "141707.295000", "141709.295000", "141711.295000", "141713.295000", "141715.295000", "141717.295000", "141719.295000", "141721.295000", "141723.295000", "141725.295000", "141727.295000", "141729.295000", "141731.295000", "141733.295000", "141735.295000", "141737.295000", "141739.295000", "141741.295000", "141743.295000", "141745.295000", "141747.295000", "141749.295000", "141751.295000", "141753.295000", "141755.295000", "141757.295000", "141759.295000", "141801.295000", "141803.295000", "141805.295000", "141807.295000", "141809.295000", "141811.295000", "141813.295000", "141815.295000", "141817.295000", "141819.295000", "141821.295000", "141823.295000", "141825.295000", "141827.295000", "141829.295000", "141831.295000", "141833.295000", "141835.295000", "141837.295000", "141839.295000", "141841.295000", "141843.295000", "141845.295000", "141847.295000", "141849.295000", "141851.295000", "141853.295000", "141855.295000", "141857.295000", "141859.295000", "141901.295000", "141903.295000", "141905.295000", "141907.295000", "141909.295000", "141911.295000", "141913.295000", "141915.295000", "141917.295000", "141919.295000", "141921.295000", "141923.295000", "141925.295000", "141927.295000", "141929.295000", "141931.295000", "141933.295000", "141935.295000", "141937.295000", "141939.295000", "141941.295000", "141943.295000", "141945.295000", "141947.295000", "141949.295000", "141951.295000", "141953.295000", "141955.295000", "141957.295000", "141959.295000", "142001.295000", "142003.295000", "142005.295000", "142007.295000", "142009.295000", "142011.295000", "142013.295000", "142015.295000", "142017.295000", "142019.295000", "142021.295000", "142023.295000", "142025.295000", "142027.295000", "142029.295000", "142031.295000", "142033.295000", "142035.295000", "142037.295000", "142039.295000", "142041.295000", "142043.295000", "142045.295000", "142047.295000", "142049.295000", "142051.295000", "142053.295000", "142055.295000", "142057.295000", "142059.295000", "142101.295000", "142103.295000", "142105.295000", "142107.295000", "142109.295000", "142111.295000", "142113.295000", "142115.295000", "142117.295000", "142119.295000", "142121.295000", "142123.295000"],
      "ContentTime": ["141343.628000", "141345.124000", "141347.124000", "141349.124000", "141351.124000", "141353.125000", "141355.123000", "141357.123000", "141359.123000", "141401.123000", "141403.124000", "141405.124000", "141407.124000", "141409.124000", "141411.125000", "141413.123000", "141415.123000", "141417.123000", "141419.124000", "141421.125000", "141423.124000", "141425.124000", "141427.124000", "141429.123000", "141431.123000", "141433.123000", "141435.123000", "141437.124000", "141439.124000", "141441.125000", "141443.124000", "141445.124000", "141447.124000", "141449.123000", "141451.124000", "141453.123000", "141455.124000", "141457.124000", "141459.124000", "141501.125000", "141503.125000", "141505.123000", "141507.123000", "141509.124000", "141511.124000", "141513.124000", "141515.124000", "141517.124000", "141519.124000", "141521.125000", "141523.123000", "141525.124000", "141527.123000", "141529.124000", "141531.124000", "141533.125000", "141535.124000", "141537.125000", "141539.123000", "141541.124000", "141543.123000", "141545.123000", "141547.124000", "141549.125000", "141551.124000", "141553.124000", "141555.124000", "141557.123000", "141559.123000", "141601.123000", "141603.123000", "141605.124000", "141607.124000", "141609.125000", "141611.145000", "141613.124000", "141615.123000", "141617.123000", "141619.124000", "141621.123000", "141623.124000", "141625.124000", "141627.124000", "141629.124000", "141631.124000", "141633.123000", "141635.123000", "141637.144000", "141639.144000", "141641.125000", "141643.125000", "141645.124000", "141647.125000", "141649.123000", "141651.124000", "141653.123000", "141655.123000", "141657.125000", "141659.124000", "141701.124000", "141703.124000", "141705.124000", "141707.123000", "141709.123000", "141711.124000", "141713.123000", "141715.144000", "141717.124000", "141719.124000", "141721.125000", "141723.124000", "141725.123000", "141727.123000", "141729.124000", "141731.123000", "141733.124000", "141735.124000", "141737.125000", "141739.125000", "141741.125000", "141743.123000", "141745.124000", "141747.123000", "141749.124000", "141751.124000", "141753.125000", "141755.124000", "141757.124000", "141759.123000", "141801.123000", "141803.123000", "141805.123000", "141807.125000", "141809.124000", "141811.124000", "141813.124000", "141815.145000", "141817.123000", "141819.123000", "141821.123000", "141823.123000", "141825.124000", "141827.125000", "141829.124000", "141831.124000", "141833.125000", "141835.123000", "141837.123000", "141839.123000", "141841.123000", "141843.125000", "141845.125000", "141847.124000", "141849.124000", "141851.124000", "141853.123000", "141855.123000", "141857.124000", "141859.124000", "141901.124000", "141903.124000", "141905.125000", "141907.124000", "141909.123000", "141911.124000", "141913.123000", "141915.123000", "141917.124000", "141919.125000", "141921.124000", "141923.124000", "141925.124000", "141927.123000", "141929.124000", "141931.123000", "141933.123000", "141935.132000", "141937.125000", "141939.125000", "141941.124000", "141943.125000", "141945.124000", "141947.124000", "141949.123000", "141951.143000", "141953.124000", "141955.125000", "141957.125000", "141959.125000", "142001.124000", "142003.123000", "142005.123000", "142007.123000", "142009.125000", "142011.124000", "142013.124000", "142015.125000", "142017.125000", "142019.124000", "142021.123000", "142023.123000", "142025.123000", "142027.125000", "142029.124000", "142031.124000", "142033.125000", "142035.124000", "142037.123000", "142039.123000", "142041.124000", "142043.123000", "142045.124000", "142047.124000", "142049.124000", "142051.125000", "142053.124000", "142055.123000", "142057.123000", "142059.123000", "142101.124000", "142103.124000", "142105.125000", "142107.124000", "142109.124000", "142111.124000", "142113.123000", "142115.123000", "142117.123000", "142119.125000", "142121.124000", "142123.125000", "142124.858000"],
      "InstanceCreationTime": ["141343.628000", "141345.124000", "141347.124000", "141349.124000", "141351.124000", "141353.125000", "141355.123000", "141357.123000", "141359.123000", "141401.123000", "141403.124000", "141405.124000", "141407.124000", "141409.124000", "141411.125000", "141413.123000", "141415.123000", "141417.123000", "141419.124000", "141421.125000", "141423.124000", "141425.124000", "141427.124000", "141429.123000", "141431.123000", "141433.123000", "141435.123000", "141437.124000", "141439.124000", "141441.125000", "141443.124000", "141445.124000", "141447.124000", "141449.123000", "141451.124000", "141453.123000", "141455.124000", "141457.124000", "141459.124000", "141501.125000", "141503.125000", "141505.123000", "141507.123000", "141509.124000", "141511.124000", "141513.124000", "141515.124000", "141517.124000", "141519.124000", "141521.125000", "141523.123000", "141525.124000", "141527.123000", "141529.124000", "141531.124000", "141533.125000", "141535.124000", "141537.125000", "141539.123000", "141541.124000", "141543.123000", "141545.123000", "141547.124000", "141549.125000", "141551.124000", "141553.124000", "141555.124000", "141557.123000", "141559.123000", "141601.123000", "141603.123000", "141605.124000", "141607.124000", "141609.125000", "141611.145000", "141613.124000", "141615.123000", "141617.123000", "141619.124000", "141621.123000", "141623.124000", "141625.124000", "141627.124000", "141629.124000", "141631.124000", "141633.123000", "141635.123000", "141637.144000", "141639.144000", "141641.125000", "141643.125000", "141645.124000", "141647.125000", "141649.123000", "141651.124000", "141653.123000", "141655.123000", "141657.125000", "141659.124000", "141701.124000", "141703.124000", "141705.124000", "141707.123000", "141709.123000", "141711.124000", "141713.123000", "141715.144000", "141717.124000", "141719.124000", "141721.125000", "141723.124000", "141725.123000", "141727.123000", "141729.124000", "141731.123000", "141733.124000", "141735.124000", "141737.125000", "141739.125000", "141741.125000", "141743.123000", "141745.124000", "141747.123000", "141749.124000", "141751.124000", "141753.125000", "141755.124000", "141757.124000", "141759.123000", "141801.123000", "141803.123000", "141805.123000", "141807.125000", "141809.124000", "141811.124000", "141813.124000", "141815.145000", "141817.123000", "141819.123000", "141821.123000", "141823.123000", "141825.124000", "141827.125000", "141829.124000", "141831.124000", "141833.125000", "141835.123000", "141837.123000", "141839.123000", "141841.123000", "141843.125000", "141845.125000", "141847.124000", "141849.124000", "141851.124000", "141853.123000", "141855.123000", "141857.124000", "141859.124000", "141901.124000", "141903.124000", "141905.125000", "141907.124000", "141909.123000", "141911.124000", "141913.123000", "141915.123000", "141917.124000", "141919.125000", "141921.124000", "141923.124000", "141925.124000", "141927.123000", "141929.124000", "141931.123000", "141933.123000", "141935.132000", "141937.125000", "141939.125000", "141941.124000", "141943.125000", "141945.124000", "141947.124000", "141949.123000", "141951.143000", "141953.124000", "141955.125000", "141957.125000", "141959.125000", "142001.124000", "142003.123000", "142005.123000", "142007.123000", "142009.125000", "142011.124000", "142013.124000", "142015.125000", "142017.125000", "142019.124000", "142021.123000", "142023.123000", "142025.123000", "142027.125000", "142029.124000", "142031.124000", "142033.125000", "142035.124000", "142037.123000", "142039.123000", "142041.124000", "142043.123000", "142045.124000", "142047.124000", "142049.124000", "142051.125000", "142053.124000", "142055.123000", "142057.123000", "142059.123000", "142101.124000", "142103.124000", "142105.125000", "142107.124000", "142109.124000", "142111.124000", "142113.123000", "142115.123000", "142117.123000", "142119.125000", "142121.124000", "142123.125000", "142124.858000"],
      "InstanceNumber": [1, 2, 3, 4, 5, 6, 7, 8, 9, 10, 11, 12, 13, 14, 15, 16, 17, 18, 19, 20, 21, 22, 23, 24, 25, 26, 27, 28, 29, 30, 31, 32, 33, 34, 35, 36, 37, 38, 39, 40, 41, 42, 43, 44, 45, 46, 47, 48, 49, 50, 51, 52, 53, 54, 55, 56, 57, 58, 59, 60, 61, 62, 63, 64, 65, 66, 67, 68, 69, 70, 71, 72, 73, 74, 75, 76, 77, 78, 79, 80, 81, 82, 83, 84, 85, 86, 87, 88, 89, 90, 91, 92, 93, 94, 95, 96, 97, 98, 99, 100, 101, 102, 103, 104, 105, 106, 107, 108, 109, 110, 111, 112, 113, 114, 115, 116, 117, 118, 119, 120, 121, 122, 123, 124, 125, 126, 127, 128, 129, 130, 131, 132, 133, 134, 135, 136, 137, 138, 139, 140, 141, 142, 143, 144, 145, 146, 147, 148, 149, 150, 151, 152, 153, 154, 155, 156, 157, 158, 159, 160, 161, 162, 163, 164, 165, 166, 167, 168, 169, 170, 171, 172, 173, 174, 175, 176, 177, 178, 179, 180, 181, 182, 183, 184, 185, 186, 187, 188, 189, 190, 191, 192, 193, 194, 195, 196, 197, 198, 199, 200, 201, 202, 203, 204, 205, 206, 207, 208, 209, 210, 211, 212, 213, 214, 215, 216, 217, 218, 219, 220, 221, 222, 223, 224, 225, 226, 227, 228, 229, 230, 231, 232],
      "LargestImagePixelValue": [3855, 3786, 3689, 3717, 3681, 3701, 3691, 3708, 3682, 3751, 3702, 3712, 3683, 3706, 3727, 3752, 3774, 3703, 3724, 3715, 3728, 3708, 3742, 3703, 3702, 3696, 3713, 3698, 3740, 3684, 3726, 3709, 3737, 3728, 3747, 3709, 3748, 3710, 3679, 3711, 3709, 3689, 3700, 3721, 3724, 3707, 3754, 3727, 3697, 3691, 3745, 3714, 3737, 3753, 3725, 3737, 3717, 3727, 3709, 3755, 3747, 3726, 3683, 3699, 3733, 3698, 3704, 3674, 3692, 3709, 3686, 3711, 3691, 3688, 3686, 3654, 3674, 3703, 3689, 3690, 3674, 3709, 3730, 3689, 3712, 3712, 3703, 3706, 3683, 3724, 3720, 3679, 3773, 3717, 3706, 3707, 3736, 3800, 3714, 3715, 3725, 3727, 3734, 3698, 3705, 3668, 3636, 3714, 3702, 3720, 3725, 3672, 3691, 3714, 3746, 3738, 3746, 3731, 3733, 3733, 3759, 3753, 3746, 3722, 3718, 3784, 3786, 3798, 3690, 3721, 3661, 3657, 3654, 3678, 3697, 3686, 3681, 3670, 3680, 3732, 3712, 3759, 3709, 3729, 3703, 3682, 3693, 3710, 3694, 3703, 3734, 3698, 3666, 3664, 3714, 3688, 3740, 3681, 3746, 3707, 3729, 3655, 3660, 3677, 3660, 3704, 3705, 3684, 3691, 3734, 3714, 3723, 3709, 3738, 3740, 3748, 3784, 3740, 3717, 3679, 3687, 3717, 3771, 3761, 3676, 3659, 3648, 3642, 3609, 3608, 3609, 3627, 3657, 3679, 3624, 3641, 3647, 3606, 3631, 3614, 3645, 3701, 3740, 3710, 3749, 3718, 3715, 3717, 3716, 3682, 3684, 3691, 3695, 3663, 3686, 3694, 3695, 3648, 3624, 3601, 3588, 3574, 3551, 3569, 3560, 3607, 3591, 3636, 3606, 3607, 3622, 3647],
      "WindowCenter": [800.0, 799.0, 798.0, 798.0, 796.0, 796.0, 796.0, 797.0, 797.0, 798.0, 799.0, 798.0, 796.0, 796.0, 797.0, 798.0, 798.0, 798.0, 798.0, 799.0, 799.0, 799.0, 798.0, 797.0, 797.0, 797.0, 798.0, 798.0, 797.0, 797.0, 798.0, 798.0, 798.0, 797.0, 798.0, 798.0, 798.0, 798.0, 799.0, 798.0, 798.0, 798.0, 798.0, 798.0, 799.0, 798.0, 798.0, 797.0, 797.0, 798.0, 798.0, 797.0, 796.0, 797.0, 798.0, 799.0, 797.0, 798.0, 798.0, 799.0, 799.0, 799.0, 799.0, 798.0, 797.0, 797.0, 797.0, 796.0, 796.0, 797.0, 797.0, 797.0, 796.0, 797.0, 798.0, 798.0, 797.0, 796.0, 797.0, 798.0, 797.0, 797.0, 796.0, 796.0, 798.0, 799.0, 799.0, 798.0, 797.0, 798.0, 798.0, 797.0, 797.0, 799.0, 798.0, 799.0, 799.0, 798.0, 797.0, 797.0, 797.0, 796.0, 796.0, 795.0, 793.0, 793.0, 792.0, 793.0, 794.0, 792.0, 793.0, 791.0, 793.0, 795.0, 795.0, 795.0, 796.0, 796.0, 796.0, 796.0, 795.0, 795.0, 795.0, 795.0, 794.0, 795.0, 795.0, 796.0, 797.0, 798.0, 796.0, 795.0, 795.0, 795.0, 795.0, 795.0, 794.0, 794.0, 794.0, 793.0, 792.0, 793.0, 793.0, 794.0, 794.0, 794.0, 795.0, 796.0, 797.0, 797.0, 797.0, 796.0, 796.0, 797.0, 797.0, 797.0, 797.0, 797.0, 797.0, 797.0, 796.0, 796.0, 797.0, 797.0, 796.0, 796.0, 796.0, 797.0, 796.0, 796.0, 796.0, 797.0, 797.0, 796.0, 796.0, 796.0, 796.0, 798.0, 798.0, 797.0, 796.0, 796.0, 797.0, 798.0, 797.0, 798.0, 799.0, 798.0, 797.0, 796.0, 796.0, 796.0, 796.0, 795.0, 795.0, 795.0, 795.0, 795.0, 796.0, 797.0, 798.0, 799.0, 799.0, 799.0, 799.0, 798.0, 798.0, 798.0, 798.0, 798.0, 798.0, 798.0, 798.0, 798.0, 798.0, 798.0, 798.0, 798.0, 797.0, 796.0, 795.0, 795.0, 795.0, 795.0, 795.0, 796.0, 795.0, 795.0, 795.0, 795.0, 795.0, 795.0],
      "WindowWidth": [1760.0, 1756.0, 1754.0, 1753.0, 1748.0, 1747.0, 1749.0, 1750.0, 1749.0, 1753.0, 1755.0, 1753.0, 1748.0, 1748.0, 1750.0, 1754.0, 1754.0, 1753.0, 1754.0, 1755.0, 1756.0, 1756.0, 1754.0, 1751.0, 1750.0, 1752.0, 1754.0, 1753.0, 1752.0, 1750.0, 1753.0, 1753.0, 1753.0, 1752.0, 1753.0, 1753.0, 1754.0, 1755.0, 1755.0, 1754.0, 1753.0, 1752.0, 1754.0, 1754.0, 1755.0, 1753.0, 1752.0, 1749.0, 1751.0, 1754.0, 1753.0, 1750.0, 1749.0, 1750.0, 1753.0, 1756.0, 1750.0, 1752.0, 1753.0, 1757.0, 1756.0, 1758.0, 1757.0, 1754.0, 1751.0, 1750.0, 1750.0, 1748.0, 1748.0, 1751.0, 1752.0, 1751.0, 1748.0, 1750.0, 1754.0, 1753.0, 1751.0, 1749.0, 1751.0, 1753.0, 1751.0, 1750.0, 1750.0, 1750.0, 1754.0, 1757.0, 1758.0, 1754.0, 1750.0, 1753.0, 1754.0, 1749.0, 1752.0, 1755.0, 1753.0, 1756.0, 1756.0, 1754.0, 1750.0, 1749.0, 1750.0, 1748.0, 1746.0, 1744.0, 1739.0, 1739.0, 1737.0, 1740.0, 1741.0, 1738.0, 1739.0, 1735.0, 1738.0, 1744.0, 1745.0, 1745.0, 1746.0, 1748.0, 1749.0, 1747.0, 1746.0, 1745.0, 1746.0, 1745.0, 1743.0, 1744.0, 1746.0, 1749.0, 1750.0, 1751.0, 1746.0, 1743.0, 1743.0, 1744.0, 1745.0, 1744.0, 1741.0, 1742.0, 1741.0, 1738.0, 1737.0, 1740.0, 1740.0, 1742.0, 1743.0, 1743.0, 1746.0, 1749.0, 1751.0, 1750.0, 1751.0, 1750.0, 1747.0, 1748.0, 1750.0, 1750.0, 1751.0, 1749.0, 1749.0, 1749.0, 1748.0, 1747.0, 1749.0, 1750.0, 1747.0, 1746.0, 1747.0, 1749.0, 1748.0, 1747.0, 1747.0, 1751.0, 1750.0, 1748.0, 1748.0, 1747.0, 1748.0, 1752.0, 1754.0, 1750.0, 1747.0, 1748.0, 1751.0, 1754.0, 1751.0, 1753.0, 1755.0, 1753.0, 1751.0, 1749.0, 1749.0, 1748.0, 1748.0, 1745.0, 1744.0, 1745.0, 1745.0, 1744.0, 1747.0, 1749.0, 1752.0, 1756.0, 1757.0, 1755.0, 1754.0, 1754.0, 1754.0, 1753.0, 1753.0, 1754.0, 1754.0, 1754.0, 1754.0, 1753.0, 1752.0, 1753.0, 1752.0, 1751.0, 1750.0, 1747.0, 1744.0, 1744.0, 1743.0, 1744.0, 1744.0, 1745.0, 1744.0, 1744.0, 1743.0, 1744.0, 1744.0, 1745.0]
    },
    "slices": {}
  }
}