{
  "AcquisitionMatrixPE": 100,
  "AcquisitionNumber": 1,
  "AcquisitionTime": "10:45:31.597500",
  "BandwidthPerPixelPhaseEncode": 18.519,
  "BaseResolution": 100,
  "BodyPartExamined": "BRAIN",
  "ConsistencyInfo": "N4_VE11C_LATEST_20160120",
  "ConversionSoftware": "dcm2niix",
  "ConversionSoftwareVersion": "v1.0.20180622 GCC4.9.2",
  "DerivedVendorReportedEchoSpacing": 0.000539986,
  "DeviceSerialNumber": "166078",
  "DwellTime": 2.1e-06,
  "EchoTime": 0.034,
  "EchoTrainLength": 100,
  "EffectiveEchoSpacing": 0.000539986,
  "FlipAngle": 90,
  "ImageOrientationPatientDICOM": [0.999672, -0.00623807, -0.0248269, -2.04659e-08, 0.969853, -0.243689],
  "ImageType": [
    "ORIGINAL",
    "PRIMARY",
    "M",
    "ND",
    "MOSAIC"
],
  "InPlanePhaseEncodingDirectionDICOM": "COL",
  "InstitutionAddress": "Street_StreetNo_Bei_Jing_District_CN_ZIP",
  "InstitutionName": "BeiJing_Normal_University",
  "InstitutionalDepartmentName": "Department",
  "MRAcquisitionType": "2D",
  "MagneticFieldStrength": 3,
  "Manufacturer": "Siemens",
  "ManufacturersModelName": "Prisma",
  "Modality": "MR",
  "MultibandAccelerationFactor": 3,
  "PartialFourier": 1,
  "PatientPosition": "HFS",
  "PercentPhaseFOV": 100,
  "PhaseEncodingDirection": "j-",
  "PhaseEncodingSteps": 100,
  "PhaseResolution": 1,
  "PixelBandwidth": 2380,
  "ProcedureStepDescription": "BNU_P2018_64CH_Liu.Jia",
  "ProtocolName": "bold_100x100_s3_2x2x2_232",
  "PulseSequenceDetails": "%SiemensSeq%_ep2d_bold",
  "ReceiveCoilActiveElements": "HC1-7;NC1",
  "ReceiveCoilName": "HeadNeck_64",
  "ReconMatrixPE": 100,
  "RepetitionTime": 2,
  "SAR": 0.0722018,
  "ScanOptions": "FS",
  "ScanningSequence": "EP",
  "SequenceName": "_epfid2d1_100",
  "SequenceVariant": "SK",
  "SeriesDescription": "bold_100x100_s3_2x2x2_232",
  "SeriesNumber": 8,
  "ShimSetting": [-5458, -11444, -1278, 179, 96, -251, -242, 40],
  "SliceThickness": 2,
  "SliceTiming": [1.485, 0, 0.99, 0.0825, 1.0725, 0.165, 1.155, 0.2475, 1.2375, 0.33, 1.32, 0.4125, 1.4025, 0.5775, 1.5675, 0.66, 1.65, 0.7425, 1.7325, 0.825, 1.815, 0.9075, 1.8975, 0.495, 1.485, 0, 0.99, 0.0825, 1.0725, 0.165, 1.155, 0.2475, 1.2375, 0.33, 1.32, 0.4125, 1.4025, 0.5775, 1.5675, 0.66, 1.65, 0.7425, 1.7325, 0.825, 1.815, 0.9075, 1.8975, 0.495, 1.485, 0, 0.99, 0.0825, 1.0725, 0.165, 1.155, 0.2475, 1.2375, 0.33, 1.32, 0.4125, 1.4025, 0.5775, 1.5675, 0.66, 1.65, 0.7425, 1.7325, 0.825, 1.815, 0.9075, 1.8975, 0.495],
  "SoftwareVersions": "syngo_MR_E11",
  "SpacingBetweenSlices": 2,
  "StationName": "AWP166078",
  "TaskName": "motor",
  "TotalReadoutTime": 0.0534586,
  "TxRefAmp": 231.318,
  "dcmmeta_affine": [
    [-1.9993445873260498, -4.093173444630338e-08, -0.05119716376066208, 99.7132568359375],
    [0.012476143427193165, 1.9397069215774536, -0.4872181713581085, -82.57601928710938],
    [-0.04965375363826752, 0.4873778820037842, 1.9390711784362793, -93.16588592529297],
    [0.0, 0.0, 0.0, 1.0]
],
  "dcmmeta_reorient_transform": [
    [0.0, -1.0, 0.0, 99.0],
    [1.0, 0.0, 0.0, 0.0],
    [0.0, 0.0, 1.0, 0.0],
    [0.0, 0.0, 0.0, 1.0]
],
  "dcmmeta_shape": [100, 100, 72, 232],
  "dcmmeta_slice_dim": 2,
  "dcmmeta_version": 0.6,
  "global": {
    "const": {
      "AcquisitionMatrix": [100, 0, 0, 100],
      "AngioFlag": "N",
      "BitsAllocated": 16,
      "BitsStored": 12,
      "BodyPartExamined": "BRAIN",
      "Columns": 900,
      "EchoNumbers": 1,
      "EchoTime": 34.0,
      "EchoTrainLength": 100,
      "FlipAngle": 90.0,
      "HighBit": 11,
      "ImageOrientationPatient": [0.99967230260966, -0.0062380716056, -0.0248268777286, -2.0465868e-08, 0.96985344123401, -0.2436889462544],
      "ImagePositionPatient": [-899.45107740554, -880.34726127737, 169.8971822585],
      "ImageType": [
        "ORIGINAL",
        "PRIMARY",
        "M",
        "ND",
        "MOSAIC"
],
      "ImagedNucleus": "1H",
      "ImagingFrequency": 123.257828,
      "InPlanePhaseEncodingDirection": "COL",
      "MRAcquisitionType": "2D",
      "MagneticFieldStrength": 3.0,
      "Manufacturer": "SIEMENS",
      "ManufacturerModelName": "Prisma",
      "Modality": "MR",
      "NumberOfAverages": 1.0,
      "NumberOfPhaseEncodingSteps": 100,
      "PercentPhaseFieldOfView": 100.0,
      "PercentSampling": 100.0,
      "PerformedProcedureStepStartTime": "101236.173000",
      "PhotometricInterpretation": "MONOCHROME2",
      "PixelBandwidth": 2380.0,
      "PixelRepresentation": 0,
      "PixelSpacing": [2.0, 2.0],
      "ProtocolName": "bold_100x100_s3_2x2x2_232",
      "RepetitionTime": 2000.0,
      "Rows": 900,
      "SAR": 0.07220176047201,
      "SamplesPerPixel": 1,
      "ScanOptions": "FS",
      "ScanningSequence": "EP",
      "SequenceName": "*epfid2d1_100",
      "SequenceVariant": "SK",
      "SeriesDescription": "bold_100x100_s3_2x2x2_232",
      "SeriesNumber": 8,
      "SeriesTime": "104534.091000",
      "SliceLocation": -72.763897347802,
      "SliceThickness": 2.0,
      "SmallestImagePixelValue": 0,
      "SoftwareVersions": "syngo MR E11",
      "SpacingBetweenSlices": 1.9999999720014,
      "SpecificCharacterSet": "ISO_IR 100",
      "StudyID": "1",
      "StudyTime": "101236.099000",
      "TransmitCoilName": "Body",
      "VariableFlipAngleFlag": "N",
      "WindowCenterWidthExplanation": "Algo1",
      "dBdt": 0.0},
    "slices": {}
  },
  "time": {
    "samples": {
      "AcquisitionNumber": [1, 2, 3, 4, 5, 6, 7, 8, 9, 10, 11, 12, 13, 14, 15, 16, 17, 18, 19, 20, 21, 22, 23, 24, 25, 26, 27, 28, 29, 30, 31, 32, 33, 34, 35, 36, 37, 38, 39, 40, 41, 42, 43, 44, 45, 46, 47, 48, 49, 50, 51, 52, 53, 54, 55, 56, 57, 58, 59, 60, 61, 62, 63, 64, 65, 66, 67, 68, 69, 70, 71, 72, 73, 74, 75, 76, 77, 78, 79, 80, 81, 82, 83, 84, 85, 86, 87, 88, 89, 90, 91, 92, 93, 94, 95, 96, 97, 98, 99, 100, 101, 102, 103, 104, 105, 106, 107, 108, 109, 110, 111, 112, 113, 114, 115, 116, 117, 118, 119, 120, 121, 122, 123, 124, 125, 126, 127, 128, 129, 130, 131, 132, 133, 134, 135, 136, 137, 138, 139, 140, 141, 142, 143, 144, 145, 146, 147, 148, 149, 150, 151, 152, 153, 154, 155, 156, 157, 158, 159, 160, 161, 162, 163, 164, 165, 166, 167, 168, 169, 170, 171, 172, 173, 174, 175, 176, 177, 178, 179, 180, 181, 182, 183, 184, 185, 186, 187, 188, 189, 190, 191, 192, 193, 194, 195, 196, 197, 198, 199, 200, 201, 202, 203, 204, 205, 206, 207, 208, 209, 210, 211, 212, 213, 214, 215, 216, 217, 218, 219, 220, 221, 222, 223, 224, 225, 226, 227, 228, 229, 230, 231, 232],
      "AcquisitionTime": ["104531.597500", "104533.597500", "104535.597500", "104537.597500", "104539.597500", "104541.597500", "104543.597500", "104545.597500", "104547.597500", "104549.597500", "104551.597500", "104553.597500", "104555.597500", "104557.597500", "104559.597500", "104601.597500", "104603.597500", "104605.597500", "104607.597500", "104609.597500", "104611.597500", "104613.597500", "104615.597500", "104617.597500", "104619.597500", "104621.597500", "104623.597500", "104625.597500", "104627.597500", "104629.597500", "104631.597500", "104633.597500", "104635.597500", "104637.597500", "104639.597500", "104641.597500", "104643.597500", "104645.597500", "104647.597500", "104649.597500", "104651.597500", "104653.597500", "104655.597500", "104657.597500", "104659.597500", "104701.597500", "104703.597500", "104705.597500", "104707.597500", "104709.597500", "104711.597500", "104713.597500", "104715.597500", "104717.597500", "104719.597500", "104721.597500", "104723.597500", "104725.597500", "104727.597500", "104729.597500", "104731.597500", "104733.597500", "104735.597500", "104737.597500", "104739.597500", "104741.597500", "104743.597500", "104745.597500", "104747.597500", "104749.597500", "104751.597500", "104753.597500", "104755.597500", "104757.597500", "104759.597500", "104801.597500", "104803.597500", "104805.597500", "104807.597500", "104809.597500", "104811.597500", "104813.597500", "104815.597500", "104817.597500", "104819.597500", "104821.597500", "104823.597500", "104825.597500", "104827.597500", "104829.597500", "104831.597500", "104833.597500", "104835.597500", "104837.597500", "104839.597500", "104841.597500", "104843.597500", "104845.597500", "104847.597500", "104849.597500", "104851.597500", "104853.597500", "104855.597500", "104857.597500", "104859.597500", "104901.597500", "104903.597500", "104905.597500", "104907.597500", "104909.597500", "104911.597500", "104913.597500", "104915.597500", "104917.597500", "104919.597500", "104921.597500", "104923.597500", "104925.597500", "104927.597500", "104929.597500", "104931.597500", "104933.597500", "104935.597500", "104937.597500", "104939.597500", "104941.597500", "104943.597500", "104945.597500", "104947.597500", "104949.597500", "104951.597500", "104953.597500", "104955.597500", "104957.597500", "104959.597500", "105001.597500", "105003.597500", "105005.597500", "105007.597500", "105009.597500", "105011.597500", "105013.597500", "105015.597500", "105017.597500", "105019.597500", "105021.597500", "105023.597500", "105025.597500", "105027.597500", "105029.597500", "105031.597500", "105033.597500", "105035.597500", "105037.597500", "105039.597500", "105041.597500", "105043.597500", "105045.597500", "105047.597500", "105049.597500", "105051.597500", "105053.597500", "105055.597500", "105057.597500", "105059.597500", "105101.597500", "105103.597500", "105105.597500", "105107.597500", "105109.597500", "105111.597500", "105113.597500", "105115.597500", "105117.597500", "105119.597500", "105121.597500", "105123.597500", "105125.597500", "105127.597500", "105129.597500", "105131.597500", "105133.597500", "105135.597500", "105137.597500", "105139.597500", "105141.597500", "105143.597500", "105145.597500", "105147.597500", "105149.597500", "105151.597500", "105153.597500", "105155.597500", "105157.597500", "105159.597500", "105201.597500", "105203.597500", "105205.597500", "105207.597500", "105209.597500", "105211.597500", "105213.597500", "105215.597500", "105217.597500", "105219.597500", "105221.597500", "105223.597500", "105225.597500", "105227.597500", "105229.597500", "105231.597500", "105233.597500", "105235.597500", "105237.597500", "105239.597500", "105241.597500", "105243.597500", "105245.597500", "105247.597500", "105249.597500", "105251.597500", "105253.597500", "105255.597500", "105257.597500", "105259.597500", "105301.597500", "105303.597500", "105305.597500", "105307.597500", "105309.597500", "105311.597500", "105313.597500"],
      "ContentTime": ["104534.095000", "104535.590000", "104537.591000", "104539.591000", "104541.592000", "104543.591000", "104545.591000", "104547.591000", "104549.590000", "104551.590000", "104553.591000", "104555.591000", "104557.591000", "104559.592000", "104601.592000", "104603.590000", "104605.590000", "104607.591000", "104609.590000", "104611.590000", "104613.591000", "104615.592000", "104617.592000", "104619.592000", "104621.590000", "104623.591000", "104625.590000", "104627.591000", "104629.591000", "104631.592000", "104633.591000", "104635.591000", "104637.591000", "104639.591000", "104641.590000", "104643.590000", "104645.591000", "104647.591000", "104649.592000", "104651.591000", "104653.591000", "104655.590000", "104657.591000", "104659.591000", "104701.591000", "104703.590000", "104705.592000", "104707.591000", "104709.591000", "104711.591000", "104713.590000", "104715.591000", "104717.590000", "104719.591000", "104721.590000", "104723.591000", "104725.591000", "104727.591000", "104729.592000", "104731.591000", "104733.591000", "104735.591000", "104737.591000", "104739.591000", "104741.591000", "104743.591000", "104745.591000", "104747.591000", "104749.590000", "104751.591000", "104753.590000", "104755.590000", "104757.591000", "104759.591000", "104801.592000", "104803.591000", "104805.591000", "104807.590000", "104809.590000", "104811.591000", "104813.590000", "104815.592000", "104817.591000", "104819.592000", "104821.592000", "104823.591000", "104825.590000", "104827.590000", "104829.591000", "104831.590000", "104833.591000", "104835.592000", "104837.592000", "104839.591000", "104841.591000", "104843.591000", "104845.591000", "104847.590000", "104849.592000", "104851.592000", "104853.592000", "104855.591000", "104857.592000", "104859.590000", "104901.590000", "104903.591000", "104905.591000", "104907.592000", "104909.592000", "104911.592000", "104913.592000", "104915.590000", "104917.591000", "104919.590000", "104921.590000", "104923.590000", "104925.591000", "104927.591000", "104929.591000", "104931.592000", "104933.591000", "104935.590000", "104937.590000", "104939.591000", "104941.590000", "104943.591000", "104945.591000", "104947.592000", "104949.591000", "104951.590000", "104953.590000", "104955.591000", "104957.591000", "104959.591000", "105001.592000", "105003.592000", "105005.592000", "105007.592000", "105009.591000", "105011.591000", "105013.591000", "105015.591000", "105017.591000", "105019.592000", "105021.591000", "105023.592000", "105025.591000", "105027.591000", "105029.591000", "105031.590000", "105033.590000", "105035.591000", "105037.592000", "105039.591000", "105041.592000", "105043.590000", "105045.591000", "105047.590000", "105049.590000", "105051.591000", "105053.592000", "105055.592000", "105057.591000", "105059.591000", "105101.590000", "105103.590000", "105105.590000", "105107.591000", "105109.591000", "105111.592000", "105113.592000", "105115.591000", "105117.591000", "105119.590000", "105121.590000", "105123.590000", "105125.590000", "105127.591000", "105129.591000", "105131.591000", "105133.592000", "105135.590000", "105137.591000", "105139.590000", "105141.590000", "105143.590000", "105145.592000", "105147.591000", "105149.592000", "105151.592000", "105153.591000", "105155.591000", "105157.591000", "105159.590000", "105201.590000", "105203.591000", "105205.591000", "105207.591000", "105209.591000", "105211.590000", "105213.590000", "105215.591000", "105217.590000", "105219.592000", "105221.591000", "105223.591000", "105225.592000", "105227.591000", "105229.591000", "105231.591000", "105233.590000", "105235.591000", "105237.591000", "105239.592000", "105241.592000", "105243.592000", "105245.590000", "105247.591000", "105249.591000", "105251.591000", "105253.591000", "105255.592000", "105257.592000", "105259.591000", "105301.592000", "105303.590000", "105305.591000", "105307.590000", "105309.590000", "105311.591000", "105313.592000", "105315.143000"],
      "InstanceCreationTime": ["104534.095000", "104535.590000", "104537.591000", "104539.591000", "104541.592000", "104543.591000", "104545.591000", "104547.591000", "104549.590000", "104551.590000", "104553.591000", "104555.591000", "104557.591000", "104559.592000", "104601.592000", "104603.590000", "104605.590000", "104607.591000", "104609.590000", "104611.590000", "104613.591000", "104615.592000", "104617.592000", "104619.592000", "104621.590000", "104623.591000", "104625.590000", "104627.591000", "104629.591000", "104631.592000", "104633.591000", "104635.591000", "104637.591000", "104639.591000", "104641.590000", "104643.590000", "104645.591000", "104647.591000", "104649.592000", "104651.591000", "104653.591000", "104655.590000", "104657.591000", "104659.591000", "104701.591000", "104703.590000", "104705.592000", "104707.591000", "104709.591000", "104711.591000", "104713.590000", "104715.591000", "104717.590000", "104719.591000", "104721.590000", "104723.591000", "104725.591000", "104727.591000", "104729.592000", "104731.591000", "104733.591000", "104735.591000", "104737.591000", "104739.591000", "104741.591000", "104743.591000", "104745.591000", "104747.591000", "104749.590000", "104751.591000", "104753.590000", "104755.590000", "104757.591000", "104759.591000", "104801.592000", "104803.591000", "104805.591000", "104807.590000", "104809.590000", "104811.591000", "104813.590000", "104815.592000", "104817.591000", "104819.592000", "104821.592000", "104823.591000", "104825.590000", "104827.590000", "104829.591000", "104831.590000", "104833.591000", "104835.592000", "104837.592000", "104839.591000", "104841.591000", "104843.591000", "104845.591000", "104847.590000", "104849.592000", "104851.592000", "104853.592000", "104855.591000", "104857.592000", "104859.590000", "104901.590000", "104903.591000", "104905.591000", "104907.592000", "104909.592000", "104911.592000", "104913.592000", "104915.590000", "104917.591000", "104919.590000", "104921.590000", "104923.590000", "104925.591000", "104927.591000", "104929.591000", "104931.592000", "104933.591000", "104935.590000", "104937.590000", "104939.591000", "104941.590000", "104943.591000", "104945.591000", "104947.592000", "104949.591000", "104951.590000", "104953.590000", "104955.591000", "104957.591000", "104959.591000", "105001.592000", "105003.592000", "105005.592000", "105007.592000", "105009.591000", "105011.591000", "105013.591000", "105015.591000", "105017.591000", "105019.592000", "105021.591000", "105023.592000", "105025.591000", "105027.591000", "105029.591000", "105031.590000", "105033.590000", "105035.591000", "105037.592000", "105039.591000", "105041.592000", "105043.590000", "105045.591000", "105047.590000", "105049.590000", "105051.591000", "105053.592000", "105055.592000", "105057.591000", "105059.591000", "105101.590000", "105103.590000", "105105.590000", "105107.591000", "105109.591000", "105111.592000", "105113.592000", "105115.591000", "105117.591000", "105119.590000", "105121.590000", "105123.590000", "105125.590000", "105127.591000", "105129.591000", "105131.591000", "105133.592000", "105135.590000", "105137.591000", "105139.590000", "105141.590000", "105143.590000", "105145.592000", "105147.591000", "105149.592000", "105151.592000", "105153.591000", "105155.591000", "105157.591000", "105159.590000", "105201.590000", "105203.591000", "105205.591000", "105207.591000", "105209.591000", "105211.590000", "105213.590000", "105215.591000", "105217.590000", "105219.592000", "105221.591000", "105223.591000", "105225.592000", "105227.591000", "105229.591000", "105231.591000", "105233.590000", "105235.591000", "105237.591000", "105239.592000", "105241.592000", "105243.592000", "105245.590000", "105247.591000", "105249.591000", "105251.591000", "105253.591000", "105255.592000", "105257.592000", "105259.591000", "105301.592000", "105303.590000", "105305.591000", "105307.590000", "105309.590000", "105311.591000", "105313.592000", "105315.143000"],
      "InstanceNumber": [1, 2, 3, 4, 5, 6, 7, 8, 9, 10, 11, 12, 13, 14, 15, 16, 17, 18, 19, 20, 21, 22, 23, 24, 25, 26, 27, 28, 29, 30, 31, 32, 33, 34, 35, 36, 37, 38, 39, 40, 41, 42, 43, 44, 45, 46, 47, 48, 49, 50, 51, 52, 53, 54, 55, 56, 57, 58, 59, 60, 61, 62, 63, 64, 65, 66, 67, 68, 69, 70, 71, 72, 73, 74, 75, 76, 77, 78, 79, 80, 81, 82, 83, 84, 85, 86, 87, 88, 89, 90, 91, 92, 93, 94, 95, 96, 97, 98, 99, 100, 101, 102, 103, 104, 105, 106, 107, 108, 109, 110, 111, 112, 113, 114, 115, 116, 117, 118, 119, 120, 121, 122, 123, 124, 125, 126, 127, 128, 129, 130, 131, 132, 133, 134, 135, 136, 137, 138, 139, 140, 141, 142, 143, 144, 145, 146, 147, 148, 149, 150, 151, 152, 153, 154, 155, 156, 157, 158, 159, 160, 161, 162, 163, 164, 165, 166, 167, 168, 169, 170, 171, 172, 173, 174, 175, 176, 177, 178, 179, 180, 181, 182, 183, 184, 185, 186, 187, 188, 189, 190, 191, 192, 193, 194, 195, 196, 197, 198, 199, 200, 201, 202, 203, 204, 205, 206, 207, 208, 209, 210, 211, 212, 213, 214, 215, 216, 217, 218, 219, 220, 221, 222, 223, 224, 225, 226, 227, 228, 229, 230, 231, 232],
      "LargestImagePixelValue": [3964, 3894, 3872, 3891, 3862, 3859, 3863, 3853, 3899, 3893, 3907, 3867, 3891, 3895, 3907, 3915, 3913, 3907, 3936, 3903, 3925, 3866, 3850, 3923, 3913, 3788, 3806, 3881, 4031, 3798, 3788, 3875, 3881, 3851, 3866, 3921, 3924, 3899, 3955, 3930, 3897, 3897, 3877, 3863, 3859, 3864, 3868, 3857, 3919, 3907, 3851, 3841, 3836, 3900, 3906, 3935, 3940, 3941, 3863, 3931, 3920, 3932, 3939, 3934, 3937, 3905, 4056, 3940, 3955, 4036, 3986, 3923, 3962, 3977, 3970, 3995, 3976, 3958, 3922, 3926, 3948, 3933, 3955, 3944, 3997, 4033, 3903, 3856, 3947, 3923, 3902, 3888, 3828, 3831, 3853, 3935, 3971, 4036, 3922, 3858, 3893, 3976, 3931, 3933, 3933, 3857, 4038, 4052, 3908, 3866, 4054, 3966, 4089, 3911, 3860, 3861, 3852, 3855, 3827, 3872, 3857, 3855, 4089, 3933, 3986, 3992, 3933, 4082, 4000, 3913, 3915, 3758, 3864, 3881, 3932, 3973, 3835, 3876, 3844, 3789, 3858, 3880, 3876, 3856, 3869, 3872, 3856, 3879, 3966, 3908, 3879, 3883, 3918, 3888, 3866, 3831, 3865, 3843, 3869, 3858, 3845, 3821, 3847, 3850, 3867, 3851, 3863, 3884, 3864, 3856, 3832, 3861, 3854, 3846, 3845, 3852, 3843, 3850, 3911, 3906, 3867, 3899, 3884, 3832, 3855, 3855, 3865, 3848, 3874, 3929, 3895, 3869, 3843, 3845, 3882, 3873, 3847, 3880, 3862, 3834, 3882, 3761, 3876, 4041, 3839, 4050, 3973, 3852, 3826, 3850, 3867, 3889, 3859, 3843, 3871, 3854, 3861, 3886, 3873, 3886, 3854, 3864, 3859, 3843, 3852, 3830, 3866, 3821, 3826, 3842, 3850, 3846],
      "WindowCenter": [813.0, 810.0, 809.0, 809.0, 809.0, 810.0, 810.0, 809.0, 809.0, 810.0, 811.0, 812.0, 811.0, 810.0, 809.0, 810.0, 810.0, 810.0, 812.0, 811.0, 811.0, 811.0, 810.0, 812.0, 810.0, 808.0, 808.0, 809.0, 810.0, 809.0, 807.0, 810.0, 810.0, 809.0, 811.0, 812.0, 814.0, 813.0, 813.0, 812.0, 812.0, 812.0, 812.0, 812.0, 811.0, 811.0, 810.0, 811.0, 811.0, 811.0, 812.0, 811.0, 811.0, 811.0, 811.0, 812.0, 811.0, 811.0, 810.0, 810.0, 811.0, 811.0, 811.0, 810.0, 810.0, 811.0, 814.0, 813.0, 810.0, 809.0, 810.0, 809.0, 811.0, 812.0, 813.0, 813.0, 813.0, 812.0, 812.0, 812.0, 812.0, 813.0, 814.0, 813.0, 813.0, 813.0, 812.0, 812.0, 812.0, 812.0, 813.0, 813.0, 812.0, 811.0, 811.0, 812.0, 811.0, 814.0, 812.0, 811.0, 810.0, 811.0, 811.0, 813.0, 811.0, 808.0, 811.0, 808.0, 808.0, 807.0, 810.0, 809.0, 812.0, 810.0, 810.0, 810.0, 811.0, 810.0, 810.0, 809.0, 809.0, 808.0, 810.0, 810.0, 814.0, 810.0, 809.0, 811.0, 811.0, 811.0, 811.0, 810.0, 811.0, 811.0, 811.0, 811.0, 810.0, 811.0, 810.0, 811.0, 811.0, 811.0, 810.0, 810.0, 809.0, 810.0, 811.0, 811.0, 811.0, 810.0, 810.0, 810.0, 810.0, 810.0, 811.0, 812.0, 811.0, 810.0, 810.0, 810.0, 811.0, 811.0, 812.0, 812.0, 811.0, 811.0, 811.0, 811.0, 810.0, 811.0, 811.0, 811.0, 810.0, 809.0, 809.0, 809.0, 809.0, 809.0, 811.0, 812.0, 811.0, 811.0, 810.0, 809.0, 809.0, 809.0, 809.0, 808.0, 809.0, 809.0, 810.0, 809.0, 809.0, 810.0, 812.0, 812.0, 811.0, 811.0, 811.0, 812.0, 812.0, 807.0, 811.0, 811.0, 810.0, 811.0, 812.0, 809.0, 809.0, 809.0, 811.0, 812.0, 813.0, 814.0, 812.0, 811.0, 811.0, 810.0, 811.0, 811.0, 812.0, 812.0, 812.0, 811.0, 810.0, 810.0, 810.0, 810.0, 810.0, 811.0, 810.0, 808.0],
      "WindowWidth": [1785.0, 1776.0, 1773.0, 1773.0, 1772.0, 1775.0, 1775.0, 1773.0, 1772.0, 1776.0, 1779.0, 1780.0, 1779.0, 1777.0, 1774.0, 1774.0, 1776.0, 1775.0, 1780.0, 1777.0, 1779.0, 1778.0, 1776.0, 1781.0, 1776.0, 1769.0, 1770.0, 1773.0, 1775.0, 1772.0, 1768.0, 1775.0, 1775.0, 1773.0, 1777.0, 1780.0, 1786.0, 1783.0, 1783.0, 1781.0, 1781.0, 1780.0, 1780.0, 1779.0, 1777.0, 1777.0, 1776.0, 1777.0, 1778.0, 1778.0, 1779.0, 1778.0, 1777.0, 1778.0, 1779.0, 1780.0, 1779.0, 1777.0, 1774.0, 1776.0, 1777.0, 1778.0, 1777.0, 1776.0, 1775.0, 1778.0, 1785.0, 1782.0, 1776.0, 1774.0, 1775.0, 1774.0, 1777.0, 1780.0, 1784.0, 1785.0, 1784.0, 1782.0, 1780.0, 1779.0, 1782.0, 1783.0, 1785.0, 1784.0, 1785.0, 1784.0, 1781.0, 1780.0, 1780.0, 1780.0, 1783.0, 1783.0, 1779.0, 1777.0, 1777.0, 1780.0, 1778.0, 1786.0, 1780.0, 1778.0, 1774.0, 1777.0, 1779.0, 1782.0, 1778.0, 1768.0, 1777.0, 1770.0, 1771.0, 1767.0, 1775.0, 1771.0, 1782.0, 1773.0, 1773.0, 1775.0, 1776.0, 1775.0, 1773.0, 1772.0, 1772.0, 1770.0, 1776.0, 1776.0, 1785.0, 1775.0, 1772.0, 1777.0, 1778.0, 1777.0, 1778.0, 1774.0, 1775.0, 1775.0, 1776.0, 1777.0, 1773.0, 1776.0, 1775.0, 1777.0, 1777.0, 1776.0, 1774.0, 1773.0, 1773.0, 1776.0, 1776.0, 1777.0, 1778.0, 1775.0, 1774.0, 1775.0, 1774.0, 1773.0, 1776.0, 1779.0, 1776.0, 1773.0, 1774.0, 1775.0, 1776.0, 1777.0, 1778.0, 1778.0, 1776.0, 1777.0, 1778.0, 1776.0, 1773.0, 1776.0, 1775.0, 1775.0, 1773.0, 1770.0, 1771.0, 1771.0, 1771.0, 1772.0, 1777.0, 1780.0, 1776.0, 1775.0, 1774.0, 1772.0, 1772.0, 1771.0, 1772.0, 1770.0, 1771.0, 1772.0, 1772.0, 1771.0, 1771.0, 1775.0, 1779.0, 1778.0, 1775.0, 1775.0, 1777.0, 1779.0, 1779.0, 1764.0, 1775.0, 1778.0, 1773.0, 1776.0, 1780.0, 1770.0, 1772.0, 1772.0, 1775.0, 1779.0, 1780.0, 1783.0, 1780.0, 1776.0, 1776.0, 1773.0, 1775.0, 1776.0, 1780.0, 1779.0, 1779.0, 1776.0, 1773.0, 1773.0, 1773.0, 1772.0, 1773.0, 1775.0, 1773.0, 1768.0]
    },
    "slices": {}
  }
}