{
  "AcquisitionMatrixPE": 100,
  "AcquisitionNumber": 1,
  "AcquisitionTime": "10:54:54.115000",
  "BandwidthPerPixelPhaseEncode": 18.519,
  "BaseResolution": 100,
  "BodyPartExamined": "BRAIN",
  "ConsistencyInfo": "N4_VE11C_LATEST_20160120",
  "ConversionSoftware": "dcm2niix",
  "ConversionSoftwareVersion": "v1.0.20180622 GCC4.9.2",
  "DerivedVendorReportedEchoSpacing": 0.000539986,
  "DeviceSerialNumber": "166078",
  "DwellTime": 2.1e-06,
  "EchoTime": 0.034,
  "EchoTrainLength": 100,
  "EffectiveEchoSpacing": 0.000539986,
  "FlipAngle": 90,
  "ImageOrientationPatientDICOM": [0.999672, -0.00623807, -0.0248269, -2.04659e-08, 0.969853, -0.243689],
  "ImageType": [
    "ORIGINAL",
    "PRIMARY",
    "M",
    "ND",
    "MOSAIC"
],
  "InPlanePhaseEncodingDirectionDICOM": "COL",
  "InstitutionAddress": "Street_StreetNo_Bei_Jing_District_CN_ZIP",
  "InstitutionName": "BeiJing_Normal_University",
  "InstitutionalDepartmentName": "Department",
  "MRAcquisitionType": "2D",
  "MagneticFieldStrength": 3,
  "Manufacturer": "Siemens",
  "ManufacturersModelName": "Prisma",
  "Modality": "MR",
  "MultibandAccelerationFactor": 3,
  "PartialFourier": 1,
  "PatientPosition": "HFS",
  "PercentPhaseFOV": 100,
  "PhaseEncodingDirection": "j-",
  "PhaseEncodingSteps": 100,
  "PhaseResolution": 1,
  "PixelBandwidth": 2380,
  "ProcedureStepDescription": "BNU_P2018_64CH_Liu.Jia",
  "ProtocolName": "bold_100x100_s3_2x2x2_232",
  "PulseSequenceDetails": "%SiemensSeq%_ep2d_bold",
  "ReceiveCoilActiveElements": "HC1-7;NC1",
  "ReceiveCoilName": "HeadNeck_64",
  "ReconMatrixPE": 100,
  "RepetitionTime": 2,
  "SAR": 0.0722018,
  "ScanOptions": "FS",
  "ScanningSequence": "EP",
  "SequenceName": "_epfid2d1_100",
  "SequenceVariant": "SK",
  "SeriesDescription": "bold_100x100_s3_2x2x2_232",
  "SeriesNumber": 9,
  "ShimSetting": [-5458, -11444, -1278, 179, 96, -251, -242, 40],
  "SliceThickness": 2,
  "SliceTiming": [1.485, 0, 0.99, 0.0825, 1.0725, 0.165, 1.155, 0.2475, 1.2375, 0.33, 1.32, 0.4125, 1.4025, 0.5775, 1.5675, 0.66, 1.65, 0.7425, 1.7325, 0.825, 1.815, 0.9075, 1.8975, 0.495, 1.485, 0, 0.99, 0.0825, 1.0725, 0.165, 1.155, 0.2475, 1.2375, 0.33, 1.32, 0.4125, 1.4025, 0.5775, 1.5675, 0.66, 1.65, 0.7425, 1.7325, 0.825, 1.815, 0.9075, 1.8975, 0.495, 1.485, 0, 0.99, 0.0825, 1.0725, 0.165, 1.155, 0.2475, 1.2375, 0.33, 1.32, 0.4125, 1.4025, 0.5775, 1.5675, 0.66, 1.65, 0.7425, 1.7325, 0.825, 1.815, 0.9075, 1.8975, 0.495],
  "SoftwareVersions": "syngo_MR_E11",
  "SpacingBetweenSlices": 2,
  "StationName": "AWP166078",
  "TaskName": "motor",
  "TotalReadoutTime": 0.0534586,
  "TxRefAmp": 231.318,
  "dcmmeta_affine": [
    [-1.9993445873260498, -4.093173444630338e-08, -0.05119716376066208, 99.7132568359375],
    [0.012476143427193165, 1.9397069215774536, -0.4872181713581085, -82.57601928710938],
    [-0.04965375363826752, 0.4873778820037842, 1.9390711784362793, -93.16588592529297],
    [0.0, 0.0, 0.0, 1.0]
],
  "dcmmeta_reorient_transform": [
    [0.0, -1.0, 0.0, 99.0],
    [1.0, 0.0, 0.0, 0.0],
    [0.0, 0.0, 1.0, 0.0],
    [0.0, 0.0, 0.0, 1.0]
],
  "dcmmeta_shape": [100, 100, 72, 232],
  "dcmmeta_slice_dim": 2,
  "dcmmeta_version": 0.6,
  "global": {
    "const": {
      "AcquisitionMatrix": [100, 0, 0, 100],
      "AngioFlag": "N",
      "BitsAllocated": 16,
      "BitsStored": 12,
      "BodyPartExamined": "BRAIN",
      "Columns": 900,
      "EchoNumbers": 1,
      "EchoTime": 34.0,
      "EchoTrainLength": 100,
      "FlipAngle": 90.0,
      "HighBit": 11,
      "ImageOrientationPatient": [0.99967230260966, -0.0062380716056, -0.0248268777286, -2.0465868e-08, 0.96985344123401, -0.2436889462544],
      "ImagePositionPatient": [-899.45107740554, -880.34726127737, 169.8971822585],
      "ImageType": [
        "ORIGINAL",
        "PRIMARY",
        "M",
        "ND",
        "MOSAIC"
],
      "ImagedNucleus": "1H",
      "ImagingFrequency": 123.257834,
      "InPlanePhaseEncodingDirection": "COL",
      "MRAcquisitionType": "2D",
      "MagneticFieldStrength": 3.0,
      "Manufacturer": "SIEMENS",
      "ManufacturerModelName": "Prisma",
      "Modality": "MR",
      "NumberOfAverages": 1.0,
      "NumberOfPhaseEncodingSteps": 100,
      "PercentPhaseFieldOfView": 100.0,
      "PercentSampling": 100.0,
      "PerformedProcedureStepStartTime": "101236.173000",
      "PhotometricInterpretation": "MONOCHROME2",
      "PixelBandwidth": 2380.0,
      "PixelRepresentation": 0,
      "PixelSpacing": [2.0, 2.0],
      "ProtocolName": "bold_100x100_s3_2x2x2_232",
      "RepetitionTime": 2000.0,
      "Rows": 900,
      "SAR": 0.07220176047201,
      "SamplesPerPixel": 1,
      "ScanOptions": "FS",
      "ScanningSequence": "EP",
      "SequenceName": "*epfid2d1_100",
      "SequenceVariant": "SK",
      "SeriesDescription": "bold_100x100_s3_2x2x2_232",
      "SeriesNumber": 9,
      "SeriesTime": "105456.414000",
      "SliceLocation": -72.763897347802,
      "SliceThickness": 2.0,
      "SmallestImagePixelValue": 0,
      "SoftwareVersions": "syngo MR E11",
      "SpacingBetweenSlices": 1.9999999720014,
      "SpecificCharacterSet": "ISO_IR 100",
      "StudyID": "1",
      "StudyTime": "101236.099000",
      "TransmitCoilName": "Body",
      "VariableFlipAngleFlag": "N",
      "WindowCenterWidthExplanation": "Algo1",
      "dBdt": 0.0},
    "slices": {}
  },
  "time": {
    "samples": {
      "AcquisitionNumber": [1, 2, 3, 4, 5, 6, 7, 8, 9, 10, 11, 12, 13, 14, 15, 16, 17, 18, 19, 20, 21, 22, 23, 24, 25, 26, 27, 28, 29, 30, 31, 32, 33, 34, 35, 36, 37, 38, 39, 40, 41, 42, 43, 44, 45, 46, 47, 48, 49, 50, 51, 52, 53, 54, 55, 56, 57, 58, 59, 60, 61, 62, 63, 64, 65, 66, 67, 68, 69, 70, 71, 72, 73, 74, 75, 76, 77, 78, 79, 80, 81, 82, 83, 84, 85, 86, 87, 88, 89, 90, 91, 92, 93, 94, 95, 96, 97, 98, 99, 100, 101, 102, 103, 104, 105, 106, 107, 108, 109, 110, 111, 112, 113, 114, 115, 116, 117, 118, 119, 120, 121, 122, 123, 124, 125, 126, 127, 128, 129, 130, 131, 132, 133, 134, 135, 136, 137, 138, 139, 140, 141, 142, 143, 144, 145, 146, 147, 148, 149, 150, 151, 152, 153, 154, 155, 156, 157, 158, 159, 160, 161, 162, 163, 164, 165, 166, 167, 168, 169, 170, 171, 172, 173, 174, 175, 176, 177, 178, 179, 180, 181, 182, 183, 184, 185, 186, 187, 188, 189, 190, 191, 192, 193, 194, 195, 196, 197, 198, 199, 200, 201, 202, 203, 204, 205, 206, 207, 208, 209, 210, 211, 212, 213, 214, 215, 216, 217, 218, 219, 220, 221, 222, 223, 224, 225, 226, 227, 228, 229, 230, 231, 232],
      "AcquisitionTime": ["105454.115000", "105456.115000", "105458.115000", "105500.115000", "105502.115000", "105504.115000", "105506.115000", "105508.115000", "105510.115000", "105512.115000", "105514.115000", "105516.115000", "105518.115000", "105520.115000", "105522.115000", "105524.115000", "105526.115000", "105528.115000", "105530.115000", "105532.115000", "105534.115000", "105536.115000", "105538.115000", "105540.115000", "105542.115000", "105544.115000", "105546.115000", "105548.115000", "105550.115000", "105552.115000", "105554.115000", "105556.115000", "105558.115000", "105600.115000", "105602.115000", "105604.115000", "105606.115000", "105608.115000", "105610.115000", "105612.115000", "105614.115000", "105616.115000", "105618.115000", "105620.115000", "105622.115000", "105624.115000", "105626.115000", "105628.115000", "105630.115000", "105632.115000", "105634.115000", "105636.115000", "105638.115000", "105640.115000", "105642.115000", "105644.115000", "105646.115000", "105648.115000", "105650.115000", "105652.115000", "105654.115000", "105656.115000", "105658.115000", "105700.115000", "105702.115000", "105704.115000", "105706.115000", "105708.115000", "105710.115000", "105712.115000", "105714.115000", "105716.115000", "105718.115000", "105720.115000", "105722.115000", "105724.115000", "105726.115000", "105728.115000", "105730.115000", "105732.115000", "105734.115000", "105736.115000", "105738.115000", "105740.115000", "105742.115000", "105744.115000", "105746.115000", "105748.115000", "105750.115000", "105752.115000", "105754.115000", "105756.115000", "105758.115000", "105800.115000", "105802.115000", "105804.115000", "105806.115000", "105808.115000", "105810.115000", "105812.115000", "105814.115000", "105816.115000", "105818.115000", "105820.115000", "105822.115000", "105824.115000", "105826.115000", "105828.115000", "105830.115000", "105832.115000", "105834.115000", "105836.115000", "105838.115000", "105840.115000", "105842.115000", "105844.115000", "105846.115000", "105848.115000", "105850.115000", "105852.115000", "105854.115000", "105856.115000", "105858.115000", "105900.115000", "105902.115000", "105904.115000", "105906.115000", "105908.115000", "105910.115000", "105912.115000", "105914.115000", "105916.115000", "105918.115000", "105920.115000", "105922.115000", "105924.115000", "105926.115000", "105928.115000", "105930.115000", "105932.115000", "105934.115000", "105936.115000", "105938.115000", "105940.115000", "105942.115000", "105944.115000", "105946.115000", "105948.115000", "105950.115000", "105952.115000", "105954.115000", "105956.115000", "105958.115000", "110000.115000", "110002.115000", "110004.115000", "110006.115000", "110008.115000", "110010.115000", "110012.115000", "110014.115000", "110016.115000", "110018.115000", "110020.115000", "110022.115000", "110024.115000", "110026.115000", "110028.115000", "110030.115000", "110032.115000", "110034.115000", "110036.115000", "110038.115000", "110040.115000", "110042.115000", "110044.115000", "110046.115000", "110048.115000", "110050.115000", "110052.115000", "110054.115000", "110056.115000", "110058.115000", "110100.115000", "110102.115000", "110104.115000", "110106.115000", "110108.115000", "110110.115000", "110112.115000", "110114.115000", "110116.115000", "110118.115000", "110120.115000", "110122.115000", "110124.115000", "110126.115000", "110128.115000", "110130.115000", "110132.115000", "110134.115000", "110136.115000", "110138.115000", "110140.115000", "110142.115000", "110144.115000", "110146.115000", "110148.115000", "110150.115000", "110152.115000", "110154.115000", "110156.115000", "110158.115000", "110200.115000", "110202.115000", "110204.115000", "110206.115000", "110208.115000", "110210.115000", "110212.115000", "110214.115000", "110216.115000", "110218.115000", "110220.115000", "110222.115000", "110224.115000", "110226.115000", "110228.115000", "110230.115000", "110232.115000", "110234.115000", "110236.115000"],
      "ContentTime": ["105456.417000", "105457.914000", "105459.914000", "105501.913000", "105503.914000", "105505.913000", "105507.914000", "105509.913000", "105511.913000", "105513.913000", "105515.914000", "105517.915000", "105519.914000", "105521.913000", "105523.913000", "105525.913000", "105527.913000", "105529.914000", "105531.915000", "105533.914000", "105535.914000", "105537.913000", "105539.913000", "105541.913000", "105543.913000", "105545.913000", "105547.914000", "105549.914000", "105551.914000", "105553.913000", "105555.914000", "105557.913000", "105559.913000", "105601.914000", "105603.913000", "105605.913000", "105607.914000", "105609.914000", "105611.914000", "105613.913000", "105615.913000", "105617.914000", "105619.914000", "105621.914000", "105623.913000", "105625.914000", "105627.914000", "105629.913000", "105631.913000", "105633.913000", "105635.914000", "105637.913000", "105639.914000", "105641.914000", "105643.914000", "105645.914000", "105647.914000", "105649.913000", "105651.913000", "105653.913000", "105655.914000", "105657.913000", "105659.914000", "105701.914000", "105703.914000", "105705.913000", "105707.913000", "105709.914000", "105711.913000", "105713.914000", "105715.913000", "105717.914000", "105719.915000", "105721.914000", "105723.914000", "105725.914000", "105727.913000", "105729.913000", "105731.913000", "105733.915000", "105735.915000", "105737.914000", "105739.913000", "105741.913000", "105743.913000", "105745.913000", "105747.913000", "105749.913000", "105751.914000", "105753.914000", "105755.914000", "105757.914000", "105759.913000", "105801.913000", "105803.913000", "105805.914000", "105807.913000", "105809.914000", "105811.914000", "105813.913000", "105815.914000", "105817.913000", "105819.913000", "105821.913000", "105823.913000", "105825.914000", "105827.914000", "105829.915000", "105831.913000", "105833.914000", "105835.913000", "105837.914000", "105839.913000", "105841.913000", "105843.915000", "105845.914000", "105847.914000", "105849.913000", "105851.914000", "105853.914000", "105855.913000", "105857.913000", "105859.914000", "105901.915000", "105903.915000", "105905.914000", "105907.913000", "105909.914000", "105911.913000", "105913.913000", "105915.913000", "105917.913000", "105919.915000", "105921.914000", "105923.913000", "105925.914000", "105927.913000", "105929.914000", "105931.913000", "105933.913000", "105935.914000", "105937.915000", "105939.914000", "105941.913000", "105943.913000", "105945.913000", "105947.913000", "105949.913000", "105951.913000", "105953.914000", "105955.914000", "105957.914000", "105959.913000", "110001.913000", "110003.914000", "110005.913000", "110007.913000", "110009.913000", "110011.915000", "110013.915000", "110015.914000", "110017.913000", "110019.913000", "110021.914000", "110023.913000", "110025.914000", "110027.913000", "110029.915000", "110031.915000", "110033.913000", "110035.914000", "110037.913000", "110039.913000", "110041.914000", "110043.913000", "110045.913000", "110047.914000", "110049.914000", "110051.914000", "110053.913000", "110055.913000", "110057.913000", "110059.914000", "110101.913000", "110103.914000", "110105.914000", "110107.915000", "110109.913000", "110111.913000", "110113.913000", "110115.913000", "110117.914000", "110119.914000", "110121.914000", "110123.914000", "110125.914000", "110127.913000", "110129.913000", "110131.913000", "110133.914000", "110135.913000", "110137.914000", "110139.915000", "110141.915000", "110143.913000", "110145.914000", "110147.914000", "110149.914000", "110151.913000", "110153.914000", "110155.914000", "110157.915000", "110159.915000", "110201.913000", "110203.914000", "110205.914000", "110207.914000", "110209.913000", "110211.913000", "110213.914000", "110215.914000", "110217.914000", "110219.914000", "110221.913000", "110223.913000", "110225.913000", "110227.913000", "110229.914000", "110231.914000", "110233.914000", "110235.913000", "110237.473000"],
      "InstanceCreationTime": ["105456.417000", "105457.914000", "105459.914000", "105501.913000", "105503.914000", "105505.913000", "105507.914000", "105509.913000", "105511.913000", "105513.913000", "105515.914000", "105517.915000", "105519.914000", "105521.913000", "105523.913000", "105525.913000", "105527.913000", "105529.914000", "105531.915000", "105533.914000", "105535.914000", "105537.913000", "105539.913000", "105541.913000", "105543.913000", "105545.913000", "105547.914000", "105549.914000", "105551.914000", "105553.913000", "105555.914000", "105557.913000", "105559.913000", "105601.914000", "105603.913000", "105605.913000", "105607.914000", "105609.914000", "105611.914000", "105613.913000", "105615.913000", "105617.914000", "105619.914000", "105621.914000", "105623.913000", "105625.914000", "105627.914000", "105629.913000", "105631.913000", "105633.913000", "105635.914000", "105637.913000", "105639.914000", "105641.914000", "105643.914000", "105645.914000", "105647.914000", "105649.913000", "105651.913000", "105653.913000", "105655.914000", "105657.913000", "105659.914000", "105701.914000", "105703.914000", "105705.913000", "105707.913000", "105709.914000", "105711.913000", "105713.914000", "105715.913000", "105717.914000", "105719.915000", "105721.914000", "105723.914000", "105725.914000", "105727.913000", "105729.913000", "105731.913000", "105733.915000", "105735.915000", "105737.914000", "105739.913000", "105741.913000", "105743.913000", "105745.913000", "105747.913000", "105749.913000", "105751.914000", "105753.914000", "105755.914000", "105757.914000", "105759.913000", "105801.913000", "105803.913000", "105805.914000", "105807.913000", "105809.914000", "105811.914000", "105813.913000", "105815.914000", "105817.913000", "105819.913000", "105821.913000", "105823.913000", "105825.914000", "105827.914000", "105829.915000", "105831.913000", "105833.914000", "105835.913000", "105837.914000", "105839.913000", "105841.913000", "105843.915000", "105845.914000", "105847.914000", "105849.913000", "105851.914000", "105853.914000", "105855.913000", "105857.913000", "105859.914000", "105901.915000", "105903.915000", "105905.914000", "105907.913000", "105909.914000", "105911.913000", "105913.913000", "105915.913000", "105917.913000", "105919.915000", "105921.914000", "105923.913000", "105925.914000", "105927.913000", "105929.914000", "105931.913000", "105933.913000", "105935.914000", "105937.915000", "105939.914000", "105941.913000", "105943.913000", "105945.913000", "105947.913000", "105949.913000", "105951.913000", "105953.914000", "105955.914000", "105957.914000", "105959.913000", "110001.913000", "110003.914000", "110005.913000", "110007.913000", "110009.913000", "110011.915000", "110013.915000", "110015.914000", "110017.913000", "110019.913000", "110021.914000", "110023.913000", "110025.914000", "110027.913000", "110029.915000", "110031.915000", "110033.913000", "110035.914000", "110037.913000", "110039.913000", "110041.914000", "110043.913000", "110045.913000", "110047.914000", "110049.914000", "110051.914000", "110053.913000", "110055.913000", "110057.913000", "110059.914000", "110101.913000", "110103.914000", "110105.914000", "110107.915000", "110109.913000", "110111.913000", "110113.913000", "110115.913000", "110117.914000", "110119.914000", "110121.914000", "110123.914000", "110125.914000", "110127.913000", "110129.913000", "110131.913000", "110133.914000", "110135.913000", "110137.914000", "110139.915000", "110141.915000", "110143.913000", "110145.914000", "110147.914000", "110149.914000", "110151.913000", "110153.914000", "110155.914000", "110157.915000", "110159.915000", "110201.913000", "110203.914000", "110205.914000", "110207.914000", "110209.913000", "110211.913000", "110213.914000", "110215.914000", "110217.914000", "110219.914000", "110221.913000", "110223.913000", "110225.913000", "110227.913000", "110229.914000", "110231.914000", "110233.914000", "110235.913000", "110237.473000"],
      "InstanceNumber": [1, 2, 3, 4, 5, 6, 7, 8, 9, 10, 11, 12, 13, 14, 15, 16, 17, 18, 19, 20, 21, 22, 23, 24, 25, 26, 27, 28, 29, 30, 31, 32, 33, 34, 35, 36, 37, 38, 39, 40, 41, 42, 43, 44, 45, 46, 47, 48, 49, 50, 51, 52, 53, 54, 55, 56, 57, 58, 59, 60, 61, 62, 63, 64, 65, 66, 67, 68, 69, 70, 71, 72, 73, 74, 75, 76, 77, 78, 79, 80, 81, 82, 83, 84, 85, 86, 87, 88, 89, 90, 91, 92, 93, 94, 95, 96, 97, 98, 99, 100, 101, 102, 103, 104, 105, 106, 107, 108, 109, 110, 111, 112, 113, 114, 115, 116, 117, 118, 119, 120, 121, 122, 123, 124, 125, 126, 127, 128, 129, 130, 131, 132, 133, 134, 135, 136, 137, 138, 139, 140, 141, 142, 143, 144, 145, 146, 147, 148, 149, 150, 151, 152, 153, 154, 155, 156, 157, 158, 159, 160, 161, 162, 163, 164, 165, 166, 167, 168, 169, 170, 171, 172, 173, 174, 175, 176, 177, 178, 179, 180, 181, 182, 183, 184, 185, 186, 187, 188, 189, 190, 191, 192, 193, 194, 195, 196, 197, 198, 199, 200, 201, 202, 203, 204, 205, 206, 207, 208, 209, 210, 211, 212, 213, 214, 215, 216, 217, 218, 219, 220, 221, 222, 223, 224, 225, 226, 227, 228, 229, 230, 231, 232],
      "LargestImagePixelValue": [4003, 3837, 3885, 3885, 3883, 3917, 3899, 3879, 3870, 3893, 3879, 3777, 4041, 3815, 3882, 3898, 3856, 3851, 3873, 3902, 3924, 3900, 3852, 3910, 3889, 3917, 3891, 3887, 3932, 3932, 3921, 3952, 3890, 3889, 3839, 3850, 3940, 3928, 3862, 3866, 3859, 3822, 3837, 3902, 3917, 3910, 3844, 3910, 3879, 3923, 3916, 3943, 3851, 3867, 3891, 4009, 3891, 3976, 3900, 3913, 3884, 3900, 3865, 3884, 3921, 3873, 3879, 3887, 3875, 3863, 3899, 3910, 3915, 3836, 3894, 3915, 3928, 3880, 3888, 3873, 3868, 3902, 3868, 3934, 3860, 3857, 3901, 3885, 3867, 3834, 3889, 3921, 3849, 3856, 3911, 3904, 3866, 3875, 3915, 3891, 3891, 3911, 3921, 3900, 3917, 3873, 3832, 3898, 3841, 3890, 3962, 3929, 3972, 3884, 3857, 3858, 3847, 3865, 3890, 3857, 3870, 3962, 4003, 3888, 3892, 3874, 3884, 3936, 3915, 3848, 3905, 3887, 3819, 3855, 3816, 3833, 3830, 3841, 3901, 3844, 3821, 3827, 3853, 3814, 3888, 3835, 3806, 3875, 3867, 3822, 3828, 3818, 3816, 3843, 3851, 3839, 3819, 3834, 3853, 3801, 3829, 3825, 3852, 3822, 3784, 3831, 3827, 3833, 3817, 3817, 3806, 3835, 3824, 3805, 3803, 3799, 3829, 3871, 3870, 3928, 3842, 3852, 3824, 3848, 3859, 3935, 3853, 3876, 3928, 3851, 3922, 3916, 3914, 3893, 3907, 3977, 3852, 3888, 3876, 3873, 3861, 3880, 3868, 3896, 3867, 3822, 3884, 3873, 3877, 3916, 3870, 3832, 3824, 3865, 3835, 3834, 3843, 3816, 3786, 3763, 3695, 3958, 3888, 3822, 3814, 3810, 3829, 3855, 3865, 3839, 3805, 3822],
      "WindowCenter": [812.0, 809.0, 809.0, 809.0, 809.0, 810.0, 809.0, 809.0, 810.0, 810.0, 809.0, 807.0, 809.0, 807.0, 806.0, 808.0, 811.0, 810.0, 812.0, 813.0, 813.0, 812.0, 811.0, 811.0, 811.0, 811.0, 811.0, 810.0, 810.0, 810.0, 809.0, 810.0, 809.0, 809.0, 809.0, 809.0, 810.0, 809.0, 807.0, 807.0, 808.0, 807.0, 812.0, 811.0, 809.0, 808.0, 808.0, 809.0, 809.0, 810.0, 809.0, 810.0, 810.0, 809.0, 809.0, 809.0, 808.0, 810.0, 809.0, 809.0, 809.0, 809.0, 809.0, 809.0, 809.0, 809.0, 811.0, 811.0, 811.0, 810.0, 811.0, 813.0, 813.0, 812.0, 813.0, 812.0, 811.0, 811.0, 810.0, 811.0, 811.0, 812.0, 810.0, 810.0, 810.0, 810.0, 811.0, 811.0, 811.0, 811.0, 812.0, 813.0, 812.0, 812.0, 814.0, 813.0, 810.0, 810.0, 810.0, 811.0, 811.0, 811.0, 811.0, 810.0, 808.0, 805.0, 808.0, 809.0, 809.0, 811.0, 813.0, 811.0, 811.0, 810.0, 810.0, 811.0, 810.0, 810.0, 810.0, 811.0, 811.0, 812.0, 813.0, 812.0, 813.0, 813.0, 813.0, 808.0, 811.0, 810.0, 811.0, 812.0, 810.0, 809.0, 809.0, 809.0, 809.0, 808.0, 810.0, 809.0, 810.0, 810.0, 810.0, 809.0, 810.0, 808.0, 811.0, 811.0, 810.0, 809.0, 808.0, 808.0, 809.0, 809.0, 810.0, 810.0, 809.0, 808.0, 809.0, 808.0, 809.0, 810.0, 811.0, 812.0, 811.0, 810.0, 810.0, 810.0, 811.0, 811.0, 810.0, 809.0, 810.0, 812.0, 813.0, 811.0, 810.0, 811.0, 809.0, 810.0, 812.0, 812.0, 809.0, 808.0, 808.0, 811.0, 811.0, 812.0, 812.0, 810.0, 811.0, 810.0, 810.0, 810.0, 812.0, 812.0, 814.0, 812.0, 810.0, 809.0, 810.0, 812.0, 812.0, 812.0, 811.0, 810.0, 811.0, 810.0, 809.0, 811.0, 811.0, 811.0, 811.0, 811.0, 810.0, 810.0, 809.0, 810.0, 809.0, 806.0, 806.0, 809.0, 810.0, 807.0, 810.0, 809.0, 809.0, 809.0, 810.0, 810.0, 811.0, 811.0],
      "WindowWidth": [1781.0, 1773.0, 1773.0, 1771.0, 1771.0, 1774.0, 1773.0, 1773.0, 1774.0, 1775.0, 1771.0, 1765.0, 1772.0, 1765.0, 1764.0, 1769.0, 1778.0, 1774.0, 1780.0, 1781.0, 1781.0, 1779.0, 1778.0, 1777.0, 1777.0, 1778.0, 1777.0, 1775.0, 1776.0, 1773.0, 1772.0, 1774.0, 1773.0, 1772.0, 1770.0, 1773.0, 1774.0, 1771.0, 1766.0, 1766.0, 1769.0, 1770.0, 1780.0, 1778.0, 1772.0, 1769.0, 1769.0, 1772.0, 1772.0, 1775.0, 1770.0, 1775.0, 1773.0, 1771.0, 1770.0, 1773.0, 1770.0, 1775.0, 1771.0, 1772.0, 1772.0, 1771.0, 1772.0, 1771.0, 1772.0, 1772.0, 1777.0, 1778.0, 1777.0, 1775.0, 1777.0, 1783.0, 1783.0, 1779.0, 1783.0, 1780.0, 1778.0, 1776.0, 1775.0, 1776.0, 1777.0, 1778.0, 1775.0, 1773.0, 1772.0, 1774.0, 1775.0, 1776.0, 1777.0, 1776.0, 1780.0, 1782.0, 1779.0, 1779.0, 1785.0, 1781.0, 1774.0, 1773.0, 1775.0, 1778.0, 1776.0, 1777.0, 1777.0, 1774.0, 1769.0, 1761.0, 1769.0, 1772.0, 1771.0, 1778.0, 1783.0, 1777.0, 1779.0, 1773.0, 1774.0, 1775.0, 1773.0, 1774.0, 1775.0, 1775.0, 1775.0, 1778.0, 1782.0, 1779.0, 1781.0, 1782.0, 1782.0, 1769.0, 1778.0, 1773.0, 1777.0, 1778.0, 1773.0, 1771.0, 1771.0, 1772.0, 1771.0, 1767.0, 1773.0, 1771.0, 1774.0, 1773.0, 1773.0, 1770.0, 1774.0, 1769.0, 1775.0, 1776.0, 1774.0, 1770.0, 1769.0, 1768.0, 1770.0, 1770.0, 1773.0, 1774.0, 1770.0, 1768.0, 1770.0, 1769.0, 1771.0, 1774.0, 1776.0, 1777.0, 1775.0, 1774.0, 1773.0, 1774.0, 1777.0, 1775.0, 1772.0, 1771.0, 1773.0, 1778.0, 1781.0, 1776.0, 1772.0, 1776.0, 1772.0, 1773.0, 1780.0, 1779.0, 1772.0, 1768.0, 1768.0, 1776.0, 1777.0, 1779.0, 1779.0, 1775.0, 1775.0, 1774.0, 1774.0, 1774.0, 1779.0, 1780.0, 1783.0, 1778.0, 1773.0, 1772.0, 1774.0, 1779.0, 1779.0, 1780.0, 1776.0, 1775.0, 1776.0, 1774.0, 1772.0, 1777.0, 1777.0, 1776.0, 1776.0, 1776.0, 1773.0, 1773.0, 1771.0, 1773.0, 1771.0, 1762.0, 1763.0, 1771.0, 1774.0, 1765.0, 1773.0, 1771.0, 1769.0, 1771.0, 1772.0, 1774.0, 1775.0, 1776.0]
    },
    "slices": {}
  }
}