{
  "AcquisitionMatrixPE": 100,
  "AcquisitionNumber": 1,
  "AcquisitionTime": "13:05:49.720000",
  "BandwidthPerPixelPhaseEncode": 18.519,
  "BaseResolution": 100,
  "BodyPartExamined": "BRAIN",
  "ConsistencyInfo": "N4_VE11C_LATEST_20160120",
  "ConversionSoftware": "dcm2niix",
  "ConversionSoftwareVersion": "v1.0.20180622 GCC4.9.2",
  "DerivedVendorReportedEchoSpacing": 0.000539986,
  "DeviceSerialNumber": "166078",
  "DwellTime": 2.1e-06,
  "EchoTime": 0.034,
  "EchoTrainLength": 100,
  "EffectiveEchoSpacing": 0.000539986,
  "FlipAngle": 90,
  "ImageOrientationPatientDICOM": [0.998888, 0.0128091, -0.0453663, -0.0209237, 0.982853, -0.183198],
  "ImageType": [
    "ORIGINAL",
    "PRIMARY",
    "M",
    "ND",
    "MOSAIC"
],
  "InPlanePhaseEncodingDirectionDICOM": "COL",
  "InstitutionAddress": "Street_StreetNo_Bei_Jing_District_CN_ZIP",
  "InstitutionName": "BeiJing_Normal_University",
  "InstitutionalDepartmentName": "Department",
  "MRAcquisitionType": "2D",
  "MagneticFieldStrength": 3,
  "Manufacturer": "Siemens",
  "ManufacturersModelName": "Prisma",
  "Modality": "MR",
  "MultibandAccelerationFactor": 3,
  "PartialFourier": 1,
  "PatientPosition": "HFS",
  "PercentPhaseFOV": 100,
  "PhaseEncodingDirection": "j-",
  "PhaseEncodingSteps": 100,
  "PhaseResolution": 1,
  "PixelBandwidth": 2380,
  "ProcedureStepDescription": "BNU_P2018_64CH_Liu.Jia",
  "ProtocolName": "bold_100x100_s3_2x2x2_232",
  "PulseSequenceDetails": "%SiemensSeq%_ep2d_bold",
  "ReceiveCoilActiveElements": "HC1-7;NC1",
  "ReceiveCoilName": "HeadNeck_64",
  "ReconMatrixPE": 100,
  "RepetitionTime": 2,
  "SAR": 0.0809563,
  "ScanOptions": "FS",
  "ScanningSequence": "EP",
  "SequenceName": "_epfid2d1_100",
  "SequenceVariant": "SK",
  "SeriesDescription": "bold_100x100_s3_2x2x2_232",
  "SeriesNumber": 8,
  "ShimSetting": [-5487, -11493, -1261, 371, -57, -188, -114, 122],
  "SliceThickness": 2,
  "SliceTiming": [1.485, 0, 0.99, 0.0825, 1.0725, 0.165, 1.155, 0.2475, 1.2375, 0.33, 1.32, 0.4125, 1.4025, 0.5775, 1.5675, 0.66, 1.65, 0.7425, 1.7325, 0.825, 1.815, 0.9075, 1.8975, 0.495, 1.485, 0, 0.99, 0.0825, 1.0725, 0.165, 1.155, 0.2475, 1.2375, 0.33, 1.32, 0.4125, 1.4025, 0.5775, 1.5675, 0.66, 1.65, 0.7425, 1.7325, 0.825, 1.815, 0.9075, 1.8975, 0.495, 1.485, 0, 0.99, 0.0825, 1.0725, 0.165, 1.155, 0.2475, 1.2375, 0.33, 1.32, 0.4125, 1.4025, 0.5775, 1.5675, 0.66, 1.65, 0.7425, 1.7325, 0.825, 1.815, 0.9075, 1.8975, 0.495],
  "SoftwareVersions": "syngo_MR_E11",
  "SpacingBetweenSlices": 2,
  "StationName": "AWP166078",
  "TaskName": "motor",
  "TotalReadoutTime": 0.0534586,
  "TxRefAmp": 231.205,
  "dcmmeta_affine": [
    [-1.9977766275405884, -0.04184741526842117, -0.08448369055986404, 104.87811279296875],
    [-0.02561810612678528, 1.9657065868377686, -0.3678874671459198, -79.38216400146484],
    [-0.090732641518116, 0.36639630794525146, 1.9640573263168335, -82.52085876464844],
    [0.0, 0.0, 0.0, 1.0]
],
  "dcmmeta_reorient_transform": [
    [0.0, -1.0, 0.0, 99.0],
    [1.0, 0.0, 0.0, 0.0],
    [0.0, 0.0, 1.0, 0.0],
    [0.0, 0.0, 0.0, 1.0]
],
  "dcmmeta_shape": [100, 100, 72, 232],
  "dcmmeta_slice_dim": 2,
  "dcmmeta_version": 0.6,
  "global": {
    "const": {
      "AcquisitionMatrix": [100, 0, 0, 100],
      "AngioFlag": "N",
      "BitsAllocated": 16,
      "BitsStored": 12,
      "BodyPartExamined": "BRAIN",
      "Columns": 900,
      "EchoNumbers": 1,
      "EchoTime": 34.0,
      "EchoTrainLength": 100,
      "FlipAngle": 90.0,
      "HighBit": 11,
      "ImageOrientationPatient": [0.9988882945342, 0.01280905282077, -0.0453663224032, -0.0209237077025, 0.98285331218052, -0.1831981582652],
      "ImagePositionPatient": [-883.10688437599, -911.75268653797, 136.60396003073],
      "ImageType": [
        "ORIGINAL",
        "PRIMARY",
        "M",
        "ND",
        "MOSAIC"
],
      "ImagedNucleus": "1H",
      "ImagingFrequency": 123.257819,
      "InPlanePhaseEncodingDirection": "COL",
      "MRAcquisitionType": "2D",
      "MagneticFieldStrength": 3.0,
      "Manufacturer": "SIEMENS",
      "ManufacturerModelName": "Prisma",
      "Modality": "MR",
      "NumberOfAverages": 1.0,
      "NumberOfPhaseEncodingSteps": 100,
      "PercentPhaseFieldOfView": 100.0,
      "PercentSampling": 100.0,
      "PerformedProcedureStepStartTime": "123106.889000",
      "PhotometricInterpretation": "MONOCHROME2",
      "PixelBandwidth": 2380.0,
      "PixelRepresentation": 0,
      "PixelSpacing": [2.0, 2.0],
      "ProtocolName": "bold_100x100_s3_2x2x2_232",
      "RepetitionTime": 2000.0,
      "Rows": 900,
      "SAR": 0.08095629789906,
      "SamplesPerPixel": 1,
      "ScanOptions": "FS",
      "ScanningSequence": "EP",
      "SequenceName": "*epfid2d1_100",
      "SequenceVariant": "SK",
      "SeriesDescription": "bold_100x100_s3_2x2x2_232",
      "SeriesNumber": 8,
      "SeriesTime": "130551.863000",
      "SliceLocation": -70.866245415765,
      "SliceThickness": 2.0,
      "SmallestImagePixelValue": 0,
      "SoftwareVersions": "syngo MR E11",
      "SpacingBetweenSlices": 2.0000000194743,
      "SpecificCharacterSet": "ISO_IR 100",
      "StudyID": "1",
      "StudyTime": "123106.794000",
      "TransmitCoilName": "Body",
      "VariableFlipAngleFlag": "N",
      "WindowCenterWidthExplanation": "Algo1",
      "dBdt": 0.0},
    "slices": {}
  },
  "time": {
    "samples": {
      "AcquisitionNumber": [1, 2, 3, 4, 5, 6, 7, 8, 9, 10, 11, 12, 13, 14, 15, 16, 17, 18, 19, 20, 21, 22, 23, 24, 25, 26, 27, 28, 29, 30, 31, 32, 33, 34, 35, 36, 37, 38, 39, 40, 41, 42, 43, 44, 45, 46, 47, 48, 49, 50, 51, 52, 53, 54, 55, 56, 57, 58, 59, 60, 61, 62, 63, 64, 65, 66, 67, 68, 69, 70, 71, 72, 73, 74, 75, 76, 77, 78, 79, 80, 81, 82, 83, 84, 85, 86, 87, 88, 89, 90, 91, 92, 93, 94, 95, 96, 97, 98, 99, 100, 101, 102, 103, 104, 105, 106, 107, 108, 109, 110, 111, 112, 113, 114, 115, 116, 117, 118, 119, 120, 121, 122, 123, 124, 125, 126, 127, 128, 129, 130, 131, 132, 133, 134, 135, 136, 137, 138, 139, 140, 141, 142, 143, 144, 145, 146, 147, 148, 149, 150, 151, 152, 153, 154, 155, 156, 157, 158, 159, 160, 161, 162, 163, 164, 165, 166, 167, 168, 169, 170, 171, 172, 173, 174, 175, 176, 177, 178, 179, 180, 181, 182, 183, 184, 185, 186, 187, 188, 189, 190, 191, 192, 193, 194, 195, 196, 197, 198, 199, 200, 201, 202, 203, 204, 205, 206, 207, 208, 209, 210, 211, 212, 213, 214, 215, 216, 217, 218, 219, 220, 221, 222, 223, 224, 225, 226, 227, 228, 229, 230, 231, 232],
      "AcquisitionTime": ["130549.720000", "130551.720000", "130553.720000", "130555.720000", "130557.720000", "130559.720000", "130601.720000", "130603.720000", "130605.720000", "130607.720000", "130609.720000", "130611.720000", "130613.720000", "130615.720000", "130617.720000", "130619.720000", "130621.720000", "130623.720000", "130625.720000", "130627.720000", "130629.720000", "130631.720000", "130633.720000", "130635.720000", "130637.720000", "130639.720000", "130641.720000", "130643.720000", "130645.720000", "130647.720000", "130649.720000", "130651.720000", "130653.720000", "130655.720000", "130657.720000", "130659.720000", "130701.720000", "130703.720000", "130705.720000", "130707.720000", "130709.720000", "130711.720000", "130713.720000", "130715.720000", "130717.720000", "130719.720000", "130721.720000", "130723.720000", "130725.720000", "130727.720000", "130729.720000", "130731.720000", "130733.720000", "130735.720000", "130737.720000", "130739.720000", "130741.720000", "130743.720000", "130745.720000", "130747.720000", "130749.720000", "130751.720000", "130753.720000", "130755.720000", "130757.720000", "130759.720000", "130801.720000", "130803.720000", "130805.720000", "130807.720000", "130809.720000", "130811.720000", "130813.720000", "130815.720000", "130817.720000", "130819.720000", "130821.720000", "130823.720000", "130825.720000", "130827.720000", "130829.720000", "130831.720000", "130833.720000", "130835.720000", "130837.720000", "130839.720000", "130841.720000", "130843.720000", "130845.720000", "130847.720000", "130849.720000", "130851.720000", "130853.720000", "130855.720000", "130857.720000", "130859.720000", "130901.720000", "130903.720000", "130905.720000", "130907.720000", "130909.720000", "130911.720000", "130913.720000", "130915.720000", "130917.720000", "130919.720000", "130921.720000", "130923.720000", "130925.720000", "130927.720000", "130929.720000", "130931.720000", "130933.720000", "130935.720000", "130937.720000", "130939.720000", "130941.720000", "130943.720000", "130945.720000", "130947.720000", "130949.720000", "130951.720000", "130953.720000", "130955.720000", "130957.720000", "130959.720000", "131001.720000", "131003.720000", "131005.720000", "131007.720000", "131009.720000", "131011.720000", "131013.720000", "131015.720000", "131017.720000", "131019.720000", "131021.720000", "131023.720000", "131025.720000", "131027.720000", "131029.720000", "131031.720000", "131033.720000", "131035.720000", "131037.720000", "131039.720000", "131041.720000", "131043.720000", "131045.720000", "131047.720000", "131049.720000", "131051.720000", "131053.720000", "131055.720000", "131057.720000", "131059.720000", "131101.720000", "131103.720000", "131105.720000", "131107.720000", "131109.720000", "131111.720000", "131113.720000", "131115.720000", "131117.720000", "131119.720000", "131121.720000", "131123.720000", "131125.720000", "131127.720000", "131129.720000", "131131.720000", "131133.720000", "131135.720000", "131137.720000", "131139.720000", "131141.720000", "131143.720000", "131145.720000", "131147.720000", "131149.720000", "131151.720000", "131153.720000", "131155.720000", "131157.720000", "131159.720000", "131201.720000", "131203.720000", "131205.720000", "131207.720000", "131209.720000", "131211.720000", "131213.720000", "131215.720000", "131217.720000", "131219.720000", "131221.720000", "131223.720000", "131225.720000", "131227.720000", "131229.720000", "131231.720000", "131233.720000", "131235.720000", "131237.720000", "131239.720000", "131241.720000", "131243.720000", "131245.720000", "131247.720000", "131249.720000", "131251.720000", "131253.720000", "131255.720000", "131257.720000", "131259.720000", "131301.720000", "131303.720000", "131305.720000", "131307.720000", "131309.720000", "131311.720000", "131313.720000", "131315.720000", "131317.720000", "131319.720000", "131321.720000", "131323.720000", "131325.720000", "131327.720000", "131329.720000", "131331.720000"],
      "ContentTime": ["130551.867000", "130553.362000", "130555.362000", "130557.361000", "130559.361000", "130601.362000", "130603.361000", "130605.361000", "130607.361000", "130609.363000", "130611.362000", "130613.361000", "130615.361000", "130617.361000", "130619.362000", "130621.361000", "130623.361000", "130625.361000", "130627.362000", "130629.362000", "130631.361000", "130633.361000", "130635.362000", "130637.361000", "130639.362000", "130641.361000", "130643.361000", "130645.362000", "130647.361000", "130649.362000", "130651.361000", "130653.361000", "130655.362000", "130657.361000", "130659.361000", "130701.361000", "130703.362000", "130705.362000", "130707.361000", "130709.361000", "130711.361000", "130713.361000", "130715.362000", "130717.361000", "130719.363000", "130721.362000", "130723.361000", "130725.361000", "130727.361000", "130729.362000", "130731.361000", "130733.362000", "130735.361000", "130737.363000", "130739.361000", "130741.361000", "130743.361000", "130745.362000", "130747.362000", "130749.361000", "130751.361000", "130753.361000", "130755.362000", "130757.361000", "130759.362000", "130801.362000", "130803.361000", "130805.362000", "130807.361000", "130809.362000", "130811.361000", "130813.363000", "130815.362000", "130817.361000", "130819.362000", "130821.361000", "130823.361000", "130825.362000", "130827.361000", "130829.363000", "130831.363000", "130833.362000", "130835.361000", "130837.361000", "130839.361000", "130841.361000", "130843.361000", "130845.361000", "130847.363000", "130849.362000", "130851.361000", "130853.362000", "130855.362000", "130857.361000", "130859.361000", "130901.361000", "130903.361000", "130905.362000", "130907.361000", "130909.362000", "130911.361000", "130913.361000", "130915.361000", "130917.362000", "130919.361000", "130921.362000", "130923.363000", "130925.361000", "130927.362000", "130929.361000", "130931.361000", "130933.361000", "130935.361000", "130937.362000", "130939.362000", "130941.362000", "130943.362000", "130945.361000", "130947.361000", "130949.361000", "130951.361000", "130953.361000", "130955.361000", "130957.362000", "130959.362000", "131001.362000", "131003.361000", "131005.362000", "131007.362000", "131009.361000", "131011.361000", "131013.361000", "131015.362000", "131017.361000", "131019.361000", "131021.361000", "131023.361000", "131025.361000", "131027.362000", "131029.362000", "131031.361000", "131033.362000", "131035.361000", "131037.362000", "131039.362000", "131041.361000", "131043.361000", "131045.362000", "131047.362000", "131049.362000", "131051.362000", "131053.361000", "131055.361000", "131057.362000", "131059.361000", "131101.362000", "131103.362000", "131105.361000", "131107.362000", "131109.362000", "131111.361000", "131113.361000", "131115.361000", "131117.361000", "131119.361000", "131121.361000", "131123.362000", "131125.363000", "131127.361000", "131129.362000", "131131.362000", "131133.361000", "131135.361000", "131137.362000", "131139.361000", "131141.361000", "131143.363000", "131145.362000", "131147.362000", "131149.362000", "131151.361000", "131153.361000", "131155.361000", "131157.361000", "131159.363000", "131201.363000", "131203.361000", "131205.361000", "131207.362000", "131209.361000", "131211.362000", "131213.362000", "131215.361000", "131217.362000", "131219.361000", "131221.362000", "131223.362000", "131225.361000", "131227.362000", "131229.361000", "131231.361000", "131233.361000", "131235.362000", "131237.361000", "131239.361000", "131241.362000", "131243.362000", "131245.362000", "131247.362000", "131249.361000", "131251.361000", "131253.363000", "131255.361000", "131257.362000", "131259.362000", "131301.362000", "131303.361000", "131305.362000", "131307.361000", "131309.363000", "131311.362000", "131313.361000", "131315.361000", "131317.361000", "131319.361000", "131321.361000", "131323.361000", "131325.361000", "131327.362000", "131329.361000", "131331.362000", "131333.024000"],
      "InstanceCreationTime": ["130551.867000", "130553.362000", "130555.362000", "130557.361000", "130559.361000", "130601.362000", "130603.361000", "130605.361000", "130607.361000", "130609.363000", "130611.362000", "130613.361000", "130615.361000", "130617.361000", "130619.362000", "130621.361000", "130623.361000", "130625.361000", "130627.362000", "130629.362000", "130631.361000", "130633.361000", "130635.362000", "130637.361000", "130639.362000", "130641.361000", "130643.361000", "130645.362000", "130647.361000", "130649.362000", "130651.361000", "130653.361000", "130655.362000", "130657.361000", "130659.361000", "130701.361000", "130703.362000", "130705.362000", "130707.361000", "130709.361000", "130711.361000", "130713.361000", "130715.362000", "130717.361000", "130719.363000", "130721.362000", "130723.361000", "130725.361000", "130727.361000", "130729.362000", "130731.361000", "130733.362000", "130735.361000", "130737.363000", "130739.361000", "130741.361000", "130743.361000", "130745.362000", "130747.362000", "130749.361000", "130751.361000", "130753.361000", "130755.362000", "130757.361000", "130759.362000", "130801.362000", "130803.361000", "130805.362000", "130807.361000", "130809.362000", "130811.361000", "130813.363000", "130815.362000", "130817.361000", "130819.362000", "130821.361000", "130823.361000", "130825.362000", "130827.361000", "130829.363000", "130831.363000", "130833.362000", "130835.361000", "130837.361000", "130839.361000", "130841.361000", "130843.361000", "130845.361000", "130847.363000", "130849.362000", "130851.361000", "130853.362000", "130855.362000", "130857.361000", "130859.361000", "130901.361000", "130903.361000", "130905.362000", "130907.361000", "130909.362000", "130911.361000", "130913.361000", "130915.361000", "130917.362000", "130919.361000", "130921.362000", "130923.363000", "130925.361000", "130927.362000", "130929.361000", "130931.361000", "130933.361000", "130935.361000", "130937.362000", "130939.362000", "130941.362000", "130943.362000", "130945.361000", "130947.361000", "130949.361000", "130951.361000", "130953.361000", "130955.361000", "130957.362000", "130959.362000", "131001.362000", "131003.361000", "131005.362000", "131007.362000", "131009.361000", "131011.361000", "131013.361000", "131015.362000", "131017.361000", "131019.361000", "131021.361000", "131023.361000", "131025.361000", "131027.362000", "131029.362000", "131031.361000", "131033.362000", "131035.361000", "131037.362000", "131039.362000", "131041.361000", "131043.361000", "131045.362000", "131047.362000", "131049.362000", "131051.362000", "131053.361000", "131055.361000", "131057.362000", "131059.361000", "131101.362000", "131103.362000", "131105.361000", "131107.362000", "131109.362000", "131111.361000", "131113.361000", "131115.361000", "131117.361000", "131119.361000", "131121.361000", "131123.362000", "131125.363000", "131127.361000", "131129.362000", "131131.362000", "131133.361000", "131135.361000", "131137.362000", "131139.361000", "131141.361000", "131143.363000", "131145.362000", "131147.362000", "131149.362000", "131151.361000", "131153.361000", "131155.361000", "131157.361000", "131159.363000", "131201.363000", "131203.361000", "131205.361000", "131207.362000", "131209.361000", "131211.362000", "131213.362000", "131215.361000", "131217.362000", "131219.361000", "131221.362000", "131223.362000", "131225.361000", "131227.362000", "131229.361000", "131231.361000", "131233.361000", "131235.362000", "131237.361000", "131239.361000", "131241.362000", "131243.362000", "131245.362000", "131247.362000", "131249.361000", "131251.361000", "131253.363000", "131255.361000", "131257.362000", "131259.362000", "131301.362000", "131303.361000", "131305.362000", "131307.361000", "131309.363000", "131311.362000", "131313.361000", "131315.361000", "131317.361000", "131319.361000", "131321.361000", "131323.361000", "131325.361000", "131327.362000", "131329.361000", "131331.362000", "131333.024000"],
      "InstanceNumber": [1, 2, 3, 4, 5, 6, 7, 8, 9, 10, 11, 12, 13, 14, 15, 16, 17, 18, 19, 20, 21, 22, 23, 24, 25, 26, 27, 28, 29, 30, 31, 32, 33, 34, 35, 36, 37, 38, 39, 40, 41, 42, 43, 44, 45, 46, 47, 48, 49, 50, 51, 52, 53, 54, 55, 56, 57, 58, 59, 60, 61, 62, 63, 64, 65, 66, 67, 68, 69, 70, 71, 72, 73, 74, 75, 76, 77, 78, 79, 80, 81, 82, 83, 84, 85, 86, 87, 88, 89, 90, 91, 92, 93, 94, 95, 96, 97, 98, 99, 100, 101, 102, 103, 104, 105, 106, 107, 108, 109, 110, 111, 112, 113, 114, 115, 116, 117, 118, 119, 120, 121, 122, 123, 124, 125, 126, 127, 128, 129, 130, 131, 132, 133, 134, 135, 136, 137, 138, 139, 140, 141, 142, 143, 144, 145, 146, 147, 148, 149, 150, 151, 152, 153, 154, 155, 156, 157, 158, 159, 160, 161, 162, 163, 164, 165, 166, 167, 168, 169, 170, 171, 172, 173, 174, 175, 176, 177, 178, 179, 180, 181, 182, 183, 184, 185, 186, 187, 188, 189, 190, 191, 192, 193, 194, 195, 196, 197, 198, 199, 200, 201, 202, 203, 204, 205, 206, 207, 208, 209, 210, 211, 212, 213, 214, 215, 216, 217, 218, 219, 220, 221, 222, 223, 224, 225, 226, 227, 228, 229, 230, 231, 232],
      "LargestImagePixelValue": [4095, 4095, 4095, 4095, 4095, 4095, 4095, 4095, 4095, 4095, 4095, 4095, 4095, 4095, 4095, 4095, 4095, 4095, 4095, 4095, 4095, 4095, 4095, 4095, 4095, 4095, 4095, 4095, 4095, 4095, 4095, 4095, 4095, 4095, 4095, 4095, 4095, 4095, 4095, 4095, 4095, 4095, 4095, 4095, 4095, 4095, 4095, 4095, 4095, 4095, 4095, 4095, 4095, 4095, 4095, 4095, 4095, 4095, 4095, 4095, 4095, 4095, 4095, 4095, 4095, 4095, 4095, 4095, 4095, 4095, 4095, 4095, 4095, 4095, 4095, 4095, 4095, 4095, 4095, 4095, 4095, 4095, 4095, 4095, 4095, 4095, 4095, 4095, 4095, 4095, 4095, 4095, 4095, 4095, 4095, 4095, 4095, 4095, 4095, 4095, 4095, 4095, 4095, 4095, 4095, 4095, 4095, 4095, 4095, 4095, 4095, 4095, 4095, 4095, 4095, 4095, 4095, 4095, 4095, 4095, 4095, 4095, 4095, 4095, 4095, 4095, 4095, 4095, 4095, 4095, 4095, 4081, 4095, 4095, 4095, 4095, 4095, 4093, 4095, 4095, 4095, 4095, 4095, 4095, 4095, 4095, 4095, 4095, 4095, 4095, 4095, 4095, 4095, 4095, 4095, 4095, 4095, 4095, 4095, 4095, 4095, 4095, 4095, 4095, 4095, 4095, 4095, 4095, 4095, 4095, 4095, 4095, 4095, 4095, 4095, 4095, 4095, 4095, 4095, 4095, 4095, 4095, 4095, 4095, 4095, 4095, 4095, 4095, 4095, 4095, 4095, 4095, 4095, 4095, 4095, 4095, 4095, 4095, 4095, 4095, 4095, 4095, 4095, 4095, 4095, 4095, 4095, 4095, 4095, 4095, 4089, 4088, 4095, 4088, 4095, 4095, 4095, 4095, 4095, 4095, 4095, 4095, 4095, 4095, 4095, 4095, 4095, 4095, 4095, 4095, 4095, 4095],
      "WindowCenter": [852.0, 851.0, 850.0, 851.0, 850.0, 850.0, 849.0, 849.0, 850.0, 850.0, 851.0, 851.0, 850.0, 850.0, 850.0, 851.0, 851.0, 852.0, 853.0, 852.0, 852.0, 852.0, 852.0, 851.0, 851.0, 852.0, 852.0, 852.0, 851.0, 851.0, 851.0, 852.0, 849.0, 848.0, 845.0, 848.0, 844.0, 850.0, 840.0, 847.0, 852.0, 852.0, 854.0, 853.0, 852.0, 851.0, 851.0, 851.0, 851.0, 851.0, 852.0, 852.0, 851.0, 852.0, 852.0, 851.0, 851.0, 853.0, 855.0, 853.0, 851.0, 850.0, 851.0, 850.0, 849.0, 850.0, 851.0, 851.0, 850.0, 850.0, 851.0, 851.0, 852.0, 852.0, 853.0, 854.0, 854.0, 854.0, 854.0, 854.0, 854.0, 853.0, 854.0, 853.0, 853.0, 852.0, 853.0, 854.0, 854.0, 854.0, 853.0, 852.0, 852.0, 853.0, 853.0, 853.0, 847.0, 840.0, 845.0, 851.0, 852.0, 853.0, 843.0, 849.0, 853.0, 846.0, 848.0, 849.0, 849.0, 849.0, 849.0, 849.0, 849.0, 851.0, 851.0, 850.0, 850.0, 850.0, 850.0, 849.0, 850.0, 850.0, 849.0, 849.0, 848.0, 848.0, 848.0, 849.0, 848.0, 833.0, 854.0, 840.0, 842.0, 851.0, 842.0, 847.0, 850.0, 848.0, 850.0, 850.0, 850.0, 850.0, 850.0, 850.0, 849.0, 851.0, 851.0, 852.0, 850.0, 850.0, 850.0, 850.0, 851.0, 852.0, 852.0, 852.0, 851.0, 850.0, 850.0, 852.0, 852.0, 852.0, 850.0, 850.0, 852.0, 851.0, 851.0, 851.0, 851.0, 851.0, 852.0, 851.0, 850.0, 850.0, 852.0, 851.0, 850.0, 850.0, 850.0, 850.0, 850.0, 851.0, 850.0, 850.0, 850.0, 852.0, 853.0, 851.0, 850.0, 850.0, 851.0, 852.0, 851.0, 839.0, 846.0, 842.0, 840.0, 849.0, 844.0, 848.0, 847.0, 849.0, 851.0, 852.0, 851.0, 852.0, 853.0, 854.0, 852.0, 851.0, 853.0, 852.0, 851.0, 850.0, 851.0, 852.0, 852.0, 853.0, 852.0, 851.0, 851.0, 851.0, 851.0, 851.0, 851.0, 851.0, 851.0, 851.0, 851.0, 851.0, 851.0, 851.0],
      "WindowWidth": [1856.0, 1852.0, 1850.0, 1850.0, 1850.0, 1849.0, 1847.0, 1847.0, 1848.0, 1848.0, 1850.0, 1851.0, 1849.0, 1851.0, 1850.0, 1851.0, 1853.0, 1855.0, 1856.0, 1855.0, 1855.0, 1854.0, 1853.0, 1852.0, 1852.0, 1855.0, 1856.0, 1853.0, 1852.0, 1852.0, 1853.0, 1855.0, 1848.0, 1844.0, 1837.0, 1844.0, 1834.0, 1849.0, 1825.0, 1843.0, 1855.0, 1855.0, 1858.0, 1856.0, 1854.0, 1851.0, 1851.0, 1853.0, 1853.0, 1852.0, 1855.0, 1855.0, 1852.0, 1854.0, 1854.0, 1853.0, 1853.0, 1857.0, 1863.0, 1857.0, 1852.0, 1849.0, 1851.0, 1849.0, 1847.0, 1849.0, 1853.0, 1852.0, 1850.0, 1850.0, 1851.0, 1854.0, 1854.0, 1856.0, 1858.0, 1859.0, 1859.0, 1859.0, 1860.0, 1861.0, 1859.0, 1858.0, 1859.0, 1859.0, 1859.0, 1856.0, 1858.0, 1859.0, 1859.0, 1858.0, 1857.0, 1855.0, 1855.0, 1856.0, 1856.0, 1857.0, 1843.0, 1827.0, 1840.0, 1855.0, 1856.0, 1858.0, 1833.0, 1850.0, 1858.0, 1839.0, 1843.0, 1845.0, 1846.0, 1846.0, 1846.0, 1846.0, 1847.0, 1852.0, 1851.0, 1849.0, 1849.0, 1850.0, 1848.0, 1847.0, 1849.0, 1848.0, 1847.0, 1845.0, 1844.0, 1844.0, 1843.0, 1846.0, 1844.0, 1806.0, 1861.0, 1822.0, 1831.0, 1854.0, 1828.0, 1843.0, 1848.0, 1842.0, 1847.0, 1848.0, 1848.0, 1849.0, 1849.0, 1848.0, 1847.0, 1851.0, 1852.0, 1854.0, 1850.0, 1849.0, 1848.0, 1849.0, 1852.0, 1854.0, 1854.0, 1855.0, 1852.0, 1849.0, 1850.0, 1855.0, 1854.0, 1852.0, 1849.0, 1850.0, 1853.0, 1852.0, 1851.0, 1850.0, 1851.0, 1853.0, 1855.0, 1852.0, 1850.0, 1850.0, 1855.0, 1851.0, 1848.0, 1848.0, 1849.0, 1849.0, 1850.0, 1851.0, 1850.0, 1850.0, 1849.0, 1853.0, 1855.0, 1851.0, 1848.0, 1848.0, 1850.0, 1853.0, 1852.0, 1821.0, 1839.0, 1830.0, 1825.0, 1850.0, 1835.0, 1845.0, 1843.0, 1847.0, 1853.0, 1854.0, 1852.0, 1854.0, 1856.0, 1860.0, 1853.0, 1850.0, 1856.0, 1852.0, 1850.0, 1850.0, 1852.0, 1853.0, 1854.0, 1856.0, 1854.0, 1851.0, 1851.0, 1850.0, 1851.0, 1851.0, 1851.0, 1852.0, 1850.0, 1851.0, 1849.0, 1850.0, 1852.0, 1851.0]
    },
    "slices": {}
  }
}