{
  "AcquisitionMatrixPE": 100,
  "AcquisitionNumber": 1,
  "AcquisitionTime": "12:53:51.577500",
  "BandwidthPerPixelPhaseEncode": 18.519,
  "BaseResolution": 100,
  "BodyPartExamined": "BRAIN",
  "ConsistencyInfo": "N4_VE11C_LATEST_20160120",
  "ConversionSoftware": "dcm2niix",
  "ConversionSoftwareVersion": "v1.0.20180622 GCC4.9.2",
  "DerivedVendorReportedEchoSpacing": 0.000539986,
  "DeviceSerialNumber": "166078",
  "DwellTime": 2.1e-06,
  "EchoTime": 0.034,
  "EchoTrainLength": 100,
  "EffectiveEchoSpacing": 0.000539986,
  "FlipAngle": 90,
  "ImageOrientationPatientDICOM": [0.998888, 0.0128091, -0.0453663, -0.0209237, 0.982853, -0.183198],
  "ImageType": [
    "ORIGINAL",
    "PRIMARY",
    "M",
    "ND",
    "MOSAIC"
],
  "InPlanePhaseEncodingDirectionDICOM": "COL",
  "InstitutionAddress": "Street_StreetNo_Bei_Jing_District_CN_ZIP",
  "InstitutionName": "BeiJing_Normal_University",
  "InstitutionalDepartmentName": "Department",
  "MRAcquisitionType": "2D",
  "MagneticFieldStrength": 3,
  "Manufacturer": "Siemens",
  "ManufacturersModelName": "Prisma",
  "Modality": "MR",
  "MultibandAccelerationFactor": 3,
  "PartialFourier": 1,
  "PatientPosition": "HFS",
  "PercentPhaseFOV": 100,
  "PhaseEncodingDirection": "j-",
  "PhaseEncodingSteps": 100,
  "PhaseResolution": 1,
  "PixelBandwidth": 2380,
  "ProcedureStepDescription": "BNU_P2018_64CH_Liu.Jia",
  "ProtocolName": "bold_100x100_s3_2x2x2_232",
  "PulseSequenceDetails": "%SiemensSeq%_ep2d_bold",
  "ReceiveCoilActiveElements": "HC1-7;NC1",
  "ReceiveCoilName": "HeadNeck_64",
  "ReconMatrixPE": 100,
  "RepetitionTime": 2,
  "SAR": 0.0809563,
  "ScanOptions": "FS",
  "ScanningSequence": "EP",
  "SequenceName": "_epfid2d1_100",
  "SequenceVariant": "SK",
  "SeriesDescription": "bold_100x100_s3_2x2x2_232",
  "SeriesNumber": 5,
  "ShimSetting": [-5487, -11493, -1261, 371, -57, -188, -114, 122],
  "SliceThickness": 2,
  "SliceTiming": [1.485, 0, 0.99, 0.0825, 1.0725, 0.165, 1.155, 0.2475, 1.2375, 0.33, 1.32, 0.4125, 1.4025, 0.5775, 1.5675, 0.66, 1.65, 0.7425, 1.7325, 0.825, 1.815, 0.9075, 1.8975, 0.495, 1.485, 0, 0.99, 0.0825, 1.0725, 0.165, 1.155, 0.2475, 1.2375, 0.33, 1.32, 0.4125, 1.4025, 0.5775, 1.5675, 0.66, 1.65, 0.7425, 1.7325, 0.825, 1.815, 0.9075, 1.8975, 0.495, 1.485, 0, 0.99, 0.0825, 1.0725, 0.165, 1.155, 0.2475, 1.2375, 0.33, 1.32, 0.4125, 1.4025, 0.5775, 1.5675, 0.66, 1.65, 0.7425, 1.7325, 0.825, 1.815, 0.9075, 1.8975, 0.495],
  "SoftwareVersions": "syngo_MR_E11",
  "SpacingBetweenSlices": 2,
  "StationName": "AWP166078",
  "TaskName": "motor",
  "TotalReadoutTime": 0.0534586,
  "TxRefAmp": 231.205,
  "dcmmeta_affine": [
    [-1.9977766275405884, -0.04184741526842117, -0.08448369055986404, 104.87811279296875],
    [-0.02561810612678528, 1.9657065868377686, -0.3678874671459198, -79.38216400146484],
    [-0.090732641518116, 0.36639630794525146, 1.9640573263168335, -82.52085876464844],
    [0.0, 0.0, 0.0, 1.0]
],
  "dcmmeta_reorient_transform": [
    [0.0, -1.0, 0.0, 99.0],
    [1.0, 0.0, 0.0, 0.0],
    [0.0, 0.0, 1.0, 0.0],
    [0.0, 0.0, 0.0, 1.0]
],
  "dcmmeta_shape": [100, 100, 72, 232],
  "dcmmeta_slice_dim": 2,
  "dcmmeta_version": 0.6,
  "global": {
    "const": {
      "AcquisitionMatrix": [100, 0, 0, 100],
      "AngioFlag": "N",
      "BitsAllocated": 16,
      "BitsStored": 12,
      "BodyPartExamined": "BRAIN",
      "Columns": 900,
      "EchoNumbers": 1,
      "EchoTime": 34.0,
      "EchoTrainLength": 100,
      "FlipAngle": 90.0,
      "HighBit": 11,
      "ImageOrientationPatient": [0.9988882945342, 0.01280905282077, -0.0453663224032, -0.0209237077025, 0.98285331218052, -0.1831981582652],
      "ImagePositionPatient": [-883.10688437599, -911.75268653797, 136.60396003073],
      "ImageType": [
        "ORIGINAL",
        "PRIMARY",
        "M",
        "ND",
        "MOSAIC"
],
      "ImagedNucleus": "1H",
      "ImagingFrequency": 123.257821,
      "InPlanePhaseEncodingDirection": "COL",
      "MRAcquisitionType": "2D",
      "MagneticFieldStrength": 3.0,
      "Manufacturer": "SIEMENS",
      "ManufacturerModelName": "Prisma",
      "Modality": "MR",
      "NumberOfAverages": 1.0,
      "NumberOfPhaseEncodingSteps": 100,
      "PercentPhaseFieldOfView": 100.0,
      "PercentSampling": 100.0,
      "PerformedProcedureStepStartTime": "123106.889000",
      "PhotometricInterpretation": "MONOCHROME2",
      "PixelBandwidth": 2380.0,
      "PixelRepresentation": 0,
      "PixelSpacing": [2.0, 2.0],
      "ProtocolName": "bold_100x100_s3_2x2x2_232",
      "RepetitionTime": 2000.0,
      "Rows": 900,
      "SAR": 0.08095629789906,
      "SamplesPerPixel": 1,
      "ScanOptions": "FS",
      "ScanningSequence": "EP",
      "SequenceName": "*epfid2d1_100",
      "SequenceVariant": "SK",
      "SeriesDescription": "bold_100x100_s3_2x2x2_232",
      "SeriesNumber": 5,
      "SeriesTime": "125354.083000",
      "SliceLocation": -70.866245415765,
      "SliceThickness": 2.0,
      "SmallestImagePixelValue": 0,
      "SoftwareVersions": "syngo MR E11",
      "SpacingBetweenSlices": 2.0000000194743,
      "SpecificCharacterSet": "ISO_IR 100",
      "StudyID": "1",
      "StudyTime": "123106.794000",
      "TransmitCoilName": "Body",
      "VariableFlipAngleFlag": "N",
      "WindowCenterWidthExplanation": "Algo1",
      "dBdt": 0.0},
    "slices": {}
  },
  "time": {
    "samples": {
      "AcquisitionNumber": [1, 2, 3, 4, 5, 6, 7, 8, 9, 10, 11, 12, 13, 14, 15, 16, 17, 18, 19, 20, 21, 22, 23, 24, 25, 26, 27, 28, 29, 30, 31, 32, 33, 34, 35, 36, 37, 38, 39, 40, 41, 42, 43, 44, 45, 46, 47, 48, 49, 50, 51, 52, 53, 54, 55, 56, 57, 58, 59, 60, 61, 62, 63, 64, 65, 66, 67, 68, 69, 70, 71, 72, 73, 74, 75, 76, 77, 78, 79, 80, 81, 82, 83, 84, 85, 86, 87, 88, 89, 90, 91, 92, 93, 94, 95, 96, 97, 98, 99, 100, 101, 102, 103, 104, 105, 106, 107, 108, 109, 110, 111, 112, 113, 114, 115, 116, 117, 118, 119, 120, 121, 122, 123, 124, 125, 126, 127, 128, 129, 130, 131, 132, 133, 134, 135, 136, 137, 138, 139, 140, 141, 142, 143, 144, 145, 146, 147, 148, 149, 150, 151, 152, 153, 154, 155, 156, 157, 158, 159, 160, 161, 162, 163, 164, 165, 166, 167, 168, 169, 170, 171, 172, 173, 174, 175, 176, 177, 178, 179, 180, 181, 182, 183, 184, 185, 186, 187, 188, 189, 190, 191, 192, 193, 194, 195, 196, 197, 198, 199, 200, 201, 202, 203, 204, 205, 206, 207, 208, 209, 210, 211, 212, 213, 214, 215, 216, 217, 218, 219, 220, 221, 222, 223, 224, 225, 226, 227, 228, 229, 230, 231, 232],
      "AcquisitionTime": ["125351.577500", "125353.577500", "125355.577500", "125357.577500", "125359.577500", "125401.577500", "125403.577500", "125405.577500", "125407.577500", "125409.577500", "125411.577500", "125413.577500", "125415.577500", "125417.577500", "125419.577500", "125421.577500", "125423.577500", "125425.577500", "125427.577500", "125429.577500", "125431.577500", "125433.577500", "125435.577500", "125437.577500", "125439.577500", "125441.577500", "125443.577500", "125445.577500", "125447.577500", "125449.577500", "125451.577500", "125453.577500", "125455.577500", "125457.577500", "125459.577500", "125501.577500", "125503.577500", "125505.577500", "125507.577500", "125509.577500", "125511.577500", "125513.577500", "125515.577500", "125517.577500", "125519.577500", "125521.577500", "125523.577500", "125525.577500", "125527.577500", "125529.577500", "125531.577500", "125533.577500", "125535.577500", "125537.577500", "125539.577500", "125541.577500", "125543.577500", "125545.577500", "125547.577500", "125549.577500", "125551.577500", "125553.577500", "125555.577500", "125557.577500", "125559.577500", "125601.577500", "125603.577500", "125605.577500", "125607.577500", "125609.577500", "125611.577500", "125613.577500", "125615.577500", "125617.577500", "125619.577500", "125621.577500", "125623.577500", "125625.577500", "125627.577500", "125629.577500", "125631.577500", "125633.577500", "125635.577500", "125637.577500", "125639.577500", "125641.577500", "125643.577500", "125645.577500", "125647.577500", "125649.577500", "125651.577500", "125653.577500", "125655.577500", "125657.577500", "125659.577500", "125701.577500", "125703.577500", "125705.577500", "125707.577500", "125709.577500", "125711.577500", "125713.577500", "125715.577500", "125717.577500", "125719.577500", "125721.577500", "125723.577500", "125725.577500", "125727.577500", "125729.577500", "125731.577500", "125733.577500", "125735.577500", "125737.577500", "125739.577500", "125741.577500", "125743.577500", "125745.577500", "125747.577500", "125749.577500", "125751.577500", "125753.577500", "125755.577500", "125757.577500", "125759.577500", "125801.577500", "125803.577500", "125805.577500", "125807.577500", "125809.577500", "125811.577500", "125813.577500", "125815.577500", "125817.577500", "125819.577500", "125821.577500", "125823.577500", "125825.577500", "125827.577500", "125829.577500", "125831.577500", "125833.577500", "125835.577500", "125837.577500", "125839.577500", "125841.577500", "125843.577500", "125845.577500", "125847.577500", "125849.577500", "125851.577500", "125853.577500", "125855.577500", "125857.577500", "125859.577500", "125901.577500", "125903.577500", "125905.577500", "125907.577500", "125909.577500", "125911.577500", "125913.577500", "125915.577500", "125917.577500", "125919.577500", "125921.577500", "125923.577500", "125925.577500", "125927.577500", "125929.577500", "125931.577500", "125933.577500", "125935.577500", "125937.577500", "125939.577500", "125941.577500", "125943.577500", "125945.577500", "125947.577500", "125949.577500", "125951.577500", "125953.577500", "125955.577500", "125957.577500", "125959.577500", "130001.577500", "130003.577500", "130005.577500", "130007.577500", "130009.577500", "130011.577500", "130013.577500", "130015.577500", "130017.577500", "130019.577500", "130021.577500", "130023.577500", "130025.577500", "130027.577500", "130029.577500", "130031.577500", "130033.577500", "130035.577500", "130037.577500", "130039.577500", "130041.577500", "130043.577500", "130045.577500", "130047.577500", "130049.577500", "130051.577500", "130053.577500", "130055.577500", "130057.577500", "130059.577500", "130101.577500", "130103.577500", "130105.577500", "130107.577500", "130109.577500", "130111.577500", "130113.577500", "130115.577500", "130117.577500", "130119.577500", "130121.577500", "130123.577500", "130125.577500", "130127.577500", "130129.577500", "130131.577500", "130133.577500"],
      "ContentTime": ["125354.087000", "125355.584000", "125357.583000", "125359.584000", "125401.584000", "125403.582000", "125405.583000", "125407.582000", "125409.582000", "125411.582000", "125413.583000", "125415.583000", "125417.584000", "125419.583000", "125421.582000", "125423.582000", "125425.582000", "125427.582000", "125429.582000", "125431.584000", "125433.583000", "125435.584000", "125437.584000", "125439.583000", "125441.583000", "125443.583000", "125445.583000", "125447.583000", "125449.584000", "125451.583000", "125453.583000", "125455.584000", "125457.582000", "125459.583000", "125501.582000", "125503.582000", "125505.584000", "125507.583000", "125509.584000", "125511.583000", "125513.582000", "125515.582000", "125517.583000", "125519.583000", "125521.582000", "125523.584000", "125525.583000", "125527.583000", "125529.583000", "125531.583000", "125533.583000", "125535.582000", "125537.583000", "125539.582000", "125541.584000", "125543.583000", "125545.584000", "125547.583000", "125549.582000", "125551.582000", "125553.582000", "125555.582000", "125557.584000", "125559.583000", "125601.583000", "125603.583000", "125605.583000", "125607.582000", "125609.582000", "125611.582000", "125613.582000", "125615.583000", "125617.583000", "125619.583000", "125621.583000", "125623.582000", "125625.582000", "125627.582000", "125629.582000", "125631.082000", "125633.583000", "125635.583000", "125637.583000", "125639.583000", "125641.582000", "125643.583000", "125645.583000", "125647.582000", "125649.583000", "125651.583000", "125653.584000", "125655.584000", "125657.584000", "125659.582000", "125701.582000", "125703.582000", "125705.582000", "125707.584000", "125709.584000", "125711.584000", "125713.583000", "125715.583000", "125717.583000", "125719.582000", "125721.582000", "125723.582000", "125725.583000", "125727.584000", "125729.583000", "125731.583000", "125733.582000", "125735.583000", "125737.582000", "125739.582000", "125741.582000", "125743.584000", "125745.583000", "125747.583000", "125749.584000", "125751.582000", "125753.582000", "125755.582000", "125757.582000", "125759.583000", "125801.583000", "125803.584000", "125805.584000", "125807.583000", "125809.583000", "125811.582000", "125813.582000", "125815.583000", "125817.584000", "125819.584000", "125821.584000", "125823.583000", "125825.584000", "125827.583000", "125829.583000", "125831.583000", "125833.582000", "125835.583000", "125837.583000", "125839.584000", "125841.584000", "125843.583000", "125845.583000", "125847.583000", "125849.583000", "125851.583000", "125853.584000", "125855.584000", "125857.583000", "125859.583000", "125901.582000", "125903.583000", "125905.582000", "125907.582000", "125909.582000", "125911.584000", "125913.583000", "125915.584000", "125917.584000", "125919.582000", "125921.582000", "125923.583000", "125925.582000", "125927.583000", "125929.583000", "125931.583000", "125933.583000", "125935.583000", "125937.582000", "125939.582000", "125941.583000", "125943.582000", "125945.583000", "125947.584000", "125949.584000", "125951.583000", "125953.583000", "125955.582000", "125957.583000", "125959.583000", "130001.583000", "130003.584000", "130005.583000", "130007.584000", "130009.583000", "130011.583000", "130013.582000", "130015.582000", "130017.583000", "130019.584000", "130021.583000", "130023.583000", "130025.584000", "130027.584000", "130029.583000", "130031.582000", "130033.582000", "130035.582000", "130037.583000", "130039.584000", "130041.583000", "130043.583000", "130045.583000", "130047.583000", "130049.582000", "130051.583000", "130053.582000", "130055.583000", "130057.584000", "130059.583000", "130101.584000", "130103.582000", "130105.583000", "130107.582000", "130109.582000", "130111.582000", "130113.583000", "130115.584000", "130117.583000", "130119.584000", "130121.583000", "130123.582000", "130125.582000", "130127.583000", "130129.584000", "130131.583000", "130133.583000", "130135.107000"],
      "InstanceCreationTime": ["125354.087000", "125355.584000", "125357.583000", "125359.584000", "125401.584000", "125403.582000", "125405.583000", "125407.582000", "125409.582000", "125411.582000", "125413.583000", "125415.583000", "125417.584000", "125419.583000", "125421.582000", "125423.582000", "125425.582000", "125427.582000", "125429.582000", "125431.584000", "125433.583000", "125435.584000", "125437.584000", "125439.583000", "125441.583000", "125443.583000", "125445.583000", "125447.583000", "125449.584000", "125451.583000", "125453.583000", "125455.584000", "125457.582000", "125459.583000", "125501.582000", "125503.582000", "125505.584000", "125507.583000", "125509.584000", "125511.583000", "125513.582000", "125515.582000", "125517.583000", "125519.583000", "125521.582000", "125523.584000", "125525.583000", "125527.583000", "125529.583000", "125531.583000", "125533.583000", "125535.582000", "125537.583000", "125539.582000", "125541.584000", "125543.583000", "125545.584000", "125547.583000", "125549.582000", "125551.582000", "125553.582000", "125555.582000", "125557.584000", "125559.583000", "125601.583000", "125603.583000", "125605.583000", "125607.582000", "125609.582000", "125611.582000", "125613.582000", "125615.583000", "125617.583000", "125619.583000", "125621.583000", "125623.582000", "125625.582000", "125627.582000", "125629.582000", "125631.082000", "125633.583000", "125635.583000", "125637.583000", "125639.583000", "125641.582000", "125643.583000", "125645.583000", "125647.582000", "125649.583000", "125651.583000", "125653.584000", "125655.584000", "125657.584000", "125659.582000", "125701.582000", "125703.582000", "125705.582000", "125707.584000", "125709.584000", "125711.584000", "125713.583000", "125715.583000", "125717.583000", "125719.582000", "125721.582000", "125723.582000", "125725.583000", "125727.584000", "125729.583000", "125731.583000", "125733.582000", "125735.583000", "125737.582000", "125739.582000", "125741.582000", "125743.584000", "125745.583000", "125747.583000", "125749.584000", "125751.582000", "125753.582000", "125755.582000", "125757.582000", "125759.583000", "125801.583000", "125803.584000", "125805.584000", "125807.583000", "125809.583000", "125811.582000", "125813.582000", "125815.583000", "125817.584000", "125819.584000", "125821.584000", "125823.583000", "125825.584000", "125827.583000", "125829.583000", "125831.583000", "125833.582000", "125835.583000", "125837.583000", "125839.584000", "125841.584000", "125843.583000", "125845.583000", "125847.583000", "125849.583000", "125851.583000", "125853.584000", "125855.584000", "125857.583000", "125859.583000", "125901.582000", "125903.583000", "125905.582000", "125907.582000", "125909.582000", "125911.584000", "125913.583000", "125915.584000", "125917.584000", "125919.582000", "125921.582000", "125923.583000", "125925.582000", "125927.583000", "125929.583000", "125931.583000", "125933.583000", "125935.583000", "125937.582000", "125939.582000", "125941.583000", "125943.582000", "125945.583000", "125947.584000", "125949.584000", "125951.583000", "125953.583000", "125955.582000", "125957.583000", "125959.583000", "130001.583000", "130003.584000", "130005.583000", "130007.584000", "130009.583000", "130011.583000", "130013.582000", "130015.582000", "130017.583000", "130019.584000", "130021.583000", "130023.583000", "130025.584000", "130027.584000", "130029.583000", "130031.582000", "130033.582000", "130035.582000", "130037.583000", "130039.584000", "130041.583000", "130043.583000", "130045.583000", "130047.583000", "130049.582000", "130051.583000", "130053.582000", "130055.583000", "130057.584000", "130059.583000", "130101.584000", "130103.582000", "130105.583000", "130107.582000", "130109.582000", "130111.582000", "130113.583000", "130115.584000", "130117.583000", "130119.584000", "130121.583000", "130123.582000", "130125.582000", "130127.583000", "130129.584000", "130131.583000", "130133.583000", "130135.107000"],
      "InstanceNumber": [1, 2, 3, 4, 5, 6, 7, 8, 9, 10, 11, 12, 13, 14, 15, 16, 17, 18, 19, 20, 21, 22, 23, 24, 25, 26, 27, 28, 29, 30, 31, 32, 33, 34, 35, 36, 37, 38, 39, 40, 41, 42, 43, 44, 45, 46, 47, 48, 49, 50, 51, 52, 53, 54, 55, 56, 57, 58, 59, 60, 61, 62, 63, 64, 65, 66, 67, 68, 69, 70, 71, 72, 73, 74, 75, 76, 77, 78, 79, 80, 81, 82, 83, 84, 85, 86, 87, 88, 89, 90, 91, 92, 93, 94, 95, 96, 97, 98, 99, 100, 101, 102, 103, 104, 105, 106, 107, 108, 109, 110, 111, 112, 113, 114, 115, 116, 117, 118, 119, 120, 121, 122, 123, 124, 125, 126, 127, 128, 129, 130, 131, 132, 133, 134, 135, 136, 137, 138, 139, 140, 141, 142, 143, 144, 145, 146, 147, 148, 149, 150, 151, 152, 153, 154, 155, 156, 157, 158, 159, 160, 161, 162, 163, 164, 165, 166, 167, 168, 169, 170, 171, 172, 173, 174, 175, 176, 177, 178, 179, 180, 181, 182, 183, 184, 185, 186, 187, 188, 189, 190, 191, 192, 193, 194, 195, 196, 197, 198, 199, 200, 201, 202, 203, 204, 205, 206, 207, 208, 209, 210, 211, 212, 213, 214, 215, 216, 217, 218, 219, 220, 221, 222, 223, 224, 225, 226, 227, 228, 229, 230, 231, 232],
      "LargestImagePixelValue": [4095, 4095, 4095, 4095, 4095, 4095, 4095, 4095, 4095, 4095, 4095, 4095, 4095, 4095, 4095, 4095, 4095, 4095, 4095, 4095, 4095, 4095, 4095, 4095, 4095, 4095, 4095, 4095, 4095, 4095, 4095, 4095, 4095, 4095, 4095, 4095, 4095, 4095, 4095, 4095, 4095, 4095, 4095, 4095, 4095, 4095, 4095, 4095, 4095, 4095, 4095, 4095, 4095, 4095, 4095, 4095, 4095, 4095, 4095, 4095, 4095, 4095, 4095, 4095, 4095, 4095, 4095, 4095, 4095, 4095, 4095, 4095, 4095, 4095, 4095, 4095, 4095, 4095, 4095, 4095, 4095, 4095, 4095, 4095, 4095, 4095, 4095, 4095, 4095, 4095, 4095, 4095, 4095, 4095, 4065, 4095, 4095, 4095, 4095, 4095, 4095, 4095, 4095, 4095, 4095, 4095, 4095, 4095, 4095, 4095, 4095, 4095, 4095, 4095, 4095, 4095, 4095, 4095, 4095, 4095, 4095, 4095, 4095, 4095, 4095, 4095, 4095, 4095, 4095, 4095, 4095, 4095, 4095, 4095, 4095, 4095, 4095, 4095, 4095, 4095, 4095, 4095, 4095, 4095, 4095, 4095, 4095, 4095, 4095, 4095, 4095, 4095, 4095, 4095, 4095, 4095, 4095, 4095, 4095, 4095, 4095, 4095, 4095, 4095, 4095, 4095, 4095, 4095, 4095, 4095, 4095, 4095, 4095, 4095, 4095, 4095, 4095, 4095, 4095, 4095, 4095, 4095, 4095, 4095, 4095, 4095, 4095, 4095, 4095, 4095, 4095, 4095, 4095, 4095, 4095, 4095, 4095, 4095, 4095, 4095, 4095, 4095, 4095, 4095, 4095, 4095, 4095, 4095, 4095, 4095, 4095, 4095, 4095, 4095, 4095, 4095, 4095, 4095, 4095, 4095, 4095, 4095, 4095, 4095, 4095, 4095, 4095, 4095, 4095, 4095, 4095, 4095],
      "WindowCenter": [852.0, 850.0, 849.0, 849.0, 849.0, 849.0, 849.0, 850.0, 850.0, 850.0, 850.0, 850.0, 850.0, 851.0, 851.0, 851.0, 847.0, 847.0, 853.0, 843.0, 851.0, 849.0, 846.0, 846.0, 853.0, 852.0, 854.0, 854.0, 853.0, 852.0, 852.0, 853.0, 852.0, 853.0, 853.0, 854.0, 854.0, 853.0, 853.0, 852.0, 852.0, 853.0, 855.0, 855.0, 853.0, 853.0, 852.0, 853.0, 853.0, 855.0, 855.0, 854.0, 854.0, 853.0, 853.0, 853.0, 854.0, 855.0, 855.0, 854.0, 852.0, 851.0, 851.0, 852.0, 852.0, 852.0, 852.0, 852.0, 851.0, 851.0, 851.0, 851.0, 852.0, 845.0, 849.0, 849.0, 847.0, 846.0, 845.0, 845.0, 847.0, 848.0, 849.0, 850.0, 850.0, 850.0, 850.0, 850.0, 851.0, 852.0, 852.0, 852.0, 851.0, 850.0, 849.0, 853.0, 849.0, 851.0, 845.0, 848.0, 846.0, 849.0, 845.0, 852.0, 852.0, 851.0, 852.0, 852.0, 851.0, 852.0, 852.0, 851.0, 852.0, 853.0, 854.0, 853.0, 852.0, 852.0, 851.0, 852.0, 853.0, 852.0, 852.0, 852.0, 852.0, 853.0, 852.0, 852.0, 851.0, 844.0, 853.0, 849.0, 852.0, 853.0, 850.0, 854.0, 854.0, 854.0, 854.0, 853.0, 854.0, 852.0, 854.0, 855.0, 856.0, 855.0, 854.0, 855.0, 855.0, 854.0, 852.0, 853.0, 854.0, 853.0, 853.0, 851.0, 850.0, 848.0, 848.0, 847.0, 848.0, 849.0, 852.0, 851.0, 850.0, 850.0, 850.0, 850.0, 849.0, 852.0, 853.0, 851.0, 850.0, 850.0, 850.0, 851.0, 852.0, 852.0, 851.0, 849.0, 849.0, 850.0, 850.0, 850.0, 851.0, 853.0, 854.0, 852.0, 851.0, 850.0, 852.0, 852.0, 852.0, 852.0, 853.0, 854.0, 853.0, 852.0, 851.0, 851.0, 851.0, 852.0, 852.0, 851.0, 850.0, 850.0, 850.0, 851.0, 849.0, 842.0, 852.0, 846.0, 846.0, 850.0, 846.0, 851.0, 849.0, 848.0, 848.0, 850.0, 851.0, 851.0, 850.0, 851.0, 852.0, 853.0, 854.0, 853.0, 851.0, 851.0, 852.0, 852.0],
      "WindowWidth": [1856.0, 1851.0, 1849.0, 1849.0, 1848.0, 1849.0, 1849.0, 1850.0, 1849.0, 1850.0, 1850.0, 1850.0, 1851.0, 1854.0, 1854.0, 1853.0, 1844.0, 1844.0, 1860.0, 1834.0, 1854.0, 1848.0, 1840.0, 1841.0, 1860.0, 1855.0, 1862.0, 1861.0, 1857.0, 1855.0, 1856.0, 1857.0, 1856.0, 1857.0, 1859.0, 1862.0, 1860.0, 1858.0, 1857.0, 1855.0, 1857.0, 1858.0, 1864.0, 1862.0, 1858.0, 1857.0, 1856.0, 1857.0, 1858.0, 1863.0, 1864.0, 1860.0, 1859.0, 1858.0, 1857.0, 1857.0, 1859.0, 1863.0, 1864.0, 1859.0, 1854.0, 1853.0, 1853.0, 1857.0, 1856.0, 1855.0, 1856.0, 1856.0, 1854.0, 1852.0, 1853.0, 1853.0, 1854.0, 1839.0, 1847.0, 1846.0, 1840.0, 1837.0, 1836.0, 1837.0, 1842.0, 1845.0, 1848.0, 1849.0, 1849.0, 1851.0, 1851.0, 1851.0, 1852.0, 1856.0, 1855.0, 1856.0, 1854.0, 1850.0, 1846.0, 1859.0, 1847.0, 1855.0, 1838.0, 1848.0, 1843.0, 1848.0, 1839.0, 1857.0, 1856.0, 1851.0, 1856.0, 1856.0, 1854.0, 1855.0, 1855.0, 1854.0, 1856.0, 1859.0, 1861.0, 1858.0, 1855.0, 1855.0, 1854.0, 1856.0, 1857.0, 1856.0, 1855.0, 1855.0, 1856.0, 1857.0, 1856.0, 1855.0, 1852.0, 1837.0, 1861.0, 1848.0, 1856.0, 1859.0, 1851.0, 1862.0, 1860.0, 1860.0, 1861.0, 1860.0, 1861.0, 1857.0, 1860.0, 1864.0, 1866.0, 1863.0, 1863.0, 1864.0, 1863.0, 1860.0, 1857.0, 1857.0, 1861.0, 1858.0, 1858.0, 1851.0, 1849.0, 1844.0, 1844.0, 1842.0, 1843.0, 1847.0, 1854.0, 1851.0, 1849.0, 1848.0, 1849.0, 1848.0, 1848.0, 1856.0, 1857.0, 1853.0, 1850.0, 1849.0, 1849.0, 1852.0, 1854.0, 1854.0, 1850.0, 1847.0, 1847.0, 1849.0, 1850.0, 1851.0, 1851.0, 1857.0, 1859.0, 1855.0, 1851.0, 1850.0, 1854.0, 1856.0, 1855.0, 1855.0, 1859.0, 1860.0, 1858.0, 1855.0, 1853.0, 1852.0, 1852.0, 1856.0, 1856.0, 1853.0, 1851.0, 1850.0, 1851.0, 1851.0, 1848.0, 1831.0, 1858.0, 1840.0, 1842.0, 1852.0, 1840.0, 1853.0, 1846.0, 1843.0, 1844.0, 1850.0, 1852.0, 1850.0, 1849.0, 1853.0, 1854.0, 1858.0, 1861.0, 1857.0, 1853.0, 1853.0, 1855.0, 1854.0]
    },
    "slices": {}
  }
}