{
  "AcquisitionMatrixPE": 100,
  "AcquisitionNumber": 1,
  "AcquisitionTime": "13:16:9.250000",
  "BandwidthPerPixelPhaseEncode": 18.519,
  "BaseResolution": 100,
  "BodyPartExamined": "BRAIN",
  "ConsistencyInfo": "N4_VE11C_LATEST_20160120",
  "ConversionSoftware": "dcm2niix",
  "ConversionSoftwareVersion": "v1.0.20180622 GCC4.9.2",
  "DerivedVendorReportedEchoSpacing": 0.000539986,
  "DeviceSerialNumber": "166078",
  "DwellTime": 2.1e-06,
  "EchoTime": 0.034,
  "EchoTrainLength": 100,
  "EffectiveEchoSpacing": 0.000539986,
  "FlipAngle": 90,
  "ImageOrientationPatientDICOM": [1, 0, 0, 0, 0.971134, -0.238533],
  "ImageType": [
    "ORIGINAL",
    "PRIMARY",
    "M",
    "ND",
    "MOSAIC"
],
  "InPlanePhaseEncodingDirectionDICOM": "COL",
  "InstitutionAddress": "Street_StreetNo_Bei_Jing_District_CN_ZIP",
  "InstitutionName": "BeiJing_Normal_University",
  "InstitutionalDepartmentName": "Department",
  "MRAcquisitionType": "2D",
  "MagneticFieldStrength": 3,
  "Manufacturer": "Siemens",
  "ManufacturersModelName": "Prisma",
  "Modality": "MR",
  "MultibandAccelerationFactor": 3,
  "PartialFourier": 1,
  "PatientPosition": "HFS",
  "PercentPhaseFOV": 100,
  "PhaseEncodingDirection": "j-",
  "PhaseEncodingSteps": 100,
  "PhaseResolution": 1,
  "PixelBandwidth": 2380,
  "ProcedureStepDescription": "BNU_P2018_64CH_Liu.Jia",
  "ProtocolName": "bold_100x100_s3_2x2x2_232",
  "PulseSequenceDetails": "%SiemensSeq%_ep2d_bold",
  "ReceiveCoilActiveElements": "HC1-7;NC1",
  "ReceiveCoilName": "HeadNeck_64",
  "ReconMatrixPE": 100,
  "RepetitionTime": 2,
  "SAR": 0.0854914,
  "ScanOptions": "FS",
  "ScanningSequence": "EP",
  "SequenceName": "_epfid2d1_100",
  "SequenceVariant": "SK",
  "SeriesDescription": "bold_100x100_s3_2x2x2_232",
  "SeriesNumber": 8,
  "ShimSetting": [-5468, -11485, -1241, 381, -16, -306, -27, 43],
  "SliceThickness": 2,
  "SliceTiming": [1.485, 0, 0.99, 0.0825, 1.0725, 0.165, 1.155, 0.2475, 1.2375, 0.33, 1.32, 0.4125, 1.4025, 0.5775, 1.5675, 0.66, 1.65, 0.7425, 1.7325, 0.825, 1.815, 0.9075, 1.8975, 0.495, 1.485, 0, 0.99, 0.0825, 1.0725, 0.165, 1.155, 0.2475, 1.2375, 0.33, 1.32, 0.4125, 1.4025, 0.5775, 1.5675, 0.66, 1.65, 0.7425, 1.7325, 0.825, 1.815, 0.9075, 1.8975, 0.495, 1.485, 0, 0.99, 0.0825, 1.0725, 0.165, 1.155, 0.2475, 1.2375, 0.33, 1.32, 0.4125, 1.4025, 0.5775, 1.5675, 0.66, 1.65, 0.7425, 1.7325, 0.825, 1.815, 0.9075, 1.8975, 0.495],
  "SoftwareVersions": "syngo_MR_E11",
  "SpacingBetweenSlices": 2,
  "StationName": "AWP166078",
  "TaskName": "motor",
  "TotalReadoutTime": 0.0534586,
  "TxRefAmp": 244.423,
  "dcmmeta_affine": [
    [-2.0, 0.0, 0.0, 100.0],
    [0.0, 1.9422686100006104, -0.4770669639110565, -72.95817565917969],
    [0.0, 0.47706693410873413, 1.9422686100006104, -80.18223571777344],
    [0.0, 0.0, 0.0, 1.0]
],
  "dcmmeta_reorient_transform": [
    [0.0, -1.0, 0.0, 99.0],
    [1.0, 0.0, 0.0, 0.0],
    [0.0, 0.0, 1.0, 0.0],
    [0.0, 0.0, 0.0, 1.0]
],
  "dcmmeta_shape": [100, 100, 72, 232],
  "dcmmeta_slice_dim": 2,
  "dcmmeta_version": 0.6,
  "global": {
    "const": {
      "AcquisitionMatrix": [100, 0, 0, 100],
      "AngioFlag": "N",
      "BitsAllocated": 16,
      "BitsStored": 12,
      "BodyPartExamined": "BRAIN",
      "Columns": 900,
      "EchoNumbers": 1,
      "EchoTime": 34.0,
      "EchoTrainLength": 100,
      "FlipAngle": 90.0,
      "HighBit": 11,
      "ImageOrientationPatient": [1.0, 0.0, 0.0, 0.0, 0.97113427618897, -0.2385334727264],
      "ImagePositionPatient": [-900.0, -896.23383265516, 157.87417147428],
      "ImageType": [
        "ORIGINAL",
        "PRIMARY",
        "M",
        "ND",
        "MOSAIC"
],
      "ImagedNucleus": "1H",
      "ImagingFrequency": 123.257795,
      "InPlanePhaseEncodingDirection": "COL",
      "MRAcquisitionType": "2D",
      "MagneticFieldStrength": 3.0,
      "Manufacturer": "SIEMENS",
      "ManufacturerModelName": "Prisma",
      "Modality": "MR",
      "NumberOfAverages": 1.0,
      "NumberOfPhaseEncodingSteps": 100,
      "PercentPhaseFieldOfView": 100.0,
      "PercentSampling": 100.0,
      "PerformedProcedureStepStartTime": "124412.632000",
      "PhotometricInterpretation": "MONOCHROME2",
      "PixelBandwidth": 2380.0,
      "PixelRepresentation": 0,
      "PixelSpacing": [2.0, 2.0],
      "ProtocolName": "bold_100x100_s3_2x2x2_232",
      "RepetitionTime": 2000.0,
      "Rows": 900,
      "SAR": 0.08549136631308,
      "SamplesPerPixel": 1,
      "ScanOptions": "FS",
      "ScanningSequence": "EP",
      "SequenceName": "*epfid2d1_100",
      "SequenceVariant": "SK",
      "SeriesDescription": "bold_100x100_s3_2x2x2_232",
      "SeriesNumber": 8,
      "SeriesTime": "131611.623000",
      "SliceLocation": -60.46474923453,
      "SliceThickness": 2.0,
      "SmallestImagePixelValue": 0,
      "SoftwareVersions": "syngo MR E11",
      "SpacingBetweenSlices": 2.0000000254196,
      "SpecificCharacterSet": "ISO_IR 100",
      "StudyID": "1",
      "StudyTime": "124412.533000",
      "TransmitCoilName": "Body",
      "VariableFlipAngleFlag": "N",
      "WindowCenterWidthExplanation": "Algo1",
      "dBdt": 0.0},
    "slices": {}
  },
  "time": {
    "samples": {
      "AcquisitionNumber": [1, 2, 3, 4, 5, 6, 7, 8, 9, 10, 11, 12, 13, 14, 15, 16, 17, 18, 19, 20, 21, 22, 23, 24, 25, 26, 27, 28, 29, 30, 31, 32, 33, 34, 35, 36, 37, 38, 39, 40, 41, 42, 43, 44, 45, 46, 47, 48, 49, 50, 51, 52, 53, 54, 55, 56, 57, 58, 59, 60, 61, 62, 63, 64, 65, 66, 67, 68, 69, 70, 71, 72, 73, 74, 75, 76, 77, 78, 79, 80, 81, 82, 83, 84, 85, 86, 87, 88, 89, 90, 91, 92, 93, 94, 95, 96, 97, 98, 99, 100, 101, 102, 103, 104, 105, 106, 107, 108, 109, 110, 111, 112, 113, 114, 115, 116, 117, 118, 119, 120, 121, 122, 123, 124, 125, 126, 127, 128, 129, 130, 131, 132, 133, 134, 135, 136, 137, 138, 139, 140, 141, 142, 143, 144, 145, 146, 147, 148, 149, 150, 151, 152, 153, 154, 155, 156, 157, 158, 159, 160, 161, 162, 163, 164, 165, 166, 167, 168, 169, 170, 171, 172, 173, 174, 175, 176, 177, 178, 179, 180, 181, 182, 183, 184, 185, 186, 187, 188, 189, 190, 191, 192, 193, 194, 195, 196, 197, 198, 199, 200, 201, 202, 203, 204, 205, 206, 207, 208, 209, 210, 211, 212, 213, 214, 215, 216, 217, 218, 219, 220, 221, 222, 223, 224, 225, 226, 227, 228, 229, 230, 231, 232],
      "AcquisitionTime": ["131609.250000", "131611.250000", "131613.250000", "131615.250000", "131617.250000", "131619.250000", "131621.250000", "131623.250000", "131625.250000", "131627.250000", "131629.250000", "131631.250000", "131633.250000", "131635.250000", "131637.250000", "131639.250000", "131641.250000", "131643.250000", "131645.250000", "131647.250000", "131649.250000", "131651.250000", "131653.250000", "131655.250000", "131657.250000", "131659.250000", "131701.250000", "131703.250000", "131705.250000", "131707.250000", "131709.250000", "131711.250000", "131713.250000", "131715.250000", "131717.250000", "131719.250000", "131721.250000", "131723.250000", "131725.250000", "131727.250000", "131729.250000", "131731.250000", "131733.250000", "131735.250000", "131737.250000", "131739.250000", "131741.250000", "131743.250000", "131745.250000", "131747.250000", "131749.250000", "131751.250000", "131753.250000", "131755.250000", "131757.250000", "131759.250000", "131801.250000", "131803.250000", "131805.250000", "131807.250000", "131809.250000", "131811.250000", "131813.250000", "131815.250000", "131817.250000", "131819.250000", "131821.250000", "131823.250000", "131825.250000", "131827.250000", "131829.250000", "131831.250000", "131833.250000", "131835.250000", "131837.250000", "131839.250000", "131841.250000", "131843.250000", "131845.250000", "131847.250000", "131849.250000", "131851.250000", "131853.250000", "131855.250000", "131857.250000", "131859.250000", "131901.250000", "131903.250000", "131905.250000", "131907.250000", "131909.250000", "131911.250000", "131913.250000", "131915.250000", "131917.250000", "131919.250000", "131921.250000", "131923.250000", "131925.250000", "131927.250000", "131929.250000", "131931.250000", "131933.250000", "131935.250000", "131937.250000", "131939.250000", "131941.250000", "131943.250000", "131945.250000", "131947.250000", "131949.250000", "131951.250000", "131953.250000", "131955.250000", "131957.250000", "131959.250000", "132001.250000", "132003.250000", "132005.250000", "132007.250000", "132009.250000", "132011.250000", "132013.250000", "132015.250000", "132017.250000", "132019.250000", "132021.250000", "132023.250000", "132025.250000", "132027.250000", "132029.250000", "132031.250000", "132033.250000", "132035.250000", "132037.250000", "132039.250000", "132041.250000", "132043.250000", "132045.250000", "132047.250000", "132049.250000", "132051.250000", "132053.250000", "132055.250000", "132057.250000", "132059.250000", "132101.250000", "132103.250000", "132105.250000", "132107.250000", "132109.250000", "132111.250000", "132113.250000", "132115.250000", "132117.250000", "132119.250000", "132121.250000", "132123.250000", "132125.250000", "132127.250000", "132129.250000", "132131.250000", "132133.250000", "132135.250000", "132137.250000", "132139.250000", "132141.250000", "132143.250000", "132145.250000", "132147.250000", "132149.250000", "132151.250000", "132153.250000", "132155.250000", "132157.250000", "132159.250000", "132201.250000", "132203.250000", "132205.250000", "132207.250000", "132209.250000", "132211.250000", "132213.250000", "132215.250000", "132217.250000", "132219.250000", "132221.250000", "132223.250000", "132225.250000", "132227.250000", "132229.250000", "132231.250000", "132233.250000", "132235.250000", "132237.250000", "132239.250000", "132241.250000", "132243.250000", "132245.250000", "132247.250000", "132249.250000", "132251.250000", "132253.250000", "132255.250000", "132257.250000", "132259.250000", "132301.250000", "132303.250000", "132305.250000", "132307.250000", "132309.250000", "132311.250000", "132313.250000", "132315.250000", "132317.250000", "132319.250000", "132321.250000", "132323.250000", "132325.250000", "132327.250000", "132329.250000", "132331.250000", "132333.250000", "132335.250000", "132337.250000", "132339.250000", "132341.250000", "132343.250000", "132345.250000", "132347.250000", "132349.250000", "132351.250000"],
      "ContentTime": ["131611.627000", "131613.122000", "131615.122000", "131617.121000", "131619.121000", "131621.122000", "131623.122000", "131625.122000", "131627.122000", "131629.123000", "131631.122000", "131633.122000", "131635.121000", "131637.121000", "131639.122000", "131641.122000", "131643.122000", "131645.122000", "131647.122000", "131649.122000", "131651.122000", "131653.121000", "131655.122000", "131657.122000", "131659.122000", "131701.122000", "131703.122000", "131705.122000", "131707.122000", "131709.121000", "131711.121000", "131713.122000", "131715.122000", "131717.123000", "131719.122000", "131721.122000", "131723.122000", "131725.122000", "131727.122000", "131729.121000", "131731.122000", "131733.122000", "131735.123000", "131737.122000", "131739.122000", "131741.122000", "131743.122000", "131745.121000", "131747.121000", "131749.122000", "131751.122000", "131753.122000", "131755.122000", "131757.122000", "131759.122000", "131801.122000", "131803.121000", "131805.122000", "131807.122000", "131809.123000", "131811.122000", "131813.122000", "131815.122000", "131817.122000", "131819.121000", "131821.122000", "131823.122000", "131825.122000", "131827.122000", "131829.123000", "131831.123000", "131833.122000", "131835.123000", "131837.122000", "131839.121000", "131841.122000", "131843.122000", "131845.122000", "131847.122000", "131849.123000", "131851.122000", "131853.122000", "131855.121000", "131857.121000", "131859.122000", "131901.122000", "131903.122000", "131905.122000", "131907.123000", "131909.123000", "131911.121000", "131913.121000", "131915.122000", "131917.122000", "131919.122000", "131921.122000", "131923.122000", "131925.122000", "131927.122000", "131929.121000", "131931.122000", "131933.122000", "131935.122000", "131937.123000", "131939.122000", "131941.122000", "131943.122000", "131945.122000", "131947.122000", "131949.121000", "131951.122000", "131953.122000", "131955.122000", "131957.122000", "131959.122000", "132001.122000", "132003.122000", "132005.122000", "132007.122000", "132009.123000", "132011.122000", "132013.122000", "132015.123000", "132017.122000", "132019.123000", "132021.122000", "132023.122000", "132025.122000", "132027.122000", "132029.122000", "132031.123000", "132033.122000", "132035.122000", "132037.122000", "132039.122000", "132041.122000", "132043.122000", "132045.122000", "132047.122000", "132049.122000", "132051.122000", "132053.123000", "132055.123000", "132057.122000", "132059.121000", "132101.123000", "132103.122000", "132105.123000", "132107.122000", "132109.122000", "132111.123000", "132113.122000", "132115.122000", "132117.123000", "132119.123000", "132121.123000", "132123.122000", "132125.122000", "132127.123000", "132129.122000", "132131.121000", "132133.121000", "132135.122000", "132137.123000", "132139.122000", "132141.122000", "132143.122000", "132145.122000", "132147.122000", "132149.121000", "132151.121000", "132153.122000", "132155.122000", "132157.122000", "132159.122000", "132201.122000", "132203.122000", "132205.123000", "132207.121000", "132209.122000", "132211.122000", "132213.122000", "132215.123000", "132217.123000", "132219.122000", "132221.122000", "132223.122000", "132225.122000", "132227.123000", "132229.123000", "132231.123000", "132233.123000", "132235.122000", "132237.123000", "132239.122000", "132241.121000", "132243.122000", "132245.122000", "132247.123000", "132249.123000", "132251.122000", "132253.122000", "132255.122000", "132257.122000", "132259.121000", "132301.122000", "132303.122000", "132305.123000", "132307.122000", "132309.122000", "132311.123000", "132313.122000", "132315.122000", "132317.122000", "132319.121000", "132321.122000", "132323.122000", "132325.123000", "132327.122000", "132329.123000", "132331.122000", "132333.122000", "132335.122000", "132337.122000", "132339.122000", "132341.122000", "132343.123000", "132345.122000", "132347.122000", "132349.122000", "132351.121000", "132352.776000"],
      "InstanceCreationTime": ["131611.627000", "131613.122000", "131615.122000", "131617.121000", "131619.121000", "131621.122000", "131623.122000", "131625.122000", "131627.122000", "131629.123000", "131631.122000", "131633.122000", "131635.121000", "131637.121000", "131639.122000", "131641.122000", "131643.122000", "131645.122000", "131647.122000", "131649.122000", "131651.122000", "131653.121000", "131655.122000", "131657.122000", "131659.122000", "131701.122000", "131703.122000", "131705.122000", "131707.122000", "131709.121000", "131711.121000", "131713.122000", "131715.122000", "131717.123000", "131719.122000", "131721.122000", "131723.122000", "131725.122000", "131727.122000", "131729.121000", "131731.122000", "131733.122000", "131735.123000", "131737.122000", "131739.122000", "131741.122000", "131743.122000", "131745.121000", "131747.121000", "131749.122000", "131751.122000", "131753.122000", "131755.122000", "131757.122000", "131759.122000", "131801.122000", "131803.121000", "131805.122000", "131807.122000", "131809.123000", "131811.122000", "131813.122000", "131815.122000", "131817.122000", "131819.121000", "131821.122000", "131823.122000", "131825.122000", "131827.122000", "131829.123000", "131831.123000", "131833.122000", "131835.123000", "131837.122000", "131839.121000", "131841.122000", "131843.122000", "131845.122000", "131847.122000", "131849.123000", "131851.122000", "131853.122000", "131855.121000", "131857.121000", "131859.122000", "131901.122000", "131903.122000", "131905.122000", "131907.123000", "131909.123000", "131911.121000", "131913.121000", "131915.122000", "131917.122000", "131919.122000", "131921.122000", "131923.122000", "131925.122000", "131927.122000", "131929.121000", "131931.122000", "131933.122000", "131935.122000", "131937.123000", "131939.122000", "131941.122000", "131943.122000", "131945.122000", "131947.122000", "131949.121000", "131951.122000", "131953.122000", "131955.122000", "131957.122000", "131959.122000", "132001.122000", "132003.122000", "132005.122000", "132007.122000", "132009.123000", "132011.122000", "132013.122000", "132015.123000", "132017.122000", "132019.123000", "132021.122000", "132023.122000", "132025.122000", "132027.122000", "132029.122000", "132031.123000", "132033.122000", "132035.122000", "132037.122000", "132039.122000", "132041.122000", "132043.122000", "132045.122000", "132047.122000", "132049.122000", "132051.122000", "132053.123000", "132055.123000", "132057.122000", "132059.121000", "132101.123000", "132103.122000", "132105.123000", "132107.122000", "132109.122000", "132111.123000", "132113.122000", "132115.122000", "132117.123000", "132119.123000", "132121.123000", "132123.122000", "132125.122000", "132127.123000", "132129.122000", "132131.121000", "132133.121000", "132135.122000", "132137.123000", "132139.122000", "132141.122000", "132143.122000", "132145.122000", "132147.122000", "132149.121000", "132151.121000", "132153.122000", "132155.122000", "132157.122000", "132159.122000", "132201.122000", "132203.122000", "132205.123000", "132207.121000", "132209.122000", "132211.122000", "132213.122000", "132215.123000", "132217.123000", "132219.122000", "132221.122000", "132223.122000", "132225.122000", "132227.123000", "132229.123000", "132231.123000", "132233.123000", "132235.122000", "132237.123000", "132239.122000", "132241.121000", "132243.122000", "132245.122000", "132247.123000", "132249.123000", "132251.122000", "132253.122000", "132255.122000", "132257.122000", "132259.121000", "132301.122000", "132303.122000", "132305.123000", "132307.122000", "132309.122000", "132311.123000", "132313.122000", "132315.122000", "132317.122000", "132319.121000", "132321.122000", "132323.122000", "132325.123000", "132327.122000", "132329.123000", "132331.122000", "132333.122000", "132335.122000", "132337.122000", "132339.122000", "132341.122000", "132343.123000", "132345.122000", "132347.122000", "132349.122000", "132351.121000", "132352.776000"],
      "InstanceNumber": [1, 2, 3, 4, 5, 6, 7, 8, 9, 10, 11, 12, 13, 14, 15, 16, 17, 18, 19, 20, 21, 22, 23, 24, 25, 26, 27, 28, 29, 30, 31, 32, 33, 34, 35, 36, 37, 38, 39, 40, 41, 42, 43, 44, 45, 46, 47, 48, 49, 50, 51, 52, 53, 54, 55, 56, 57, 58, 59, 60, 61, 62, 63, 64, 65, 66, 67, 68, 69, 70, 71, 72, 73, 74, 75, 76, 77, 78, 79, 80, 81, 82, 83, 84, 85, 86, 87, 88, 89, 90, 91, 92, 93, 94, 95, 96, 97, 98, 99, 100, 101, 102, 103, 104, 105, 106, 107, 108, 109, 110, 111, 112, 113, 114, 115, 116, 117, 118, 119, 120, 121, 122, 123, 124, 125, 126, 127, 128, 129, 130, 131, 132, 133, 134, 135, 136, 137, 138, 139, 140, 141, 142, 143, 144, 145, 146, 147, 148, 149, 150, 151, 152, 153, 154, 155, 156, 157, 158, 159, 160, 161, 162, 163, 164, 165, 166, 167, 168, 169, 170, 171, 172, 173, 174, 175, 176, 177, 178, 179, 180, 181, 182, 183, 184, 185, 186, 187, 188, 189, 190, 191, 192, 193, 194, 195, 196, 197, 198, 199, 200, 201, 202, 203, 204, 205, 206, 207, 208, 209, 210, 211, 212, 213, 214, 215, 216, 217, 218, 219, 220, 221, 222, 223, 224, 225, 226, 227, 228, 229, 230, 231, 232],
      "LargestImagePixelValue": [2780, 2757, 2814, 2710, 2773, 2687, 2733, 2701, 2767, 2881, 2745, 2823, 2755, 2846, 2811, 2770, 2752, 2744, 2760, 2833, 2765, 2793, 2786, 2776, 2890, 2829, 2860, 2748, 2717, 2667, 2704, 2825, 2740, 2760, 2731, 2806, 2741, 2766, 2784, 2743, 2769, 2772, 2738, 2772, 2741, 2801, 2730, 2786, 2851, 2793, 2746, 2756, 2727, 2779, 2707, 2742, 2731, 2833, 2704, 2722, 2791, 2685, 2841, 2809, 2714, 2751, 2763, 2697, 2820, 2738, 2723, 2751, 2755, 2867, 2748, 2753, 2782, 2747, 2689, 2862, 2907, 2904, 2916, 2864, 2893, 2796, 2904, 2910, 2895, 2869, 2854, 2784, 2771, 2819, 2715, 2773, 2609, 2681, 2716, 2636, 2767, 2721, 2685, 2710, 2713, 2710, 2749, 2753, 2729, 2738, 2721, 2779, 2675, 2719, 2678, 2673, 2709, 2720, 2694, 2677, 2692, 2744, 2718, 2743, 2684, 2736, 2759, 2702, 2704, 2742, 2782, 2762, 2853, 2818, 2885, 2809, 2842, 2779, 2842, 2810, 2849, 2844, 2839, 2789, 2815, 2842, 2763, 2818, 2873, 2845, 2841, 2793, 2842, 2776, 2792, 2745, 2941, 2839, 2789, 2717, 2684, 2667, 2685, 2684, 2654, 2694, 2704, 2696, 2781, 2716, 2685, 2753, 2778, 2743, 2738, 2666, 2659, 2717, 2696, 2662, 2690, 2679, 2777, 2726, 2756, 3000, 2884, 2838, 2784, 2810, 2809, 2783, 2695, 2735, 2691, 2707, 2690, 2710, 2763, 2728, 2846, 2723, 2749, 2828, 2780, 2749, 2756, 2793, 2742, 2705, 2709, 2710, 2707, 2702, 2696, 2763, 2689, 2780, 2748, 2711, 2698, 2726, 2749, 2780, 2678, 2846, 2824, 2757, 2833, 2840, 2787, 2816],
      "WindowCenter": [728.0, 728.0, 728.0, 726.0, 726.0, 723.0, 724.0, 723.0, 723.0, 725.0, 724.0, 725.0, 723.0, 725.0, 724.0, 725.0, 727.0, 726.0, 727.0, 728.0, 726.0, 727.0, 726.0, 728.0, 731.0, 729.0, 728.0, 726.0, 724.0, 722.0, 723.0, 725.0, 722.0, 723.0, 722.0, 724.0, 723.0, 725.0, 726.0, 724.0, 725.0, 725.0, 723.0, 725.0, 724.0, 724.0, 723.0, 724.0, 724.0, 722.0, 723.0, 723.0, 723.0, 723.0, 721.0, 723.0, 724.0, 725.0, 724.0, 723.0, 723.0, 721.0, 721.0, 721.0, 723.0, 722.0, 723.0, 722.0, 721.0, 721.0, 723.0, 723.0, 726.0, 726.0, 724.0, 722.0, 721.0, 720.0, 720.0, 718.0, 723.0, 722.0, 723.0, 722.0, 722.0, 722.0, 722.0, 723.0, 725.0, 725.0, 726.0, 724.0, 724.0, 724.0, 721.0, 722.0, 718.0, 720.0, 722.0, 719.0, 722.0, 720.0, 721.0, 721.0, 721.0, 722.0, 724.0, 723.0, 723.0, 724.0, 723.0, 723.0, 722.0, 723.0, 723.0, 722.0, 722.0, 723.0, 722.0, 722.0, 723.0, 723.0, 723.0, 724.0, 723.0, 724.0, 725.0, 723.0, 724.0, 725.0, 725.0, 726.0, 725.0, 724.0, 725.0, 722.0, 724.0, 722.0, 723.0, 724.0, 723.0, 723.0, 723.0, 722.0, 723.0, 724.0, 723.0, 726.0, 726.0, 725.0, 725.0, 724.0, 724.0, 721.0, 723.0, 722.0, 722.0, 720.0, 722.0, 719.0, 720.0, 720.0, 721.0, 720.0, 720.0, 724.0, 724.0, 724.0, 725.0, 723.0, 723.0, 728.0, 726.0, 724.0, 722.0, 720.0, 720.0, 721.0, 720.0, 722.0, 722.0, 722.0, 725.0, 723.0, 724.0, 728.0, 726.0, 726.0, 724.0, 725.0, 725.0, 725.0, 723.0, 723.0, 722.0, 722.0, 723.0, 722.0, 723.0, 723.0, 724.0, 722.0, 723.0, 725.0, 723.0, 721.0, 721.0, 723.0, 721.0, 721.0, 722.0, 722.0, 721.0, 722.0, 721.0, 723.0, 724.0, 723.0, 723.0, 724.0, 722.0, 724.0, 724.0, 725.0, 723.0, 727.0, 727.0, 726.0, 728.0, 728.0, 725.0, 725.0],
      "WindowWidth": [1551.0, 1551.0, 1552.0, 1547.0, 1546.0, 1538.0, 1542.0, 1538.0, 1540.0, 1544.0, 1541.0, 1543.0, 1540.0, 1545.0, 1543.0, 1543.0, 1547.0, 1544.0, 1548.0, 1550.0, 1546.0, 1548.0, 1547.0, 1550.0, 1557.0, 1552.0, 1550.0, 1545.0, 1542.0, 1537.0, 1540.0, 1542.0, 1536.0, 1538.0, 1535.0, 1541.0, 1539.0, 1542.0, 1546.0, 1542.0, 1544.0, 1543.0, 1539.0, 1542.0, 1540.0, 1540.0, 1538.0, 1539.0, 1540.0, 1537.0, 1538.0, 1539.0, 1539.0, 1539.0, 1534.0, 1539.0, 1542.0, 1543.0, 1541.0, 1540.0, 1538.0, 1533.0, 1534.0, 1535.0, 1539.0, 1537.0, 1538.0, 1536.0, 1534.0, 1535.0, 1539.0, 1540.0, 1546.0, 1548.0, 1541.0, 1537.0, 1533.0, 1532.0, 1531.0, 1525.0, 1537.0, 1535.0, 1537.0, 1536.0, 1536.0, 1535.0, 1536.0, 1538.0, 1542.0, 1543.0, 1545.0, 1543.0, 1540.0, 1541.0, 1534.0, 1537.0, 1528.0, 1532.0, 1537.0, 1530.0, 1537.0, 1531.0, 1533.0, 1534.0, 1535.0, 1536.0, 1539.0, 1539.0, 1537.0, 1541.0, 1537.0, 1538.0, 1536.0, 1537.0, 1537.0, 1535.0, 1536.0, 1538.0, 1536.0, 1536.0, 1540.0, 1539.0, 1538.0, 1541.0, 1538.0, 1540.0, 1543.0, 1538.0, 1540.0, 1544.0, 1543.0, 1546.0, 1543.0, 1541.0, 1543.0, 1536.0, 1540.0, 1536.0, 1539.0, 1540.0, 1537.0, 1538.0, 1539.0, 1536.0, 1538.0, 1541.0, 1540.0, 1546.0, 1547.0, 1543.0, 1543.0, 1540.0, 1541.0, 1535.0, 1538.0, 1537.0, 1535.0, 1530.0, 1537.0, 1530.0, 1531.0, 1531.0, 1533.0, 1531.0, 1532.0, 1541.0, 1543.0, 1541.0, 1543.0, 1539.0, 1540.0, 1551.0, 1545.0, 1540.0, 1537.0, 1530.0, 1532.0, 1535.0, 1532.0, 1536.0, 1536.0, 1537.0, 1543.0, 1540.0, 1541.0, 1549.0, 1545.0, 1545.0, 1540.0, 1544.0, 1543.0, 1542.0, 1538.0, 1538.0, 1537.0, 1537.0, 1538.0, 1536.0, 1537.0, 1540.0, 1540.0, 1535.0, 1540.0, 1543.0, 1537.0, 1534.0, 1533.0, 1537.0, 1534.0, 1534.0, 1537.0, 1537.0, 1535.0, 1537.0, 1534.0, 1540.0, 1542.0, 1540.0, 1539.0, 1541.0, 1537.0, 1541.0, 1542.0, 1542.0, 1540.0, 1550.0, 1548.0, 1545.0, 1551.0, 1549.0, 1542.0, 1543.0]
    },
    "slices": {}
  }
}