{
  "AcquisitionMatrixPE": 100,
  "AcquisitionNumber": 1,
  "AcquisitionTime": "10:42:49.840000",
  "BandwidthPerPixelPhaseEncode": 18.519,
  "BaseResolution": 100,
  "BodyPartExamined": "BRAIN",
  "ConsistencyInfo": "N4_VE11C_LATEST_20160120",
  "ConversionSoftware": "dcm2niix",
  "ConversionSoftwareVersion": "v1.0.20180622 GCC4.9.2",
  "DerivedVendorReportedEchoSpacing": 0.000539986,
  "DeviceSerialNumber": "166078",
  "DwellTime": 2.1e-06,
  "EchoTime": 0.034,
  "EchoTrainLength": 100,
  "EffectiveEchoSpacing": 0.000539986,
  "FlipAngle": 90,
  "ImageOrientationPatientDICOM": [0.999152, 0.025026, 0.0327023, -0.015696, 0.965639, -0.259415],
  "ImageType": [
    "ORIGINAL",
    "PRIMARY",
    "M",
    "ND",
    "MOSAIC"
],
  "InPlanePhaseEncodingDirectionDICOM": "COL",
  "InstitutionAddress": "Street_StreetNo_Bei_Jing_District_CN_ZIP",
  "InstitutionName": "BeiJing_Normal_University",
  "InstitutionalDepartmentName": "Department",
  "MRAcquisitionType": "2D",
  "MagneticFieldStrength": 3,
  "Manufacturer": "Siemens",
  "ManufacturersModelName": "Prisma",
  "Modality": "MR",
  "MultibandAccelerationFactor": 3,
  "PartialFourier": 1,
  "PatientPosition": "HFS",
  "PercentPhaseFOV": 100,
  "PhaseEncodingDirection": "j-",
  "PhaseEncodingSteps": 100,
  "PhaseResolution": 1,
  "PixelBandwidth": 2380,
  "ProcedureStepDescription": "BNU_P2018_64CH_Liu.Jia",
  "ProtocolName": "bold_100x100_s3_2x2x2_232",
  "PulseSequenceDetails": "%SiemensSeq%_ep2d_bold",
  "ReceiveCoilActiveElements": "HC1-7;NC1",
  "ReceiveCoilName": "HeadNeck_64",
  "ReconMatrixPE": 100,
  "RepetitionTime": 2,
  "SAR": 0.0765725,
  "ScanOptions": "FS",
  "ScanningSequence": "EP",
  "SequenceName": "_epfid2d1_100",
  "SequenceVariant": "SK",
  "SeriesDescription": "bold_100x100_s3_2x2x2_232",
  "SeriesNumber": 5,
  "ShimSetting": [-5460, -11482, -1238, 508, -15, -78, -175, 37],
  "SliceThickness": 2,
  "SliceTiming": [1.485, 0, 0.99, 0.0825, 1.0725, 0.165, 1.155, 0.2475, 1.2375, 0.33, 1.32, 0.4125, 1.4025, 0.5775, 1.5675, 0.66, 1.65, 0.7425, 1.7325, 0.825, 1.815, 0.9075, 1.8975, 0.495, 1.485, 0, 0.99, 0.0825, 1.0725, 0.165, 1.155, 0.2475, 1.2375, 0.33, 1.32, 0.4125, 1.4025, 0.5775, 1.5675, 0.66, 1.65, 0.7425, 1.7325, 0.825, 1.815, 0.9075, 1.8975, 0.495, 1.485, 0, 0.99, 0.0825, 1.0725, 0.165, 1.155, 0.2475, 1.2375, 0.33, 1.32, 0.4125, 1.4025, 0.5775, 1.5675, 0.66, 1.65, 0.7425, 1.7325, 0.825, 1.815, 0.9075, 1.8975, 0.495],
  "SoftwareVersions": "syngo_MR_E11",
  "SpacingBetweenSlices": 2,
  "StationName": "AWP166078",
  "TaskName": "motor",
  "TotalReadoutTime": 0.0534586,
  "TxRefAmp": 233.13,
  "dcmmeta_affine": [
    [-1.9983035326004028, -0.0313919372856617, 0.07614148408174515, 102.82117462158203],
    [-0.050052087754011154, 1.9312770366668701, -0.5173624157905579, -69.71002197265625],
    [0.06540464609861374, 0.5188290476799011, 1.9304245710372925, -101.4394760131836],
    [0.0, 0.0, 0.0, 1.0]
],
  "dcmmeta_reorient_transform": [
    [0.0, -1.0, 0.0, 99.0],
    [1.0, 0.0, 0.0, 0.0],
    [0.0, 0.0, 1.0, 0.0],
    [0.0, 0.0, 0.0, 1.0]
],
  "dcmmeta_shape": [100, 100, 72, 232],
  "dcmmeta_slice_dim": 2,
  "dcmmeta_version": 0.6,
  "global": {
    "const": {
      "AcquisitionMatrix": [100, 0, 0, 100],
      "AngioFlag": "N",
      "BitsAllocated": 16,
      "BitsStored": 12,
      "BodyPartExamined": "BRAIN",
      "Columns": 900,
      "EchoNumbers": 1,
      "EchoTime": 34.0,
      "EchoTrainLength": 100,
      "FlipAngle": 90.0,
      "HighBit": 11,
      "ImageOrientationPatient": [0.9991517678411, 0.02502604411115, 0.03270232310034, -0.0156959678068, 0.9656385113953, -0.2594145368033],
      "ImagePositionPatient": [-886.47801549825, -914.01804471899, 131.29437215446],
      "ImageType": [
        "ORIGINAL",
        "PRIMARY",
        "M",
        "ND",
        "MOSAIC"
],
      "ImagedNucleus": "1H",
      "ImagingFrequency": 123.257838,
      "InPlanePhaseEncodingDirection": "COL",
      "MRAcquisitionType": "2D",
      "MagneticFieldStrength": 3.0,
      "Manufacturer": "SIEMENS",
      "ManufacturerModelName": "Prisma",
      "Modality": "MR",
      "NumberOfAverages": 1.0,
      "NumberOfPhaseEncodingSteps": 100,
      "PercentPhaseFieldOfView": 100.0,
      "PercentSampling": 100.0,
      "PerformedProcedureStepStartTime": "102220.594000",
      "PhotometricInterpretation": "MONOCHROME2",
      "PixelBandwidth": 2380.0,
      "PixelRepresentation": 0,
      "PixelSpacing": [2.0, 2.0],
      "ProtocolName": "bold_100x100_s3_2x2x2_232",
      "RepetitionTime": 2000.0,
      "Rows": 900,
      "SAR": 0.0765724901123,
      "SamplesPerPixel": 1,
      "ScanOptions": "FS",
      "ScanningSequence": "EP",
      "SequenceName": "*epfid2d1_100",
      "SequenceVariant": "SK",
      "SeriesDescription": "bold_100x100_s3_2x2x2_232",
      "SeriesNumber": 5,
      "SeriesTime": "104251.960000",
      "SliceLocation": -75.963472950795,
      "SliceThickness": 2.0,
      "SmallestImagePixelValue": 0,
      "SoftwareVersions": "syngo MR E11",
      "SpacingBetweenSlices": 2.0000000749309,
      "SpecificCharacterSet": "ISO_IR 100",
      "StudyID": "1",
      "StudyTime": "102220.543000",
      "TransmitCoilName": "Body",
      "VariableFlipAngleFlag": "N",
      "WindowCenterWidthExplanation": "Algo1",
      "dBdt": 0.0},
    "slices": {}
  },
  "time": {
    "samples": {
      "AcquisitionNumber": [1, 2, 3, 4, 5, 6, 7, 8, 9, 10, 11, 12, 13, 14, 15, 16, 17, 18, 19, 20, 21, 22, 23, 24, 25, 26, 27, 28, 29, 30, 31, 32, 33, 34, 35, 36, 37, 38, 39, 40, 41, 42, 43, 44, 45, 46, 47, 48, 49, 50, 51, 52, 53, 54, 55, 56, 57, 58, 59, 60, 61, 62, 63, 64, 65, 66, 67, 68, 69, 70, 71, 72, 73, 74, 75, 76, 77, 78, 79, 80, 81, 82, 83, 84, 85, 86, 87, 88, 89, 90, 91, 92, 93, 94, 95, 96, 97, 98, 99, 100, 101, 102, 103, 104, 105, 106, 107, 108, 109, 110, 111, 112, 113, 114, 115, 116, 117, 118, 119, 120, 121, 122, 123, 124, 125, 126, 127, 128, 129, 130, 131, 132, 133, 134, 135, 136, 137, 138, 139, 140, 141, 142, 143, 144, 145, 146, 147, 148, 149, 150, 151, 152, 153, 154, 155, 156, 157, 158, 159, 160, 161, 162, 163, 164, 165, 166, 167, 168, 169, 170, 171, 172, 173, 174, 175, 176, 177, 178, 179, 180, 181, 182, 183, 184, 185, 186, 187, 188, 189, 190, 191, 192, 193, 194, 195, 196, 197, 198, 199, 200, 201, 202, 203, 204, 205, 206, 207, 208, 209, 210, 211, 212, 213, 214, 215, 216, 217, 218, 219, 220, 221, 222, 223, 224, 225, 226, 227, 228, 229, 230, 231, 232],
      "AcquisitionTime": ["104249.840000", "104251.840000", "104253.840000", "104255.840000", "104257.840000", "104259.840000", "104301.840000", "104303.840000", "104305.840000", "104307.840000", "104309.840000", "104311.840000", "104313.840000", "104315.840000", "104317.840000", "104319.840000", "104321.840000", "104323.840000", "104325.840000", "104327.840000", "104329.840000", "104331.840000", "104333.840000", "104335.840000", "104337.840000", "104339.840000", "104341.840000", "104343.840000", "104345.840000", "104347.840000", "104349.840000", "104351.840000", "104353.840000", "104355.840000", "104357.840000", "104359.840000", "104401.840000", "104403.840000", "104405.840000", "104407.840000", "104409.840000", "104411.840000", "104413.840000", "104415.840000", "104417.840000", "104419.840000", "104421.840000", "104423.840000", "104425.840000", "104427.840000", "104429.840000", "104431.840000", "104433.840000", "104435.840000", "104437.840000", "104439.840000", "104441.840000", "104443.840000", "104445.840000", "104447.840000", "104449.840000", "104451.840000", "104453.840000", "104455.840000", "104457.840000", "104459.840000", "104501.840000", "104503.840000", "104505.840000", "104507.840000", "104509.840000", "104511.840000", "104513.840000", "104515.840000", "104517.840000", "104519.840000", "104521.840000", "104523.840000", "104525.840000", "104527.840000", "104529.840000", "104531.840000", "104533.840000", "104535.840000", "104537.840000", "104539.840000", "104541.840000", "104543.840000", "104545.840000", "104547.840000", "104549.840000", "104551.840000", "104553.840000", "104555.840000", "104557.840000", "104559.840000", "104601.840000", "104603.840000", "104605.840000", "104607.840000", "104609.840000", "104611.840000", "104613.840000", "104615.840000", "104617.840000", "104619.840000", "104621.840000", "104623.840000", "104625.840000", "104627.840000", "104629.840000", "104631.840000", "104633.840000", "104635.840000", "104637.840000", "104639.840000", "104641.840000", "104643.840000", "104645.840000", "104647.840000", "104649.840000", "104651.840000", "104653.840000", "104655.840000", "104657.840000", "104659.840000", "104701.840000", "104703.840000", "104705.840000", "104707.840000", "104709.840000", "104711.840000", "104713.840000", "104715.840000", "104717.840000", "104719.840000", "104721.840000", "104723.840000", "104725.840000", "104727.840000", "104729.840000", "104731.840000", "104733.840000", "104735.840000", "104737.840000", "104739.840000", "104741.840000", "104743.840000", "104745.840000", "104747.840000", "104749.840000", "104751.840000", "104753.840000", "104755.840000", "104757.840000", "104759.840000", "104801.840000", "104803.840000", "104805.840000", "104807.840000", "104809.840000", "104811.840000", "104813.840000", "104815.840000", "104817.840000", "104819.840000", "104821.840000", "104823.840000", "104825.840000", "104827.840000", "104829.840000", "104831.840000", "104833.840000", "104835.840000", "104837.840000", "104839.840000", "104841.840000", "104843.840000", "104845.840000", "104847.840000", "104849.840000", "104851.840000", "104853.840000", "104855.840000", "104857.840000", "104859.840000", "104901.840000", "104903.840000", "104905.840000", "104907.840000", "104909.840000", "104911.840000", "104913.840000", "104915.840000", "104917.840000", "104919.840000", "104921.840000", "104923.840000", "104925.840000", "104927.840000", "104929.840000", "104931.840000", "104933.840000", "104935.840000", "104937.840000", "104939.840000", "104941.840000", "104943.840000", "104945.840000", "104947.840000", "104949.840000", "104951.840000", "104953.840000", "104955.840000", "104957.840000", "104959.840000", "105001.840000", "105003.840000", "105005.840000", "105007.840000", "105009.840000", "105011.840000", "105013.840000", "105015.840000", "105017.840000", "105019.840000", "105021.840000", "105023.840000", "105025.840000", "105027.840000", "105029.840000", "105031.840000"],
      "ContentTime": ["104251.964000", "104253.460000", "104255.460000", "104257.460000", "104259.459000", "104301.459000", "104303.459000", "104305.459000", "104307.459000", "104309.459000", "104311.459000", "104313.459000", "104315.459000", "104317.460000", "104319.460000", "104321.459000", "104323.459000", "104325.459000", "104327.459000", "104329.460000", "104331.459000", "104333.459000", "104335.459000", "104337.459000", "104339.459000", "104341.460000", "104343.459000", "104345.459000", "104347.459000", "104349.459000", "104351.458000", "104353.459000", "104355.459000", "104357.460000", "104359.460000", "104401.460000", "104403.459000", "104405.459000", "104407.459000", "104409.458000", "104411.459000", "104413.459000", "104415.459000", "104417.460000", "104419.460000", "104421.459000", "104423.459000", "104425.459000", "104427.459000", "104429.459000", "104431.459000", "104433.460000", "104435.459000", "104437.459000", "104439.459000", "104441.460000", "104443.458000", "104445.460000", "104447.459000", "104449.460000", "104451.459000", "104453.460000", "104455.460000", "104457.459000", "104459.459000", "104501.458000", "104503.460000", "104505.459000", "104507.459000", "104509.460000", "104511.459000", "104513.460000", "104515.459000", "104517.459000", "104519.458000", "104521.459000", "104523.459000", "104525.460000", "104527.459000", "104529.459000", "104531.459000", "104533.459000", "104535.459000", "104537.459000", "104539.460000", "104541.459000", "104543.459000", "104545.460000", "104547.459000", "104549.459000", "104551.960000", "104553.458000", "104555.459000", "104557.460000", "104559.460000", "104601.459000", "104603.459000", "104605.460000", "104607.460000", "104609.459000", "104611.458000", "104613.459000", "104615.460000", "104617.460000", "104619.459000", "104621.460000", "104623.459000", "104625.460000", "104627.459000", "104629.459000", "104631.459000", "104633.459000", "104635.459000", "104637.459000", "104639.459000", "104641.459000", "104643.460000", "104645.460000", "104647.459000", "104649.459000", "104651.460000", "104653.459000", "104655.459000", "104657.459000", "104659.459000", "104701.460000", "104703.459000", "104705.459000", "104707.460000", "104709.460000", "104711.459000", "104713.459000", "104715.459000", "104717.460000", "104719.459000", "104721.458000", "104723.460000", "104725.460000", "104727.459000", "104729.459000", "104731.459000", "104733.460000", "104735.459000", "104737.460000", "104739.460000", "104741.459000", "104743.459000", "104745.459000", "104747.460000", "104749.459000", "104751.460000", "104753.460000", "104755.459000", "104757.459000", "104759.460000", "104801.459000", "104803.459000", "104805.459000", "104807.460000", "104809.459000", "104811.460000", "104813.458000", "104815.460000", "104817.459000", "104819.459000", "104821.459000", "104823.459000", "104825.460000", "104827.460000", "104829.460000", "104831.458000", "104833.460000", "104835.461000", "104837.459000", "104839.459000", "104841.460000", "104843.460000", "104845.459000", "104847.460000", "104849.459000", "104851.459000", "104853.460000", "104855.460000", "104857.459000", "104859.459000", "104901.459000", "104903.460000", "104905.460000", "104907.459000", "104909.459000", "104911.459000", "104913.459000", "104915.460000", "104917.460000", "104919.459000", "104921.459000", "104923.458000", "104925.460000", "104927.459000", "104929.460000", "104931.460000", "104933.459000", "104935.460000", "104937.459000", "104939.459000", "104941.459000", "104943.459000", "104945.459000", "104947.459000", "104949.459000", "104951.460000", "104953.459000", "104955.459000", "104957.459000", "104959.459000", "105001.460000", "105003.460000", "105005.459000", "105007.460000", "105009.459000", "105011.459000", "105013.459000", "105015.460000", "105017.459000", "105019.459000", "105021.459000", "105023.460000", "105025.459000", "105027.459000", "105029.460000", "105031.459000", "105033.291000"],
      "InstanceCreationTime": ["104251.964000", "104253.460000", "104255.460000", "104257.460000", "104259.459000", "104301.459000", "104303.459000", "104305.459000", "104307.459000", "104309.459000", "104311.459000", "104313.459000", "104315.459000", "104317.460000", "104319.460000", "104321.459000", "104323.459000", "104325.459000", "104327.459000", "104329.460000", "104331.459000", "104333.459000", "104335.459000", "104337.459000", "104339.459000", "104341.460000", "104343.459000", "104345.459000", "104347.459000", "104349.459000", "104351.458000", "104353.459000", "104355.459000", "104357.460000", "104359.460000", "104401.460000", "104403.459000", "104405.459000", "104407.459000", "104409.458000", "104411.459000", "104413.459000", "104415.459000", "104417.460000", "104419.460000", "104421.459000", "104423.459000", "104425.459000", "104427.459000", "104429.459000", "104431.459000", "104433.460000", "104435.459000", "104437.459000", "104439.459000", "104441.460000", "104443.458000", "104445.460000", "104447.459000", "104449.460000", "104451.459000", "104453.460000", "104455.460000", "104457.459000", "104459.459000", "104501.458000", "104503.460000", "104505.459000", "104507.459000", "104509.460000", "104511.459000", "104513.460000", "104515.459000", "104517.459000", "104519.458000", "104521.459000", "104523.459000", "104525.460000", "104527.459000", "104529.459000", "104531.459000", "104533.459000", "104535.459000", "104537.459000", "104539.460000", "104541.459000", "104543.459000", "104545.460000", "104547.459000", "104549.459000", "104551.960000", "104553.458000", "104555.459000", "104557.460000", "104559.460000", "104601.459000", "104603.459000", "104605.460000", "104607.460000", "104609.459000", "104611.458000", "104613.459000", "104615.460000", "104617.460000", "104619.459000", "104621.460000", "104623.459000", "104625.460000", "104627.459000", "104629.459000", "104631.459000", "104633.459000", "104635.459000", "104637.459000", "104639.459000", "104641.459000", "104643.460000", "104645.460000", "104647.459000", "104649.459000", "104651.460000", "104653.459000", "104655.459000", "104657.459000", "104659.459000", "104701.460000", "104703.459000", "104705.459000", "104707.460000", "104709.460000", "104711.459000", "104713.459000", "104715.459000", "104717.460000", "104719.459000", "104721.458000", "104723.460000", "104725.460000", "104727.459000", "104729.459000", "104731.459000", "104733.460000", "104735.459000", "104737.460000", "104739.460000", "104741.459000", "104743.459000", "104745.459000", "104747.460000", "104749.459000", "104751.460000", "104753.460000", "104755.459000", "104757.459000", "104759.460000", "104801.459000", "104803.459000", "104805.459000", "104807.460000", "104809.459000", "104811.460000", "104813.458000", "104815.460000", "104817.459000", "104819.459000", "104821.459000", "104823.459000", "104825.460000", "104827.460000", "104829.460000", "104831.458000", "104833.460000", "104835.461000", "104837.459000", "104839.459000", "104841.460000", "104843.460000", "104845.459000", "104847.460000", "104849.459000", "104851.459000", "104853.460000", "104855.460000", "104857.459000", "104859.459000", "104901.459000", "104903.460000", "104905.460000", "104907.459000", "104909.459000", "104911.459000", "104913.459000", "104915.460000", "104917.460000", "104919.459000", "104921.459000", "104923.458000", "104925.460000", "104927.459000", "104929.460000", "104931.460000", "104933.459000", "104935.460000", "104937.459000", "104939.459000", "104941.459000", "104943.459000", "104945.459000", "104947.459000", "104949.459000", "104951.460000", "104953.459000", "104955.459000", "104957.459000", "104959.459000", "105001.460000", "105003.460000", "105005.459000", "105007.460000", "105009.459000", "105011.459000", "105013.459000", "105015.460000", "105017.459000", "105019.459000", "105021.459000", "105023.460000", "105025.459000", "105027.459000", "105029.460000", "105031.459000", "105033.291000"],
      "InstanceNumber": [1, 2, 3, 4, 5, 6, 7, 8, 9, 10, 11, 12, 13, 14, 15, 16, 17, 18, 19, 20, 21, 22, 23, 24, 25, 26, 27, 28, 29, 30, 31, 32, 33, 34, 35, 36, 37, 38, 39, 40, 41, 42, 43, 44, 45, 46, 47, 48, 49, 50, 51, 52, 53, 54, 55, 56, 57, 58, 59, 60, 61, 62, 63, 64, 65, 66, 67, 68, 69, 70, 71, 72, 73, 74, 75, 76, 77, 78, 79, 80, 81, 82, 83, 84, 85, 86, 87, 88, 89, 90, 91, 92, 93, 94, 95, 96, 97, 98, 99, 100, 101, 102, 103, 104, 105, 106, 107, 108, 109, 110, 111, 112, 113, 114, 115, 116, 117, 118, 119, 120, 121, 122, 123, 124, 125, 126, 127, 128, 129, 130, 131, 132, 133, 134, 135, 136, 137, 138, 139, 140, 141, 142, 143, 144, 145, 146, 147, 148, 149, 150, 151, 152, 153, 154, 155, 156, 157, 158, 159, 160, 161, 162, 163, 164, 165, 166, 167, 168, 169, 170, 171, 172, 173, 174, 175, 176, 177, 178, 179, 180, 181, 182, 183, 184, 185, 186, 187, 188, 189, 190, 191, 192, 193, 194, 195, 196, 197, 198, 199, 200, 201, 202, 203, 204, 205, 206, 207, 208, 209, 210, 211, 212, 213, 214, 215, 216, 217, 218, 219, 220, 221, 222, 223, 224, 225, 226, 227, 228, 229, 230, 231, 232],
      "LargestImagePixelValue": [3649, 3533, 3542, 3503, 3498, 3500, 3490, 3533, 3483, 3500, 3502, 3472, 3506, 3486, 3492, 3502, 3490, 3513, 3533, 3481, 3509, 3505, 3478, 3506, 3498, 3457, 3479, 3492, 3503, 3519, 3521, 3505, 3508, 3594, 3588, 3574, 3602, 3603, 3593, 3557, 3551, 3583, 3561, 3576, 3578, 3581, 3556, 3586, 3592, 3565, 3475, 3597, 3774, 3565, 3803, 3519, 3373, 4014, 3519, 3486, 3545, 3562, 3565, 3602, 3549, 3586, 3584, 3527, 3535, 3504, 3492, 3503, 3483, 3515, 3492, 3536, 3510, 3532, 3520, 3548, 3599, 3565, 3577, 3557, 3604, 3560, 3539, 3571, 3546, 3551, 3546, 3440, 3402, 3444, 3917, 3157, 3500, 3790, 3553, 3490, 3505, 3572, 3534, 3518, 3539, 3573, 3542, 3585, 3571, 3540, 3545, 3544, 3538, 3511, 3505, 3522, 3546, 3563, 3547, 3500, 3503, 3546, 3511, 3538, 3528, 3517, 3556, 3492, 3566, 3522, 3539, 3501, 3528, 3520, 3522, 3514, 3546, 3556, 3412, 3546, 3356, 3590, 3596, 3541, 3446, 3768, 3393, 3443, 3492, 3427, 3439, 3438, 3407, 3461, 3427, 3407, 3450, 3412, 3426, 3479, 3467, 3450, 3473, 3445, 3443, 3426, 3428, 3424, 3427, 3428, 3430, 3389, 3385, 3367, 3389, 3450, 3366, 3404, 3705, 3446, 3674, 3278, 3247, 3928, 3393, 3763, 3350, 3339, 3331, 3384, 3320, 3326, 3338, 3306, 3327, 3373, 3366, 3340, 3395, 3404, 3403, 3375, 3369, 3431, 3436, 3351, 3338, 3347, 3312, 3360, 3340, 3311, 3323, 3335, 3298, 3355, 3306, 3308, 3318, 3344, 3348, 3381, 3335, 3349, 3349, 3335, 3347, 3336, 3312, 3299, 3315, 3328],
      "WindowCenter": [814.0, 812.0, 811.0, 810.0, 810.0, 811.0, 811.0, 810.0, 809.0, 808.0, 809.0, 810.0, 810.0, 810.0, 810.0, 811.0, 810.0, 811.0, 812.0, 811.0, 812.0, 812.0, 811.0, 811.0, 811.0, 810.0, 813.0, 813.0, 814.0, 813.0, 813.0, 812.0, 812.0, 813.0, 812.0, 812.0, 811.0, 811.0, 811.0, 811.0, 812.0, 812.0, 810.0, 810.0, 810.0, 810.0, 809.0, 809.0, 810.0, 804.0, 803.0, 800.0, 810.0, 803.0, 814.0, 807.0, 806.0, 810.0, 808.0, 810.0, 811.0, 812.0, 813.0, 813.0, 813.0, 811.0, 812.0, 811.0, 812.0, 811.0, 811.0, 811.0, 811.0, 811.0, 810.0, 810.0, 810.0, 810.0, 809.0, 811.0, 810.0, 811.0, 811.0, 811.0, 811.0, 811.0, 811.0, 811.0, 811.0, 809.0, 804.0, 807.0, 793.0, 789.0, 810.0, 788.0, 803.0, 818.0, 811.0, 812.0, 812.0, 813.0, 812.0, 812.0, 812.0, 812.0, 811.0, 812.0, 812.0, 811.0, 810.0, 810.0, 810.0, 810.0, 810.0, 810.0, 808.0, 808.0, 808.0, 807.0, 807.0, 806.0, 806.0, 807.0, 806.0, 807.0, 807.0, 807.0, 807.0, 807.0, 808.0, 807.0, 809.0, 810.0, 809.0, 809.0, 809.0, 801.0, 797.0, 806.0, 797.0, 797.0, 803.0, 802.0, 795.0, 812.0, 809.0, 809.0, 810.0, 809.0, 809.0, 809.0, 809.0, 810.0, 810.0, 809.0, 809.0, 808.0, 809.0, 810.0, 811.0, 810.0, 811.0, 811.0, 810.0, 810.0, 810.0, 810.0, 810.0, 811.0, 810.0, 808.0, 808.0, 808.0, 808.0, 808.0, 807.0, 798.0, 803.0, 787.0, 810.0, 792.0, 782.0, 806.0, 783.0, 818.0, 804.0, 806.0, 806.0, 807.0, 806.0, 806.0, 807.0, 807.0, 807.0, 809.0, 809.0, 809.0, 809.0, 808.0, 807.0, 805.0, 808.0, 809.0, 809.0, 809.0, 808.0, 808.0, 807.0, 808.0, 807.0, 806.0, 806.0, 805.0, 804.0, 805.0, 805.0, 804.0, 805.0, 805.0, 807.0, 807.0, 807.0, 807.0, 807.0, 808.0, 808.0, 807.0, 807.0, 807.0, 807.0, 807.0],
      "WindowWidth": [1782.0, 1775.0, 1771.0, 1769.0, 1769.0, 1770.0, 1769.0, 1768.0, 1764.0, 1763.0, 1765.0, 1767.0, 1769.0, 1768.0, 1769.0, 1771.0, 1769.0, 1772.0, 1773.0, 1772.0, 1772.0, 1772.0, 1770.0, 1771.0, 1770.0, 1769.0, 1775.0, 1777.0, 1778.0, 1777.0, 1774.0, 1773.0, 1773.0, 1777.0, 1774.0, 1773.0, 1771.0, 1772.0, 1772.0, 1772.0, 1775.0, 1774.0, 1769.0, 1769.0, 1768.0, 1768.0, 1766.0, 1767.0, 1768.0, 1753.0, 1748.0, 1742.0, 1770.0, 1748.0, 1783.0, 1760.0, 1756.0, 1773.0, 1763.0, 1768.0, 1771.0, 1774.0, 1777.0, 1778.0, 1775.0, 1769.0, 1773.0, 1771.0, 1773.0, 1771.0, 1769.0, 1769.0, 1770.0, 1771.0, 1767.0, 1767.0, 1767.0, 1767.0, 1765.0, 1769.0, 1767.0, 1771.0, 1770.0, 1770.0, 1771.0, 1770.0, 1771.0, 1772.0, 1772.0, 1765.0, 1753.0, 1760.0, 1723.0, 1716.0, 1775.0, 1709.0, 1750.0, 1795.0, 1771.0, 1772.0, 1772.0, 1776.0, 1773.0, 1773.0, 1772.0, 1772.0, 1769.0, 1772.0, 1772.0, 1769.0, 1767.0, 1767.0, 1767.0, 1766.0, 1766.0, 1767.0, 1763.0, 1761.0, 1760.0, 1759.0, 1758.0, 1757.0, 1756.0, 1758.0, 1757.0, 1758.0, 1759.0, 1758.0, 1760.0, 1760.0, 1761.0, 1760.0, 1763.0, 1766.0, 1764.0, 1764.0, 1765.0, 1744.0, 1733.0, 1760.0, 1733.0, 1735.0, 1749.0, 1746.0, 1727.0, 1777.0, 1763.0, 1763.0, 1767.0, 1765.0, 1764.0, 1765.0, 1764.0, 1766.0, 1766.0, 1764.0, 1764.0, 1761.0, 1764.0, 1767.0, 1769.0, 1766.0, 1768.0, 1768.0, 1768.0, 1767.0, 1766.0, 1766.0, 1767.0, 1769.0, 1766.0, 1762.0, 1760.0, 1760.0, 1761.0, 1762.0, 1757.0, 1735.0, 1749.0, 1707.0, 1769.0, 1718.0, 1691.0, 1761.0, 1697.0, 1793.0, 1751.0, 1755.0, 1755.0, 1757.0, 1755.0, 1755.0, 1757.0, 1756.0, 1759.0, 1763.0, 1764.0, 1764.0, 1763.0, 1762.0, 1758.0, 1752.0, 1761.0, 1763.0, 1764.0, 1762.0, 1759.0, 1759.0, 1758.0, 1760.0, 1759.0, 1755.0, 1755.0, 1753.0, 1750.0, 1753.0, 1751.0, 1750.0, 1752.0, 1754.0, 1757.0, 1758.0, 1758.0, 1757.0, 1759.0, 1760.0, 1760.0, 1758.0, 1758.0, 1757.0, 1757.0, 1758.0]
    },
    "slices": {}
  }
}