{
  "AcquisitionMatrixPE": 100,
  "AcquisitionNumber": 1,
  "AcquisitionTime": "11:48:15.870000",
  "BandwidthPerPixelPhaseEncode": 18.519,
  "BaseResolution": 100,
  "BodyPartExamined": "BRAIN",
  "ConsistencyInfo": "N4_VE11C_LATEST_20160120",
  "ConversionSoftware": "dcm2niix",
  "ConversionSoftwareVersion": "v1.0.20180622 GCC4.9.2",
  "DerivedVendorReportedEchoSpacing": 0.000539986,
  "DeviceSerialNumber": "166078",
  "DwellTime": 2.1e-06,
  "EchoTime": 0.034,
  "EchoTrainLength": 100,
  "EffectiveEchoSpacing": 0.000539986,
  "FlipAngle": 90,
  "ImageOrientationPatientDICOM": [1, 0, 0, 0, 0.919822, -0.392337],
  "ImageType": [
    "ORIGINAL",
    "PRIMARY",
    "M",
    "ND",
    "MOSAIC"
],
  "InPlanePhaseEncodingDirectionDICOM": "COL",
  "InstitutionAddress": "Street_StreetNo_Bei_Jing_District_CN_ZIP",
  "InstitutionName": "BeiJing_Normal_University",
  "InstitutionalDepartmentName": "Department",
  "MRAcquisitionType": "2D",
  "MagneticFieldStrength": 3,
  "Manufacturer": "Siemens",
  "ManufacturersModelName": "Prisma",
  "Modality": "MR",
  "MultibandAccelerationFactor": 3,
  "PartialFourier": 1,
  "PatientPosition": "HFS",
  "PercentPhaseFOV": 100,
  "PhaseEncodingDirection": "j-",
  "PhaseEncodingSteps": 100,
  "PhaseResolution": 1,
  "PixelBandwidth": 2380,
  "ProcedureStepDescription": "BNU_P2018_64CH_Liu.Jia",
  "ProtocolName": "bold_100x100_s3_2x2x2_232",
  "PulseSequenceDetails": "%SiemensSeq%_ep2d_bold",
  "ReceiveCoilActiveElements": "HC1-7;NC1",
  "ReceiveCoilName": "HeadNeck_64",
  "ReconMatrixPE": 100,
  "RepetitionTime": 2,
  "SAR": 0.073557,
  "ScanOptions": "FS",
  "ScanningSequence": "EP",
  "SequenceName": "_epfid2d1_100",
  "SequenceVariant": "SK",
  "SeriesDescription": "bold_100x100_s3_2x2x2_232",
  "SeriesNumber": 4,
  "ShimSetting": [-5467, -11510, -1298, 312, -93, -370, -97, 55],
  "SliceThickness": 2,
  "SliceTiming": [1.485, 0, 0.99, 0.0825, 1.0725, 0.165, 1.155, 0.2475, 1.2375, 0.33, 1.32, 0.4125, 1.4025, 0.5775, 1.5675, 0.66, 1.65, 0.7425, 1.7325, 0.825, 1.815, 0.9075, 1.8975, 0.495, 1.485, 0, 0.99, 0.0825, 1.0725, 0.165, 1.155, 0.2475, 1.2375, 0.33, 1.32, 0.4125, 1.4025, 0.5775, 1.5675, 0.66, 1.65, 0.7425, 1.7325, 0.825, 1.815, 0.9075, 1.8975, 0.495, 1.485, 0, 0.99, 0.0825, 1.0725, 0.165, 1.155, 0.2475, 1.2375, 0.33, 1.32, 0.4125, 1.4025, 0.5775, 1.5675, 0.66, 1.65, 0.7425, 1.7325, 0.825, 1.815, 0.9075, 1.8975, 0.495],
  "SoftwareVersions": "syngo_MR_E11",
  "SpacingBetweenSlices": 2,
  "StationName": "AWP166078",
  "TaskName": "motor",
  "TotalReadoutTime": 0.0534586,
  "TxRefAmp": 256.978,
  "dcmmeta_affine": [
    [-2.0, 0.0, 0.0, 99.32530212402344],
    [0.0, 1.8396430015563965, -0.7846742272377014, -64.52753448486328],
    [0.0, 0.7846742272377014, 1.8396430015563965, -124.4406967163086],
    [0.0, 0.0, 0.0, 1.0]
],
  "dcmmeta_reorient_transform": [
    [0.0, -1.0, 0.0, 99.0],
    [1.0, 0.0, 0.0, 0.0],
    [0.0, 0.0, 1.0, 0.0],
    [0.0, 0.0, 0.0, 1.0]
],
  "dcmmeta_shape": [100, 100, 72, 232],
  "dcmmeta_slice_dim": 2,
  "dcmmeta_version": 0.6,
  "global": {
    "const": {
      "AcquisitionMatrix": [100, 0, 0, 100],
      "AngioFlag": "N",
      "BitsAllocated": 16,
      "BitsStored": 12,
      "BodyPartExamined": "BRAIN",
      "Columns": 900,
      "EchoNumbers": 1,
      "EchoTime": 34.0,
      "EchoTrainLength": 100,
      "FlipAngle": 90.0,
      "HighBit": 11,
      "ImageOrientationPatient": [1.0, 0.0, 0.0, 0.0, 0.91982149580192, -0.3923371201667],
      "ImagePositionPatient": [-899.32530122995, -853.45431738262, 267.11174707828],
      "ImageType": [
        "ORIGINAL",
        "PRIMARY",
        "M",
        "ND",
        "MOSAIC"
],
      "ImagedNucleus": "1H",
      "ImagingFrequency": 123.25783,
      "InPlanePhaseEncodingDirection": "COL",
      "MRAcquisitionType": "2D",
      "MagneticFieldStrength": 3.0,
      "Manufacturer": "SIEMENS",
      "ManufacturerModelName": "Prisma",
      "Modality": "MR",
      "NumberOfAverages": 1.0,
      "NumberOfPhaseEncodingSteps": 100,
      "PercentPhaseFieldOfView": 100.0,
      "PercentSampling": 100.0,
      "PerformedProcedureStepStartTime": "113626.911000",
      "PhotometricInterpretation": "MONOCHROME2",
      "PixelBandwidth": 2380.0,
      "PixelRepresentation": 0,
      "PixelSpacing": [2.0, 2.0],
      "ProtocolName": "bold_100x100_s3_2x2x2_232",
      "RepetitionTime": 2000.0,
      "Rows": 900,
      "SAR": 0.07355702941975,
      "SamplesPerPixel": 1,
      "ScanOptions": "FS",
      "ScanningSequence": "EP",
      "SequenceName": "*epfid2d1_100",
      "SequenceVariant": "SK",
      "SeriesDescription": "bold_100x100_s3_2x2x2_232",
      "SeriesNumber": 4,
      "SeriesTime": "114818.523000",
      "SliceLocation": -89.146682331951,
      "SliceThickness": 2.0,
      "SmallestImagePixelValue": 0,
      "SoftwareVersions": "syngo MR E11",
      "SpacingBetweenSlices": 1.9999999734583,
      "SpecificCharacterSet": "ISO_IR 100",
      "StudyID": "1",
      "StudyTime": "113626.818000",
      "TransmitCoilName": "Body",
      "VariableFlipAngleFlag": "N",
      "WindowCenterWidthExplanation": "Algo1",
      "dBdt": 0.0},
    "slices": {}
  },
  "time": {
    "samples": {
      "AcquisitionNumber": [1, 2, 3, 4, 5, 6, 7, 8, 9, 10, 11, 12, 13, 14, 15, 16, 17, 18, 19, 20, 21, 22, 23, 24, 25, 26, 27, 28, 29, 30, 31, 32, 33, 34, 35, 36, 37, 38, 39, 40, 41, 42, 43, 44, 45, 46, 47, 48, 49, 50, 51, 52, 53, 54, 55, 56, 57, 58, 59, 60, 61, 62, 63, 64, 65, 66, 67, 68, 69, 70, 71, 72, 73, 74, 75, 76, 77, 78, 79, 80, 81, 82, 83, 84, 85, 86, 87, 88, 89, 90, 91, 92, 93, 94, 95, 96, 97, 98, 99, 100, 101, 102, 103, 104, 105, 106, 107, 108, 109, 110, 111, 112, 113, 114, 115, 116, 117, 118, 119, 120, 121, 122, 123, 124, 125, 126, 127, 128, 129, 130, 131, 132, 133, 134, 135, 136, 137, 138, 139, 140, 141, 142, 143, 144, 145, 146, 147, 148, 149, 150, 151, 152, 153, 154, 155, 156, 157, 158, 159, 160, 161, 162, 163, 164, 165, 166, 167, 168, 169, 170, 171, 172, 173, 174, 175, 176, 177, 178, 179, 180, 181, 182, 183, 184, 185, 186, 187, 188, 189, 190, 191, 192, 193, 194, 195, 196, 197, 198, 199, 200, 201, 202, 203, 204, 205, 206, 207, 208, 209, 210, 211, 212, 213, 214, 215, 216, 217, 218, 219, 220, 221, 222, 223, 224, 225, 226, 227, 228, 229, 230, 231, 232],
      "AcquisitionTime": ["114815.870000", "114817.870000", "114819.870000", "114821.870000", "114823.870000", "114825.870000", "114827.870000", "114829.870000", "114831.870000", "114833.870000", "114835.870000", "114837.870000", "114839.870000", "114841.870000", "114843.870000", "114845.870000", "114847.870000", "114849.870000", "114851.870000", "114853.870000", "114855.870000", "114857.870000", "114859.870000", "114901.870000", "114903.870000", "114905.870000", "114907.870000", "114909.870000", "114911.870000", "114913.870000", "114915.870000", "114917.870000", "114919.870000", "114921.870000", "114923.870000", "114925.870000", "114927.870000", "114929.870000", "114931.870000", "114933.870000", "114935.870000", "114937.870000", "114939.870000", "114941.870000", "114943.870000", "114945.870000", "114947.870000", "114949.870000", "114951.870000", "114953.870000", "114955.870000", "114957.870000", "114959.870000", "115001.870000", "115003.870000", "115005.870000", "115007.870000", "115009.870000", "115011.870000", "115013.870000", "115015.870000", "115017.870000", "115019.870000", "115021.870000", "115023.870000", "115025.870000", "115027.870000", "115029.870000", "115031.870000", "115033.870000", "115035.870000", "115037.870000", "115039.870000", "115041.870000", "115043.870000", "115045.870000", "115047.870000", "115049.870000", "115051.870000", "115053.870000", "115055.870000", "115057.870000", "115059.870000", "115101.870000", "115103.870000", "115105.870000", "115107.870000", "115109.870000", "115111.870000", "115113.870000", "115115.870000", "115117.870000", "115119.870000", "115121.870000", "115123.870000", "115125.870000", "115127.870000", "115129.870000", "115131.870000", "115133.870000", "115135.870000", "115137.870000", "115139.870000", "115141.870000", "115143.870000", "115145.870000", "115147.870000", "115149.870000", "115151.870000", "115153.870000", "115155.870000", "115157.870000", "115159.870000", "115201.870000", "115203.870000", "115205.870000", "115207.870000", "115209.870000", "115211.870000", "115213.870000", "115215.870000", "115217.870000", "115219.870000", "115221.870000", "115223.870000", "115225.870000", "115227.870000", "115229.870000", "115231.870000", "115233.870000", "115235.870000", "115237.870000", "115239.870000", "115241.870000", "115243.870000", "115245.870000", "115247.870000", "115249.870000", "115251.870000", "115253.870000", "115255.870000", "115257.870000", "115259.870000", "115301.870000", "115303.870000", "115305.870000", "115307.870000", "115309.870000", "115311.870000", "115313.870000", "115315.870000", "115317.870000", "115319.870000", "115321.870000", "115323.870000", "115325.870000", "115327.870000", "115329.870000", "115331.870000", "115333.870000", "115335.870000", "115337.870000", "115339.870000", "115341.870000", "115343.870000", "115345.870000", "115347.870000", "115349.870000", "115351.870000", "115353.870000", "115355.870000", "115357.870000", "115359.870000", "115401.870000", "115403.870000", "115405.870000", "115407.870000", "115409.870000", "115411.870000", "115413.870000", "115415.870000", "115417.870000", "115419.870000", "115421.870000", "115423.870000", "115425.870000", "115427.870000", "115429.870000", "115431.870000", "115433.870000", "115435.870000", "115437.870000", "115439.870000", "115441.870000", "115443.870000", "115445.870000", "115447.870000", "115449.870000", "115451.870000", "115453.870000", "115455.870000", "115457.870000", "115459.870000", "115501.870000", "115503.870000", "115505.870000", "115507.870000", "115509.870000", "115511.870000", "115513.870000", "115515.870000", "115517.870000", "115519.870000", "115521.870000", "115523.870000", "115525.870000", "115527.870000", "115529.870000", "115531.870000", "115533.870000", "115535.870000", "115537.870000", "115539.870000", "115541.870000", "115543.870000", "115545.870000", "115547.870000", "115549.870000", "115551.870000", "115553.870000", "115555.870000", "115557.870000"],
      "ContentTime": ["114818.527000", "114820.022000", "114822.022000", "114824.022000", "114826.022000", "114828.023000", "114830.023000", "114832.023000", "114834.023000", "114836.023000", "114838.022000", "114840.022000", "114842.022000", "114844.023000", "114846.023000", "114848.023000", "114850.023000", "114852.023000", "114854.022000", "114856.023000", "114858.022000", "114900.022000", "114902.023000", "114904.023000", "114906.023000", "114908.024000", "114910.023000", "114912.022000", "114914.022000", "114916.022000", "114918.022000", "114920.023000", "114922.023000", "114924.024000", "114926.023000", "114928.023000", "114930.022000", "114932.023000", "114934.023000", "114936.023000", "114938.023000", "114940.023000", "114942.023000", "114944.023000", "114946.022000", "114948.022000", "114950.022000", "114952.022000", "114954.023000", "114956.023000", "114958.023000", "115000.024000", "115002.024000", "115004.023000", "115006.022000", "115008.022000", "115010.022000", "115012.024000", "115014.023000", "115016.023000", "115018.023000", "115020.024000", "115022.022000", "115024.022000", "115026.022000", "115028.023000", "115030.023000", "115032.023000", "115034.023000", "115036.023000", "115038.023000", "115040.022000", "115042.022000", "115044.022000", "115046.023000", "115048.023000", "115050.023000", "115052.024000", "115054.023000", "115056.023000", "115058.024000", "115100.024000", "115102.022000", "115104.023000", "115106.023000", "115108.023000", "115110.023000", "115112.023000", "115114.023000", "115116.023000", "115118.023000", "115120.023000", "115122.023000", "115124.024000", "115126.023000", "115128.023000", "115130.023000", "115132.022000", "115134.022000", "115136.023000", "115138.022000", "115140.024000", "115142.023000", "115144.023000", "115146.023000", "115148.023000", "115150.023000", "115152.023000", "115154.022000", "115156.024000", "115158.023000", "115200.023000", "115202.023000", "115204.023000", "115206.022000", "115208.023000", "115210.023000", "115212.022000", "115214.024000", "115216.024000", "115218.023000", "115220.023000", "115222.023000", "115224.023000", "115226.022000", "115228.022000", "115230.022000", "115232.023000", "115234.024000", "115236.024000", "115238.023000", "115240.024000", "115242.022000", "115244.023000", "115246.022000", "115248.022000", "115250.024000", "115252.024000", "115254.023000", "115256.023000", "115258.022000", "115300.022000", "115302.022000", "115304.022000", "115306.023000", "115308.023000", "115310.023000", "115312.023000", "115314.023000", "115316.022000", "115318.022000", "115320.022000", "115322.022000", "115324.023000", "115326.024000", "115328.023000", "115330.023000", "115332.023000", "115334.022000", "115336.023000", "115338.022000", "115340.022000", "115342.023000", "115344.023000", "115346.023000", "115348.023000", "115350.024000", "115352.023000", "115354.023000", "115356.023000", "115358.022000", "115400.024000", "115402.023000", "115404.024000", "115406.023000", "115408.023000", "115410.023000", "115412.022000", "115414.022000", "115416.024000", "115418.023000", "115420.023000", "115422.023000", "115424.024000", "115426.022000", "115428.023000", "115430.023000", "115432.022000", "115434.023000", "115436.023000", "115438.023000", "115440.023000", "115442.023000", "115444.022000", "115446.023000", "115448.023000", "115450.022000", "115452.023000", "115454.023000", "115456.024000", "115458.024000", "115500.023000", "115502.022000", "115504.022000", "115506.022000", "115508.023000", "115510.023000", "115512.024000", "115514.023000", "115516.023000", "115518.022000", "115520.023000", "115522.022000", "115524.022000", "115526.024000", "115528.023000", "115530.024000", "115532.024000", "115534.023000", "115536.022000", "115538.022000", "115540.022000", "115542.022000", "115544.023000", "115546.023000", "115548.024000", "115550.023000", "115552.023000", "115554.023000", "115556.022000", "115558.022000", "115559.846000"],
      "InstanceCreationTime": ["114818.527000", "114820.022000", "114822.022000", "114824.022000", "114826.022000", "114828.023000", "114830.023000", "114832.023000", "114834.023000", "114836.023000", "114838.022000", "114840.022000", "114842.022000", "114844.023000", "114846.023000", "114848.023000", "114850.023000", "114852.023000", "114854.022000", "114856.023000", "114858.022000", "114900.022000", "114902.023000", "114904.023000", "114906.023000", "114908.024000", "114910.023000", "114912.022000", "114914.022000", "114916.022000", "114918.022000", "114920.023000", "114922.023000", "114924.024000", "114926.023000", "114928.023000", "114930.022000", "114932.023000", "114934.023000", "114936.023000", "114938.023000", "114940.023000", "114942.023000", "114944.023000", "114946.022000", "114948.022000", "114950.022000", "114952.022000", "114954.023000", "114956.023000", "114958.023000", "115000.024000", "115002.024000", "115004.023000", "115006.022000", "115008.022000", "115010.022000", "115012.024000", "115014.023000", "115016.023000", "115018.023000", "115020.024000", "115022.022000", "115024.022000", "115026.022000", "115028.023000", "115030.023000", "115032.023000", "115034.023000", "115036.023000", "115038.023000", "115040.022000", "115042.022000", "115044.022000", "115046.023000", "115048.023000", "115050.023000", "115052.024000", "115054.023000", "115056.023000", "115058.024000", "115100.024000", "115102.022000", "115104.023000", "115106.023000", "115108.023000", "115110.023000", "115112.023000", "115114.023000", "115116.023000", "115118.023000", "115120.023000", "115122.023000", "115124.024000", "115126.023000", "115128.023000", "115130.023000", "115132.022000", "115134.022000", "115136.023000", "115138.022000", "115140.024000", "115142.023000", "115144.023000", "115146.023000", "115148.023000", "115150.023000", "115152.023000", "115154.022000", "115156.024000", "115158.023000", "115200.023000", "115202.023000", "115204.023000", "115206.022000", "115208.023000", "115210.023000", "115212.022000", "115214.024000", "115216.024000", "115218.023000", "115220.023000", "115222.023000", "115224.023000", "115226.022000", "115228.022000", "115230.022000", "115232.023000", "115234.024000", "115236.024000", "115238.023000", "115240.024000", "115242.022000", "115244.023000", "115246.022000", "115248.022000", "115250.024000", "115252.024000", "115254.023000", "115256.023000", "115258.022000", "115300.022000", "115302.022000", "115304.022000", "115306.023000", "115308.023000", "115310.023000", "115312.023000", "115314.023000", "115316.022000", "115318.022000", "115320.022000", "115322.022000", "115324.023000", "115326.024000", "115328.023000", "115330.023000", "115332.023000", "115334.022000", "115336.023000", "115338.022000", "115340.022000", "115342.023000", "115344.023000", "115346.023000", "115348.023000", "115350.024000", "115352.023000", "115354.023000", "115356.023000", "115358.022000", "115400.024000", "115402.023000", "115404.024000", "115406.023000", "115408.023000", "115410.023000", "115412.022000", "115414.022000", "115416.024000", "115418.023000", "115420.023000", "115422.023000", "115424.024000", "115426.022000", "115428.023000", "115430.023000", "115432.022000", "115434.023000", "115436.023000", "115438.023000", "115440.023000", "115442.023000", "115444.022000", "115446.023000", "115448.023000", "115450.022000", "115452.023000", "115454.023000", "115456.024000", "115458.024000", "115500.023000", "115502.022000", "115504.022000", "115506.022000", "115508.023000", "115510.023000", "115512.024000", "115514.023000", "115516.023000", "115518.022000", "115520.023000", "115522.022000", "115524.022000", "115526.024000", "115528.023000", "115530.024000", "115532.024000", "115534.023000", "115536.022000", "115538.022000", "115540.022000", "115542.022000", "115544.023000", "115546.023000", "115548.024000", "115550.023000", "115552.023000", "115554.023000", "115556.022000", "115558.022000", "115559.846000"],
      "InstanceNumber": [1, 2, 3, 4, 5, 6, 7, 8, 9, 10, 11, 12, 13, 14, 15, 16, 17, 18, 19, 20, 21, 22, 23, 24, 25, 26, 27, 28, 29, 30, 31, 32, 33, 34, 35, 36, 37, 38, 39, 40, 41, 42, 43, 44, 45, 46, 47, 48, 49, 50, 51, 52, 53, 54, 55, 56, 57, 58, 59, 60, 61, 62, 63, 64, 65, 66, 67, 68, 69, 70, 71, 72, 73, 74, 75, 76, 77, 78, 79, 80, 81, 82, 83, 84, 85, 86, 87, 88, 89, 90, 91, 92, 93, 94, 95, 96, 97, 98, 99, 100, 101, 102, 103, 104, 105, 106, 107, 108, 109, 110, 111, 112, 113, 114, 115, 116, 117, 118, 119, 120, 121, 122, 123, 124, 125, 126, 127, 128, 129, 130, 131, 132, 133, 134, 135, 136, 137, 138, 139, 140, 141, 142, 143, 144, 145, 146, 147, 148, 149, 150, 151, 152, 153, 154, 155, 156, 157, 158, 159, 160, 161, 162, 163, 164, 165, 166, 167, 168, 169, 170, 171, 172, 173, 174, 175, 176, 177, 178, 179, 180, 181, 182, 183, 184, 185, 186, 187, 188, 189, 190, 191, 192, 193, 194, 195, 196, 197, 198, 199, 200, 201, 202, 203, 204, 205, 206, 207, 208, 209, 210, 211, 212, 213, 214, 215, 216, 217, 218, 219, 220, 221, 222, 223, 224, 225, 226, 227, 228, 229, 230, 231, 232],
      "LargestImagePixelValue": [2678, 2614, 2673, 2654, 2696, 2682, 2679, 2693, 2650, 2663, 2678, 2610, 2668, 2657, 2657, 2630, 2732, 2671, 2705, 2756, 2696, 2663, 2760, 2704, 2659, 2679, 2714, 2717, 2694, 2752, 2634, 2653, 2704, 2605, 2647, 2719, 2689, 2710, 2699, 2689, 2660, 2598, 2636, 2641, 2662, 2613, 2617, 2596, 2633, 2612, 2615, 2716, 2810, 2626, 2715, 2603, 2670, 2676, 2689, 2630, 2617, 2672, 2639, 2694, 2614, 2696, 2858, 2581, 2609, 2621, 2597, 2675, 2531, 2588, 2612, 2634, 2653, 2633, 2585, 2621, 2739, 2766, 2550, 2554, 2604, 2625, 2590, 2535, 2750, 2571, 2599, 2582, 2676, 2680, 2607, 2561, 2698, 2677, 2614, 2538, 2619, 2540, 2524, 2565, 2580, 2773, 2578, 2562, 2610, 2582, 2589, 2659, 2591, 2710, 2593, 2533, 2578, 2595, 2573, 2562, 2592, 2810, 2615, 2627, 2716, 2587, 2612, 2655, 2626, 2606, 2711, 2642, 2625, 2651, 2609, 2653, 2668, 2637, 2649, 2652, 2644, 2891, 2599, 2774, 2656, 2494, 2813, 2581, 2685, 2547, 2557, 2578, 2618, 2644, 2688, 2670, 2690, 2685, 2697, 2684, 2791, 2678, 2598, 2573, 2629, 2615, 2578, 2611, 2636, 2572, 2613, 2560, 2568, 2587, 2610, 2637, 2602, 2616, 2595, 2603, 2759, 2631, 2567, 2549, 2611, 2600, 2606, 2598, 2622, 2561, 2596, 2572, 2643, 2605, 2637, 2645, 2914, 2643, 2620, 2759, 2755, 2718, 2678, 2598, 2603, 2573, 2618, 2632, 2597, 2610, 2587, 2605, 2624, 2638, 2562, 2655, 2677, 2531, 2571, 2634, 2617, 2625, 2614, 2641, 2728, 2659, 2655, 2648, 2730, 2711, 2685, 2752],
      "WindowCenter": [759.0, 757.0, 756.0, 756.0, 757.0, 756.0, 756.0, 757.0, 756.0, 757.0, 757.0, 756.0, 757.0, 757.0, 757.0, 758.0, 760.0, 760.0, 761.0, 761.0, 760.0, 760.0, 761.0, 760.0, 759.0, 761.0, 760.0, 760.0, 759.0, 759.0, 758.0, 757.0, 757.0, 756.0, 757.0, 759.0, 757.0, 757.0, 758.0, 757.0, 757.0, 756.0, 756.0, 756.0, 755.0, 754.0, 753.0, 754.0, 755.0, 756.0, 756.0, 757.0, 758.0, 754.0, 757.0, 757.0, 758.0, 759.0, 759.0, 758.0, 757.0, 758.0, 757.0, 756.0, 755.0, 754.0, 760.0, 755.0, 754.0, 754.0, 755.0, 757.0, 755.0, 756.0, 757.0, 757.0, 757.0, 757.0, 756.0, 756.0, 757.0, 757.0, 754.0, 754.0, 755.0, 755.0, 755.0, 754.0, 757.0, 755.0, 756.0, 756.0, 758.0, 757.0, 755.0, 755.0, 757.0, 758.0, 757.0, 753.0, 754.0, 750.0, 752.0, 751.0, 753.0, 757.0, 754.0, 752.0, 754.0, 753.0, 752.0, 751.0, 750.0, 753.0, 752.0, 751.0, 751.0, 751.0, 750.0, 749.0, 749.0, 755.0, 752.0, 752.0, 754.0, 753.0, 754.0, 755.0, 754.0, 755.0, 756.0, 755.0, 752.0, 754.0, 754.0, 755.0, 754.0, 755.0, 756.0, 757.0, 756.0, 759.0, 754.0, 757.0, 755.0, 752.0, 757.0, 753.0, 754.0, 752.0, 752.0, 752.0, 752.0, 754.0, 755.0, 755.0, 755.0, 754.0, 754.0, 754.0, 756.0, 755.0, 755.0, 755.0, 755.0, 754.0, 754.0, 755.0, 755.0, 754.0, 753.0, 752.0, 753.0, 753.0, 753.0, 752.0, 751.0, 752.0, 752.0, 753.0, 755.0, 754.0, 752.0, 753.0, 755.0, 754.0, 755.0, 755.0, 755.0, 756.0, 755.0, 754.0, 755.0, 754.0, 755.0, 756.0, 760.0, 756.0, 755.0, 756.0, 757.0, 755.0, 755.0, 754.0, 751.0, 751.0, 753.0, 750.0, 757.0, 756.0, 757.0, 757.0, 756.0, 756.0, 754.0, 756.0, 757.0, 756.0, 755.0, 757.0, 756.0, 756.0, 755.0, 755.0, 756.0, 756.0, 757.0, 756.0, 757.0, 756.0, 754.0, 756.0],
      "WindowWidth": [1604.0, 1598.0, 1597.0, 1595.0, 1597.0, 1595.0, 1596.0, 1598.0, 1597.0, 1598.0, 1598.0, 1596.0, 1598.0, 1599.0, 1598.0, 1599.0, 1604.0, 1604.0, 1607.0, 1608.0, 1606.0, 1605.0, 1607.0, 1604.0, 1602.0, 1606.0, 1605.0, 1604.0, 1603.0, 1602.0, 1601.0, 1599.0, 1598.0, 1597.0, 1600.0, 1603.0, 1599.0, 1599.0, 1600.0, 1598.0, 1599.0, 1596.0, 1595.0, 1596.0, 1594.0, 1591.0, 1589.0, 1591.0, 1594.0, 1596.0, 1595.0, 1597.0, 1599.0, 1591.0, 1597.0, 1598.0, 1600.0, 1602.0, 1602.0, 1602.0, 1599.0, 1600.0, 1597.0, 1596.0, 1592.0, 1592.0, 1603.0, 1593.0, 1591.0, 1592.0, 1593.0, 1598.0, 1594.0, 1597.0, 1599.0, 1598.0, 1598.0, 1598.0, 1596.0, 1596.0, 1599.0, 1599.0, 1593.0, 1592.0, 1594.0, 1594.0, 1593.0, 1592.0, 1598.0, 1594.0, 1597.0, 1598.0, 1600.0, 1599.0, 1594.0, 1594.0, 1598.0, 1600.0, 1599.0, 1589.0, 1590.0, 1582.0, 1587.0, 1585.0, 1589.0, 1596.0, 1592.0, 1588.0, 1592.0, 1590.0, 1588.0, 1585.0, 1583.0, 1588.0, 1587.0, 1586.0, 1585.0, 1585.0, 1583.0, 1581.0, 1581.0, 1593.0, 1588.0, 1587.0, 1590.0, 1589.0, 1590.0, 1592.0, 1592.0, 1594.0, 1595.0, 1593.0, 1588.0, 1592.0, 1591.0, 1593.0, 1592.0, 1593.0, 1596.0, 1597.0, 1595.0, 1601.0, 1591.0, 1597.0, 1594.0, 1587.0, 1596.0, 1590.0, 1591.0, 1586.0, 1587.0, 1587.0, 1587.0, 1590.0, 1592.0, 1592.0, 1593.0, 1591.0, 1592.0, 1592.0, 1596.0, 1594.0, 1594.0, 1593.0, 1592.0, 1590.0, 1590.0, 1594.0, 1593.0, 1591.0, 1589.0, 1586.0, 1589.0, 1590.0, 1589.0, 1586.0, 1585.0, 1587.0, 1587.0, 1589.0, 1594.0, 1590.0, 1588.0, 1590.0, 1593.0, 1592.0, 1593.0, 1593.0, 1594.0, 1595.0, 1593.0, 1590.0, 1593.0, 1593.0, 1594.0, 1595.0, 1603.0, 1595.0, 1592.0, 1596.0, 1597.0, 1593.0, 1594.0, 1590.0, 1584.0, 1585.0, 1589.0, 1583.0, 1598.0, 1595.0, 1597.0, 1598.0, 1596.0, 1595.0, 1591.0, 1595.0, 1598.0, 1595.0, 1594.0, 1597.0, 1596.0, 1595.0, 1593.0, 1593.0, 1596.0, 1596.0, 1598.0, 1595.0, 1597.0, 1595.0, 1591.0, 1595.0]
    },
    "slices": {}
  }
}