{
  "AcquisitionMatrixPE": 100,
  "AcquisitionNumber": 1,
  "AcquisitionTime": "12:17:39.445000",
  "BandwidthPerPixelPhaseEncode": 18.519,
  "BaseResolution": 100,
  "BodyPartExamined": "BRAIN",
  "ConsistencyInfo": "N4_VE11C_LATEST_20160120",
  "ConversionSoftware": "dcm2niix",
  "ConversionSoftwareVersion": "v1.0.20180622 GCC4.9.2",
  "DerivedVendorReportedEchoSpacing": 0.000539986,
  "DeviceSerialNumber": "166078",
  "DwellTime": 2.1e-06,
  "EchoTime": 0.034,
  "EchoTrainLength": 100,
  "EffectiveEchoSpacing": 0.000539986,
  "FlipAngle": 90,
  "ImageOrientationPatientDICOM": [1, 0, 0, 0, 0.919822, -0.392337],
  "ImageType": [
    "ORIGINAL",
    "PRIMARY",
    "M",
    "ND",
    "MOSAIC"
],
  "InPlanePhaseEncodingDirectionDICOM": "COL",
  "InstitutionAddress": "Street_StreetNo_Bei_Jing_District_CN_ZIP",
  "InstitutionName": "BeiJing_Normal_University",
  "InstitutionalDepartmentName": "Department",
  "MRAcquisitionType": "2D",
  "MagneticFieldStrength": 3,
  "Manufacturer": "Siemens",
  "ManufacturersModelName": "Prisma",
  "Modality": "MR",
  "MultibandAccelerationFactor": 3,
  "PartialFourier": 1,
  "PatientPosition": "HFS",
  "PercentPhaseFOV": 100,
  "PhaseEncodingDirection": "j-",
  "PhaseEncodingSteps": 100,
  "PhaseResolution": 1,
  "PixelBandwidth": 2380,
  "ProcedureStepDescription": "BNU_P2018_64CH_Liu.Jia",
  "ProtocolName": "bold_100x100_s3_2x2x2_232",
  "PulseSequenceDetails": "%SiemensSeq%_ep2d_bold",
  "ReceiveCoilActiveElements": "HC1-7;NC1",
  "ReceiveCoilName": "HeadNeck_64",
  "ReconMatrixPE": 100,
  "RepetitionTime": 2,
  "SAR": 0.073557,
  "ScanOptions": "FS",
  "ScanningSequence": "EP",
  "SequenceName": "_epfid2d1_100",
  "SequenceVariant": "SK",
  "SeriesDescription": "bold_100x100_s3_2x2x2_232",
  "SeriesNumber": 9,
  "ShimSetting": [-5467, -11510, -1298, 312, -93, -370, -97, 55],
  "SliceThickness": 2,
  "SliceTiming": [1.485, 0, 0.99, 0.0825, 1.0725, 0.165, 1.155, 0.2475, 1.2375, 0.33, 1.32, 0.4125, 1.4025, 0.5775, 1.5675, 0.66, 1.65, 0.7425, 1.7325, 0.825, 1.815, 0.9075, 1.8975, 0.495, 1.485, 0, 0.99, 0.0825, 1.0725, 0.165, 1.155, 0.2475, 1.2375, 0.33, 1.32, 0.4125, 1.4025, 0.5775, 1.5675, 0.66, 1.65, 0.7425, 1.7325, 0.825, 1.815, 0.9075, 1.8975, 0.495, 1.485, 0, 0.99, 0.0825, 1.0725, 0.165, 1.155, 0.2475, 1.2375, 0.33, 1.32, 0.4125, 1.4025, 0.5775, 1.5675, 0.66, 1.65, 0.7425, 1.7325, 0.825, 1.815, 0.9075, 1.8975, 0.495],
  "SoftwareVersions": "syngo_MR_E11",
  "SpacingBetweenSlices": 2,
  "StationName": "AWP166078",
  "TaskName": "motor",
  "TotalReadoutTime": 0.0534586,
  "TxRefAmp": 256.978,
  "dcmmeta_affine": [
    [-2.0, 0.0, 0.0, 99.32530212402344],
    [0.0, 1.8396430015563965, -0.7846742272377014, -64.52753448486328],
    [0.0, 0.7846742272377014, 1.8396430015563965, -124.4406967163086],
    [0.0, 0.0, 0.0, 1.0]
],
  "dcmmeta_reorient_transform": [
    [0.0, -1.0, 0.0, 99.0],
    [1.0, 0.0, 0.0, 0.0],
    [0.0, 0.0, 1.0, 0.0],
    [0.0, 0.0, 0.0, 1.0]
],
  "dcmmeta_shape": [100, 100, 72, 232],
  "dcmmeta_slice_dim": 2,
  "dcmmeta_version": 0.6,
  "global": {
    "const": {
      "AcquisitionMatrix": [100, 0, 0, 100],
      "AngioFlag": "N",
      "BitsAllocated": 16,
      "BitsStored": 12,
      "BodyPartExamined": "BRAIN",
      "Columns": 900,
      "EchoNumbers": 1,
      "EchoTime": 34.0,
      "EchoTrainLength": 100,
      "FlipAngle": 90.0,
      "HighBit": 11,
      "ImageOrientationPatient": [1.0, 0.0, 0.0, 0.0, 0.91982149580192, -0.3923371201667],
      "ImagePositionPatient": [-899.32530122995, -853.45431738262, 267.11174707828],
      "ImageType": [
        "ORIGINAL",
        "PRIMARY",
        "M",
        "ND",
        "MOSAIC"
],
      "ImagedNucleus": "1H",
      "ImagingFrequency": 123.25784,
      "InPlanePhaseEncodingDirection": "COL",
      "MRAcquisitionType": "2D",
      "MagneticFieldStrength": 3.0,
      "Manufacturer": "SIEMENS",
      "ManufacturerModelName": "Prisma",
      "Modality": "MR",
      "NumberOfAverages": 1.0,
      "NumberOfPhaseEncodingSteps": 100,
      "PercentPhaseFieldOfView": 100.0,
      "PercentSampling": 100.0,
      "PerformedProcedureStepStartTime": "113626.911000",
      "PhotometricInterpretation": "MONOCHROME2",
      "PixelBandwidth": 2380.0,
      "PixelRepresentation": 0,
      "PixelSpacing": [2.0, 2.0],
      "ProtocolName": "bold_100x100_s3_2x2x2_232",
      "RepetitionTime": 2000.0,
      "Rows": 900,
      "SAR": 0.07355702941975,
      "SamplesPerPixel": 1,
      "ScanOptions": "FS",
      "ScanningSequence": "EP",
      "SequenceName": "*epfid2d1_100",
      "SequenceVariant": "SK",
      "SeriesDescription": "bold_100x100_s3_2x2x2_232",
      "SeriesNumber": 9,
      "SeriesTime": "121742.167000",
      "SliceLocation": -89.146682331951,
      "SliceThickness": 2.0,
      "SmallestImagePixelValue": 0,
      "SoftwareVersions": "syngo MR E11",
      "SpacingBetweenSlices": 1.9999999734583,
      "SpecificCharacterSet": "ISO_IR 100",
      "StudyID": "1",
      "StudyTime": "113626.818000",
      "TransmitCoilName": "Body",
      "VariableFlipAngleFlag": "N",
      "WindowCenterWidthExplanation": "Algo1",
      "dBdt": 0.0},
    "slices": {}
  },
  "time": {
    "samples": {
      "AcquisitionNumber": [1, 2, 3, 4, 5, 6, 7, 8, 9, 10, 11, 12, 13, 14, 15, 16, 17, 18, 19, 20, 21, 22, 23, 24, 25, 26, 27, 28, 29, 30, 31, 32, 33, 34, 35, 36, 37, 38, 39, 40, 41, 42, 43, 44, 45, 46, 47, 48, 49, 50, 51, 52, 53, 54, 55, 56, 57, 58, 59, 60, 61, 62, 63, 64, 65, 66, 67, 68, 69, 70, 71, 72, 73, 74, 75, 76, 77, 78, 79, 80, 81, 82, 83, 84, 85, 86, 87, 88, 89, 90, 91, 92, 93, 94, 95, 96, 97, 98, 99, 100, 101, 102, 103, 104, 105, 106, 107, 108, 109, 110, 111, 112, 113, 114, 115, 116, 117, 118, 119, 120, 121, 122, 123, 124, 125, 126, 127, 128, 129, 130, 131, 132, 133, 134, 135, 136, 137, 138, 139, 140, 141, 142, 143, 144, 145, 146, 147, 148, 149, 150, 151, 152, 153, 154, 155, 156, 157, 158, 159, 160, 161, 162, 163, 164, 165, 166, 167, 168, 169, 170, 171, 172, 173, 174, 175, 176, 177, 178, 179, 180, 181, 182, 183, 184, 185, 186, 187, 188, 189, 190, 191, 192, 193, 194, 195, 196, 197, 198, 199, 200, 201, 202, 203, 204, 205, 206, 207, 208, 209, 210, 211, 212, 213, 214, 215, 216, 217, 218, 219, 220, 221, 222, 223, 224, 225, 226, 227, 228, 229, 230, 231, 232],
      "AcquisitionTime": ["121739.445000", "121741.445000", "121743.445000", "121745.445000", "121747.445000", "121749.445000", "121751.445000", "121753.445000", "121755.445000", "121757.445000", "121759.445000", "121801.445000", "121803.445000", "121805.445000", "121807.445000", "121809.445000", "121811.445000", "121813.445000", "121815.445000", "121817.445000", "121819.445000", "121821.445000", "121823.445000", "121825.445000", "121827.445000", "121829.445000", "121831.445000", "121833.445000", "121835.445000", "121837.445000", "121839.445000", "121841.445000", "121843.445000", "121845.445000", "121847.445000", "121849.445000", "121851.445000", "121853.445000", "121855.445000", "121857.445000", "121859.445000", "121901.445000", "121903.445000", "121905.445000", "121907.445000", "121909.445000", "121911.445000", "121913.445000", "121915.445000", "121917.445000", "121919.445000", "121921.445000", "121923.445000", "121925.445000", "121927.445000", "121929.445000", "121931.445000", "121933.445000", "121935.445000", "121937.445000", "121939.445000", "121941.445000", "121943.445000", "121945.445000", "121947.445000", "121949.445000", "121951.445000", "121953.445000", "121955.445000", "121957.445000", "121959.445000", "122001.445000", "122003.445000", "122005.445000", "122007.445000", "122009.445000", "122011.445000", "122013.445000", "122015.445000", "122017.445000", "122019.445000", "122021.445000", "122023.445000", "122025.445000", "122027.445000", "122029.445000", "122031.445000", "122033.445000", "122035.445000", "122037.445000", "122039.445000", "122041.445000", "122043.445000", "122045.445000", "122047.445000", "122049.445000", "122051.445000", "122053.445000", "122055.445000", "122057.445000", "122059.445000", "122101.445000", "122103.445000", "122105.445000", "122107.445000", "122109.445000", "122111.445000", "122113.445000", "122115.445000", "122117.445000", "122119.445000", "122121.445000", "122123.445000", "122125.445000", "122127.445000", "122129.445000", "122131.445000", "122133.445000", "122135.445000", "122137.445000", "122139.445000", "122141.445000", "122143.445000", "122145.445000", "122147.445000", "122149.445000", "122151.445000", "122153.445000", "122155.445000", "122157.445000", "122159.445000", "122201.445000", "122203.445000", "122205.445000", "122207.445000", "122209.445000", "122211.445000", "122213.445000", "122215.445000", "122217.445000", "122219.445000", "122221.445000", "122223.445000", "122225.445000", "122227.445000", "122229.445000", "122231.445000", "122233.445000", "122235.445000", "122237.445000", "122239.445000", "122241.445000", "122243.445000", "122245.445000", "122247.445000", "122249.445000", "122251.445000", "122253.445000", "122255.445000", "122257.445000", "122259.445000", "122301.445000", "122303.445000", "122305.445000", "122307.445000", "122309.445000", "122311.445000", "122313.445000", "122315.445000", "122317.445000", "122319.445000", "122321.445000", "122323.445000", "122325.445000", "122327.445000", "122329.445000", "122331.445000", "122333.445000", "122335.445000", "122337.445000", "122339.445000", "122341.445000", "122343.445000", "122345.445000", "122347.445000", "122349.445000", "122351.445000", "122353.445000", "122355.445000", "122357.445000", "122359.445000", "122401.445000", "122403.445000", "122405.445000", "122407.445000", "122409.445000", "122411.445000", "122413.445000", "122415.445000", "122417.445000", "122419.445000", "122421.445000", "122423.445000", "122425.445000", "122427.445000", "122429.445000", "122431.445000", "122433.445000", "122435.445000", "122437.445000", "122439.445000", "122441.445000", "122443.445000", "122445.445000", "122447.445000", "122449.445000", "122451.445000", "122453.445000", "122455.445000", "122457.445000", "122459.445000", "122501.445000", "122503.445000", "122505.445000", "122507.445000", "122509.445000", "122511.445000", "122513.445000", "122515.445000", "122517.445000", "122519.445000", "122521.445000"],
      "ContentTime": ["121742.171000", "121743.666000", "121745.166000", "121747.166000", "121749.166000", "121751.166000", "121753.166000", "121755.166000", "121757.667000", "121759.166000", "121801.167000", "121803.166000", "121805.166000", "121807.167000", "121809.166000", "121811.166000", "121813.166000", "121815.166000", "121817.166000", "121819.666000", "121821.166000", "121823.167000", "121825.167000", "121827.166000", "121829.166000", "121831.166000", "121833.167000", "121835.166000", "121837.166000", "121839.166000", "121841.667000", "121843.165000", "121845.166000", "121847.166000", "121849.166000", "121851.167000", "121853.166000", "121855.166000", "121857.167000", "121859.166000", "121901.165000", "121903.166000", "121905.167000", "121907.167000", "121909.167000", "121911.166000", "121913.167000", "121915.666000", "121917.167000", "121919.165000", "121921.166000", "121923.166000", "121925.167000", "121927.166000", "121929.167000", "121931.167000", "121933.166000", "121935.166000", "121937.167000", "121939.166000", "121941.167000", "121943.167000", "121945.667000", "121947.166000", "121949.166000", "121951.166000", "121953.165000", "121955.166000", "121957.167000", "121959.167000", "122001.166000", "122003.166000", "122005.166000", "122007.167000", "122009.167000", "122011.666000", "122013.167000", "122015.166000", "122017.167000", "122019.167000", "122021.167000", "122023.167000", "122025.167000", "122027.666000", "122029.165000", "122031.167000", "122033.166000", "122035.166000", "122037.167000", "122039.166000", "122041.167000", "122043.666000", "122045.166000", "122047.166000", "122049.167000", "122051.166000", "122053.166000", "122055.166000", "122057.166000", "122059.166000", "122101.167000", "122103.665000", "122105.167000", "122107.166000", "122109.166000", "122111.167000", "122113.166000", "122115.166000", "122117.167000", "122119.167000", "122121.166000", "122123.166000", "122125.167000", "122127.167000", "122129.666000", "122131.166000", "122133.166000", "122135.166000", "122137.166000", "122139.166000", "122141.166000", "122143.166000", "122145.167000", "122147.667000", "122149.167000", "122151.166000", "122153.166000", "122155.166000", "122157.166000", "122159.166000", "122201.666000", "122203.166000", "122205.167000", "122207.167000", "122209.166000", "122211.167000", "122213.165000", "122215.167000", "122217.166000", "122219.167000", "122221.166000", "122223.167000", "122225.166000", "122227.166000", "122229.166000", "122231.165000", "122233.166000", "122235.166000", "122237.667000", "122239.166000", "122241.666000", "122243.166000", "122245.166000", "122247.167000", "122249.666000", "122251.167000", "122253.167000", "122255.167000", "122257.166000", "122259.166000", "122301.167000", "122303.167000", "122305.166000", "122307.167000", "122309.167000", "122311.167000", "122313.166000", "122315.166000", "122317.166000", "122319.166000", "122321.167000", "122323.165000", "122325.166000", "122327.167000", "122329.167000", "122331.167000", "122333.166000", "122335.166000", "122337.167000", "122339.167000", "122341.166000", "122343.166000", "122345.166000", "122347.166000", "122349.167000", "122351.167000", "122353.166000", "122355.167000", "122357.166000", "122359.167000", "122401.167000", "122403.167000", "122405.166000", "122407.167000", "122409.167000", "122411.167000", "122413.166000", "122415.166000", "122417.167000", "122419.167000", "122421.167000", "122423.666000", "122425.167000", "122427.166000", "122429.167000", "122431.166000", "122433.165000", "122435.166000", "122437.166000", "122439.166000", "122441.167000", "122443.166000", "122445.167000", "122447.666000", "122449.667000", "122451.166000", "122453.167000", "122455.167000", "122457.167000", "122459.166000", "122501.183000", "122503.166000", "122505.167000", "122507.167000", "122509.167000", "122511.166000", "122513.166000", "122515.166000", "122517.167000", "122519.167000", "122521.166000", "122523.067000"],
      "InstanceCreationTime": ["121742.171000", "121743.666000", "121745.166000", "121747.166000", "121749.166000", "121751.166000", "121753.166000", "121755.166000", "121757.667000", "121759.166000", "121801.167000", "121803.166000", "121805.166000", "121807.167000", "121809.166000", "121811.166000", "121813.166000", "121815.166000", "121817.166000", "121819.666000", "121821.166000", "121823.167000", "121825.167000", "121827.166000", "121829.166000", "121831.166000", "121833.167000", "121835.166000", "121837.166000", "121839.166000", "121841.667000", "121843.165000", "121845.166000", "121847.166000", "121849.166000", "121851.167000", "121853.166000", "121855.166000", "121857.167000", "121859.166000", "121901.165000", "121903.166000", "121905.167000", "121907.167000", "121909.167000", "121911.166000", "121913.167000", "121915.666000", "121917.167000", "121919.165000", "121921.166000", "121923.166000", "121925.167000", "121927.166000", "121929.167000", "121931.167000", "121933.166000", "121935.166000", "121937.167000", "121939.166000", "121941.167000", "121943.167000", "121945.667000", "121947.166000", "121949.166000", "121951.166000", "121953.165000", "121955.166000", "121957.167000", "121959.167000", "122001.166000", "122003.166000", "122005.166000", "122007.167000", "122009.167000", "122011.666000", "122013.167000", "122015.166000", "122017.167000", "122019.167000", "122021.167000", "122023.167000", "122025.167000", "122027.666000", "122029.165000", "122031.167000", "122033.166000", "122035.166000", "122037.167000", "122039.166000", "122041.167000", "122043.666000", "122045.166000", "122047.166000", "122049.167000", "122051.166000", "122053.166000", "122055.166000", "122057.166000", "122059.166000", "122101.167000", "122103.665000", "122105.167000", "122107.166000", "122109.166000", "122111.167000", "122113.166000", "122115.166000", "122117.167000", "122119.167000", "122121.166000", "122123.166000", "122125.167000", "122127.167000", "122129.666000", "122131.166000", "122133.166000", "122135.166000", "122137.166000", "122139.166000", "122141.166000", "122143.166000", "122145.167000", "122147.667000", "122149.167000", "122151.166000", "122153.166000", "122155.166000", "122157.166000", "122159.166000", "122201.666000", "122203.166000", "122205.167000", "122207.167000", "122209.166000", "122211.167000", "122213.165000", "122215.167000", "122217.166000", "122219.167000", "122221.166000", "122223.167000", "122225.166000", "122227.166000", "122229.166000", "122231.165000", "122233.166000", "122235.166000", "122237.667000", "122239.166000", "122241.666000", "122243.166000", "122245.166000", "122247.167000", "122249.666000", "122251.167000", "122253.167000", "122255.167000", "122257.166000", "122259.166000", "122301.167000", "122303.167000", "122305.166000", "122307.167000", "122309.167000", "122311.167000", "122313.166000", "122315.166000", "122317.166000", "122319.166000", "122321.167000", "122323.165000", "122325.166000", "122327.167000", "122329.167000", "122331.167000", "122333.166000", "122335.166000", "122337.167000", "122339.167000", "122341.166000", "122343.166000", "122345.166000", "122347.166000", "122349.167000", "122351.167000", "122353.166000", "122355.167000", "122357.166000", "122359.167000", "122401.167000", "122403.167000", "122405.166000", "122407.167000", "122409.167000", "122411.167000", "122413.166000", "122415.166000", "122417.167000", "122419.167000", "122421.167000", "122423.666000", "122425.167000", "122427.166000", "122429.167000", "122431.166000", "122433.165000", "122435.166000", "122437.166000", "122439.166000", "122441.167000", "122443.166000", "122445.167000", "122447.666000", "122449.667000", "122451.166000", "122453.167000", "122455.167000", "122457.167000", "122459.166000", "122501.183000", "122503.166000", "122505.167000", "122507.167000", "122509.167000", "122511.166000", "122513.166000", "122515.166000", "122517.167000", "122519.167000", "122521.166000", "122523.067000"],
      "InstanceNumber": [1, 2, 3, 4, 5, 6, 7, 8, 9, 10, 11, 12, 13, 14, 15, 16, 17, 18, 19, 20, 21, 22, 23, 24, 25, 26, 27, 28, 29, 30, 31, 32, 33, 34, 35, 36, 37, 38, 39, 40, 41, 42, 43, 44, 45, 46, 47, 48, 49, 50, 51, 52, 53, 54, 55, 56, 57, 58, 59, 60, 61, 62, 63, 64, 65, 66, 67, 68, 69, 70, 71, 72, 73, 74, 75, 76, 77, 78, 79, 80, 81, 82, 83, 84, 85, 86, 87, 88, 89, 90, 91, 92, 93, 94, 95, 96, 97, 98, 99, 100, 101, 102, 103, 104, 105, 106, 107, 108, 109, 110, 111, 112, 113, 114, 115, 116, 117, 118, 119, 120, 121, 122, 123, 124, 125, 126, 127, 128, 129, 130, 131, 132, 133, 134, 135, 136, 137, 138, 139, 140, 141, 142, 143, 144, 145, 146, 147, 148, 149, 150, 151, 152, 153, 154, 155, 156, 157, 158, 159, 160, 161, 162, 163, 164, 165, 166, 167, 168, 169, 170, 171, 172, 173, 174, 175, 176, 177, 178, 179, 180, 181, 182, 183, 184, 185, 186, 187, 188, 189, 190, 191, 192, 193, 194, 195, 196, 197, 198, 199, 200, 201, 202, 203, 204, 205, 206, 207, 208, 209, 210, 211, 212, 213, 214, 215, 216, 217, 218, 219, 220, 221, 222, 223, 224, 225, 226, 227, 228, 229, 230, 231, 232],
      "LargestImagePixelValue": [2801, 2742, 2719, 2730, 2744, 2749, 2754, 2745, 2712, 2677, 2612, 2676, 2637, 2741, 2672, 2586, 2642, 2632, 2638, 2644, 2624, 2659, 2645, 2684, 2689, 2693, 2683, 2635, 2654, 2630, 2634, 2673, 2715, 2695, 2699, 2652, 2689, 2655, 2686, 2679, 2735, 2753, 2708, 2721, 2702, 2721, 2708, 2722, 2692, 2702, 2691, 2681, 2672, 2759, 2679, 2675, 2731, 2709, 2689, 2711, 2681, 2694, 2736, 2696, 2717, 2705, 2661, 2684, 2619, 2686, 2648, 2657, 2611, 2688, 2650, 2622, 2665, 2679, 2650, 2645, 2710, 2695, 2658, 2684, 2706, 2681, 2693, 2706, 2678, 2710, 2701, 2645, 2749, 2761, 2635, 2506, 2708, 2655, 2603, 2589, 2574, 2563, 2612, 2597, 2542, 2558, 2595, 2550, 2518, 2562, 2616, 2597, 2588, 2567, 2557, 2538, 2551, 2557, 2551, 2615, 2669, 2692, 2639, 2650, 2573, 2647, 2567, 2610, 2661, 2583, 2580, 2563, 2572, 2581, 2593, 2572, 2562, 2584, 2559, 2577, 2627, 2606, 2557, 2585, 2544, 2591, 2651, 2717, 2602, 2572, 2598, 2572, 2593, 2608, 2672, 2633, 2568, 2609, 2601, 2593, 2618, 2683, 2655, 2706, 2647, 2643, 2604, 2580, 2596, 2582, 2593, 2585, 2591, 2587, 2607, 2611, 2595, 2707, 2575, 3102, 2609, 2740, 2608, 2638, 2547, 2574, 2619, 2564, 2588, 2596, 2553, 2581, 2595, 2597, 2599, 2592, 2560, 2584, 2589, 2576, 2581, 2593, 2711, 2638, 2580, 2583, 2577, 2627, 2614, 2596, 2597, 2632, 2607, 2592, 2610, 2565, 2576, 2662, 2812, 2632, 2644, 2581, 2579, 2619, 2563, 2579, 2568, 2609, 2586, 2592, 2563, 2562],
      "WindowCenter": [763.0, 760.0, 759.0, 757.0, 756.0, 757.0, 757.0, 758.0, 757.0, 758.0, 757.0, 757.0, 754.0, 758.0, 757.0, 756.0, 759.0, 758.0, 758.0, 759.0, 758.0, 757.0, 755.0, 756.0, 757.0, 758.0, 759.0, 758.0, 758.0, 757.0, 757.0, 758.0, 759.0, 759.0, 758.0, 758.0, 758.0, 757.0, 757.0, 756.0, 757.0, 758.0, 758.0, 759.0, 759.0, 760.0, 760.0, 760.0, 758.0, 758.0, 758.0, 756.0, 756.0, 757.0, 756.0, 756.0, 757.0, 757.0, 757.0, 756.0, 756.0, 755.0, 756.0, 756.0, 757.0, 756.0, 756.0, 757.0, 756.0, 758.0, 758.0, 758.0, 756.0, 758.0, 757.0, 755.0, 757.0, 757.0, 757.0, 756.0, 757.0, 757.0, 756.0, 756.0, 757.0, 757.0, 758.0, 756.0, 755.0, 759.0, 756.0, 755.0, 756.0, 754.0, 756.0, 750.0, 758.0, 755.0, 755.0, 755.0, 755.0, 754.0, 755.0, 754.0, 754.0, 755.0, 755.0, 754.0, 753.0, 754.0, 754.0, 754.0, 753.0, 754.0, 754.0, 752.0, 753.0, 751.0, 750.0, 750.0, 751.0, 753.0, 753.0, 754.0, 754.0, 755.0, 755.0, 756.0, 757.0, 756.0, 756.0, 755.0, 755.0, 755.0, 755.0, 754.0, 753.0, 754.0, 754.0, 752.0, 752.0, 751.0, 753.0, 752.0, 752.0, 753.0, 755.0, 756.0, 754.0, 753.0, 754.0, 754.0, 754.0, 754.0, 755.0, 754.0, 754.0, 753.0, 753.0, 753.0, 754.0, 755.0, 754.0, 754.0, 753.0, 752.0, 751.0, 751.0, 751.0, 753.0, 753.0, 753.0, 753.0, 754.0, 754.0, 755.0, 755.0, 755.0, 753.0, 760.0, 753.0, 755.0, 753.0, 753.0, 751.0, 753.0, 753.0, 753.0, 755.0, 755.0, 753.0, 752.0, 752.0, 753.0, 754.0, 753.0, 752.0, 752.0, 751.0, 752.0, 754.0, 754.0, 756.0, 755.0, 754.0, 754.0, 755.0, 756.0, 756.0, 756.0, 755.0, 756.0, 755.0, 755.0, 756.0, 754.0, 754.0, 753.0, 755.0, 753.0, 752.0, 750.0, 750.0, 754.0, 753.0, 754.0, 754.0, 755.0, 754.0, 753.0, 752.0, 753.0],
      "WindowWidth": [1610.0, 1606.0, 1600.0, 1596.0, 1594.0, 1596.0, 1598.0, 1600.0, 1598.0, 1599.0, 1597.0, 1598.0, 1592.0, 1599.0, 1597.0, 1595.0, 1602.0, 1599.0, 1599.0, 1601.0, 1599.0, 1597.0, 1594.0, 1595.0, 1597.0, 1599.0, 1601.0, 1600.0, 1600.0, 1599.0, 1599.0, 1601.0, 1602.0, 1602.0, 1600.0, 1600.0, 1600.0, 1598.0, 1597.0, 1595.0, 1599.0, 1601.0, 1599.0, 1602.0, 1602.0, 1606.0, 1605.0, 1604.0, 1600.0, 1600.0, 1599.0, 1595.0, 1595.0, 1598.0, 1595.0, 1594.0, 1596.0, 1597.0, 1598.0, 1595.0, 1594.0, 1593.0, 1595.0, 1595.0, 1596.0, 1596.0, 1595.0, 1597.0, 1596.0, 1601.0, 1599.0, 1600.0, 1594.0, 1601.0, 1597.0, 1593.0, 1597.0, 1597.0, 1596.0, 1595.0, 1598.0, 1597.0, 1596.0, 1596.0, 1597.0, 1598.0, 1599.0, 1595.0, 1594.0, 1601.0, 1595.0, 1593.0, 1595.0, 1592.0, 1595.0, 1583.0, 1600.0, 1593.0, 1592.0, 1592.0, 1593.0, 1591.0, 1592.0, 1592.0, 1591.0, 1592.0, 1593.0, 1592.0, 1589.0, 1592.0, 1591.0, 1592.0, 1589.0, 1591.0, 1591.0, 1587.0, 1588.0, 1583.0, 1582.0, 1581.0, 1583.0, 1588.0, 1588.0, 1591.0, 1590.0, 1593.0, 1592.0, 1595.0, 1597.0, 1596.0, 1596.0, 1593.0, 1593.0, 1592.0, 1592.0, 1590.0, 1588.0, 1590.0, 1591.0, 1586.0, 1585.0, 1584.0, 1589.0, 1586.0, 1586.0, 1588.0, 1592.0, 1595.0, 1589.0, 1588.0, 1590.0, 1590.0, 1590.0, 1591.0, 1592.0, 1591.0, 1590.0, 1589.0, 1588.0, 1589.0, 1591.0, 1592.0, 1590.0, 1591.0, 1587.0, 1585.0, 1584.0, 1584.0, 1585.0, 1587.0, 1588.0, 1588.0, 1589.0, 1591.0, 1591.0, 1592.0, 1592.0, 1593.0, 1587.0, 1602.0, 1587.0, 1591.0, 1587.0, 1589.0, 1585.0, 1589.0, 1589.0, 1589.0, 1592.0, 1594.0, 1589.0, 1587.0, 1587.0, 1589.0, 1590.0, 1589.0, 1588.0, 1587.0, 1585.0, 1586.0, 1589.0, 1591.0, 1594.0, 1591.0, 1591.0, 1591.0, 1593.0, 1595.0, 1595.0, 1595.0, 1593.0, 1594.0, 1592.0, 1592.0, 1594.0, 1591.0, 1591.0, 1588.0, 1592.0, 1587.0, 1585.0, 1581.0, 1583.0, 1591.0, 1588.0, 1590.0, 1590.0, 1594.0, 1592.0, 1589.0, 1587.0, 1588.0]
    },
    "slices": {}
  }
}