{
  "AcquisitionMatrixPE": 100,
  "AcquisitionNumber": 1,
  "AcquisitionTime": "12:08:19.782500",
  "BandwidthPerPixelPhaseEncode": 18.519,
  "BaseResolution": 100,
  "BodyPartExamined": "BRAIN",
  "ConsistencyInfo": "N4_VE11C_LATEST_20160120",
  "ConversionSoftware": "dcm2niix",
  "ConversionSoftwareVersion": "v1.0.20180622 GCC4.9.2",
  "DerivedVendorReportedEchoSpacing": 0.000539986,
  "DeviceSerialNumber": "166078",
  "DwellTime": 2.1e-06,
  "EchoTime": 0.034,
  "EchoTrainLength": 100,
  "EffectiveEchoSpacing": 0.000539986,
  "FlipAngle": 90,
  "ImageOrientationPatientDICOM": [1, 0, 0, 0, 0.919822, -0.392337],
  "ImageType": [
    "ORIGINAL",
    "PRIMARY",
    "M",
    "ND",
    "MOSAIC"
],
  "InPlanePhaseEncodingDirectionDICOM": "COL",
  "InstitutionAddress": "Street_StreetNo_Bei_Jing_District_CN_ZIP",
  "InstitutionName": "BeiJing_Normal_University",
  "InstitutionalDepartmentName": "Department",
  "MRAcquisitionType": "2D",
  "MagneticFieldStrength": 3,
  "Manufacturer": "Siemens",
  "ManufacturersModelName": "Prisma",
  "Modality": "MR",
  "MultibandAccelerationFactor": 3,
  "PartialFourier": 1,
  "PatientPosition": "HFS",
  "PercentPhaseFOV": 100,
  "PhaseEncodingDirection": "j-",
  "PhaseEncodingSteps": 100,
  "PhaseResolution": 1,
  "PixelBandwidth": 2380,
  "ProcedureStepDescription": "BNU_P2018_64CH_Liu.Jia",
  "ProtocolName": "bold_100x100_s3_2x2x2_232",
  "PulseSequenceDetails": "%SiemensSeq%_ep2d_bold",
  "ReceiveCoilActiveElements": "HC1-7;NC1",
  "ReceiveCoilName": "HeadNeck_64",
  "ReconMatrixPE": 100,
  "RepetitionTime": 2,
  "SAR": 0.073557,
  "ScanOptions": "FS",
  "ScanningSequence": "EP",
  "SequenceName": "_epfid2d1_100",
  "SequenceVariant": "SK",
  "SeriesDescription": "bold_100x100_s3_2x2x2_232",
  "SeriesNumber": 8,
  "ShimSetting": [-5467, -11510, -1298, 312, -93, -370, -97, 55],
  "SliceThickness": 2,
  "SliceTiming": [1.485, 0, 0.99, 0.0825, 1.0725, 0.165, 1.155, 0.2475, 1.2375, 0.33, 1.32, 0.4125, 1.4025, 0.5775, 1.5675, 0.66, 1.65, 0.7425, 1.7325, 0.825, 1.815, 0.9075, 1.8975, 0.495, 1.485, 0, 0.99, 0.0825, 1.0725, 0.165, 1.155, 0.2475, 1.2375, 0.33, 1.32, 0.4125, 1.4025, 0.5775, 1.5675, 0.66, 1.65, 0.7425, 1.7325, 0.825, 1.815, 0.9075, 1.8975, 0.495, 1.485, 0, 0.99, 0.0825, 1.0725, 0.165, 1.155, 0.2475, 1.2375, 0.33, 1.32, 0.4125, 1.4025, 0.5775, 1.5675, 0.66, 1.65, 0.7425, 1.7325, 0.825, 1.815, 0.9075, 1.8975, 0.495],
  "SoftwareVersions": "syngo_MR_E11",
  "SpacingBetweenSlices": 2,
  "StationName": "AWP166078",
  "TaskName": "motor",
  "TotalReadoutTime": 0.0534586,
  "TxRefAmp": 256.978,
  "dcmmeta_affine": [
    [-2.0, 0.0, 0.0, 99.32530212402344],
    [0.0, 1.8396430015563965, -0.7846742272377014, -64.52753448486328],
    [0.0, 0.7846742272377014, 1.8396430015563965, -124.4406967163086],
    [0.0, 0.0, 0.0, 1.0]
],
  "dcmmeta_reorient_transform": [
    [0.0, -1.0, 0.0, 99.0],
    [1.0, 0.0, 0.0, 0.0],
    [0.0, 0.0, 1.0, 0.0],
    [0.0, 0.0, 0.0, 1.0]
],
  "dcmmeta_shape": [100, 100, 72, 232],
  "dcmmeta_slice_dim": 2,
  "dcmmeta_version": 0.6,
  "global": {
    "const": {
      "AcquisitionMatrix": [100, 0, 0, 100],
      "AngioFlag": "N",
      "BitsAllocated": 16,
      "BitsStored": 12,
      "BodyPartExamined": "BRAIN",
      "Columns": 900,
      "EchoNumbers": 1,
      "EchoTime": 34.0,
      "EchoTrainLength": 100,
      "FlipAngle": 90.0,
      "HighBit": 11,
      "ImageOrientationPatient": [1.0, 0.0, 0.0, 0.0, 0.91982149580192, -0.3923371201667],
      "ImagePositionPatient": [-899.32530122995, -853.45431738262, 267.11174707828],
      "ImageType": [
        "ORIGINAL",
        "PRIMARY",
        "M",
        "ND",
        "MOSAIC"
],
      "ImagedNucleus": "1H",
      "ImagingFrequency": 123.257834,
      "InPlanePhaseEncodingDirection": "COL",
      "MRAcquisitionType": "2D",
      "MagneticFieldStrength": 3.0,
      "Manufacturer": "SIEMENS",
      "ManufacturerModelName": "Prisma",
      "Modality": "MR",
      "NumberOfAverages": 1.0,
      "NumberOfPhaseEncodingSteps": 100,
      "PercentPhaseFieldOfView": 100.0,
      "PercentSampling": 100.0,
      "PerformedProcedureStepStartTime": "113626.911000",
      "PhotometricInterpretation": "MONOCHROME2",
      "PixelBandwidth": 2380.0,
      "PixelRepresentation": 0,
      "PixelSpacing": [2.0, 2.0],
      "ProtocolName": "bold_100x100_s3_2x2x2_232",
      "RepetitionTime": 2000.0,
      "Rows": 900,
      "SAR": 0.07355702941975,
      "SamplesPerPixel": 1,
      "ScanOptions": "FS",
      "ScanningSequence": "EP",
      "SequenceName": "*epfid2d1_100",
      "SequenceVariant": "SK",
      "SeriesDescription": "bold_100x100_s3_2x2x2_232",
      "SeriesNumber": 8,
      "SeriesTime": "120822.210000",
      "SliceLocation": -89.146682331951,
      "SliceThickness": 2.0,
      "SmallestImagePixelValue": 0,
      "SoftwareVersions": "syngo MR E11",
      "SpacingBetweenSlices": 1.9999999734583,
      "SpecificCharacterSet": "ISO_IR 100",
      "StudyID": "1",
      "StudyTime": "113626.818000",
      "TransmitCoilName": "Body",
      "VariableFlipAngleFlag": "N",
      "WindowCenterWidthExplanation": "Algo1",
      "dBdt": 0.0},
    "slices": {}
  },
  "time": {
    "samples": {
      "AcquisitionNumber": [1, 2, 3, 4, 5, 6, 7, 8, 9, 10, 11, 12, 13, 14, 15, 16, 17, 18, 19, 20, 21, 22, 23, 24, 25, 26, 27, 28, 29, 30, 31, 32, 33, 34, 35, 36, 37, 38, 39, 40, 41, 42, 43, 44, 45, 46, 47, 48, 49, 50, 51, 52, 53, 54, 55, 56, 57, 58, 59, 60, 61, 62, 63, 64, 65, 66, 67, 68, 69, 70, 71, 72, 73, 74, 75, 76, 77, 78, 79, 80, 81, 82, 83, 84, 85, 86, 87, 88, 89, 90, 91, 92, 93, 94, 95, 96, 97, 98, 99, 100, 101, 102, 103, 104, 105, 106, 107, 108, 109, 110, 111, 112, 113, 114, 115, 116, 117, 118, 119, 120, 121, 122, 123, 124, 125, 126, 127, 128, 129, 130, 131, 132, 133, 134, 135, 136, 137, 138, 139, 140, 141, 142, 143, 144, 145, 146, 147, 148, 149, 150, 151, 152, 153, 154, 155, 156, 157, 158, 159, 160, 161, 162, 163, 164, 165, 166, 167, 168, 169, 170, 171, 172, 173, 174, 175, 176, 177, 178, 179, 180, 181, 182, 183, 184, 185, 186, 187, 188, 189, 190, 191, 192, 193, 194, 195, 196, 197, 198, 199, 200, 201, 202, 203, 204, 205, 206, 207, 208, 209, 210, 211, 212, 213, 214, 215, 216, 217, 218, 219, 220, 221, 222, 223, 224, 225, 226, 227, 228, 229, 230, 231, 232],
      "AcquisitionTime": ["120819.782500", "120821.782500", "120823.782500", "120825.782500", "120827.782500", "120829.782500", "120831.782500", "120833.782500", "120835.782500", "120837.782500", "120839.782500", "120841.782500", "120843.782500", "120845.782500", "120847.782500", "120849.782500", "120851.782500", "120853.782500", "120855.782500", "120857.782500", "120859.782500", "120901.782500", "120903.782500", "120905.782500", "120907.782500", "120909.782500", "120911.782500", "120913.782500", "120915.782500", "120917.782500", "120919.782500", "120921.782500", "120923.782500", "120925.782500", "120927.782500", "120929.782500", "120931.782500", "120933.782500", "120935.782500", "120937.782500", "120939.782500", "120941.782500", "120943.782500", "120945.782500", "120947.782500", "120949.782500", "120951.782500", "120953.782500", "120955.782500", "120957.782500", "120959.782500", "121001.782500", "121003.782500", "121005.782500", "121007.782500", "121009.782500", "121011.782500", "121013.782500", "121015.782500", "121017.782500", "121019.782500", "121021.782500", "121023.782500", "121025.782500", "121027.782500", "121029.782500", "121031.782500", "121033.782500", "121035.782500", "121037.782500", "121039.782500", "121041.782500", "121043.782500", "121045.782500", "121047.782500", "121049.782500", "121051.782500", "121053.782500", "121055.782500", "121057.782500", "121059.782500", "121101.782500", "121103.782500", "121105.782500", "121107.782500", "121109.782500", "121111.782500", "121113.782500", "121115.782500", "121117.782500", "121119.782500", "121121.782500", "121123.782500", "121125.782500", "121127.782500", "121129.782500", "121131.782500", "121133.782500", "121135.782500", "121137.782500", "121139.782500", "121141.782500", "121143.782500", "121145.782500", "121147.782500", "121149.782500", "121151.782500", "121153.782500", "121155.782500", "121157.782500", "121159.782500", "121201.782500", "121203.782500", "121205.782500", "121207.782500", "121209.782500", "121211.782500", "121213.782500", "121215.782500", "121217.782500", "121219.782500", "121221.782500", "121223.782500", "121225.782500", "121227.782500", "121229.782500", "121231.782500", "121233.782500", "121235.782500", "121237.782500", "121239.782500", "121241.782500", "121243.782500", "121245.782500", "121247.782500", "121249.782500", "121251.782500", "121253.782500", "121255.782500", "121257.782500", "121259.782500", "121301.782500", "121303.782500", "121305.782500", "121307.782500", "121309.782500", "121311.782500", "121313.782500", "121315.782500", "121317.782500", "121319.782500", "121321.782500", "121323.782500", "121325.782500", "121327.782500", "121329.782500", "121331.782500", "121333.782500", "121335.782500", "121337.782500", "121339.782500", "121341.782500", "121343.782500", "121345.782500", "121347.782500", "121349.782500", "121351.782500", "121353.782500", "121355.782500", "121357.782500", "121359.782500", "121401.782500", "121403.782500", "121405.782500", "121407.782500", "121409.782500", "121411.782500", "121413.782500", "121415.782500", "121417.782500", "121419.782500", "121421.782500", "121423.782500", "121425.782500", "121427.782500", "121429.782500", "121431.782500", "121433.782500", "121435.782500", "121437.782500", "121439.782500", "121441.782500", "121443.782500", "121445.782500", "121447.782500", "121449.782500", "121451.782500", "121453.782500", "121455.782500", "121457.782500", "121459.782500", "121501.782500", "121503.782500", "121505.782500", "121507.782500", "121509.782500", "121511.782500", "121513.782500", "121515.782500", "121517.782500", "121519.782500", "121521.782500", "121523.782500", "121525.782500", "121527.782500", "121529.782500", "121531.782500", "121533.782500", "121535.782500", "121537.782500", "121539.782500", "121541.782500", "121543.782500", "121545.782500", "121547.782500", "121549.782500", "121551.782500", "121553.782500", "121555.782500", "121557.782500", "121559.782500", "121601.782500"],
      "ContentTime": ["120822.214000", "120823.710000", "120825.709000", "120827.709000", "120829.709000", "120831.709000", "120833.710000", "120835.710000", "120837.709000", "120839.709000", "120841.709000", "120843.709000", "120845.709000", "120847.709000", "120849.709000", "120851.710000", "120853.710000", "120855.709000", "120857.710000", "120859.710000", "120901.709000", "120903.709000", "120905.709000", "120907.710000", "120909.710000", "120911.710000", "120913.709000", "120915.709000", "120917.710000", "120919.710000", "120921.709000", "120923.709000", "120925.711000", "120927.711000", "120929.711000", "120931.709000", "120933.709000", "120935.709000", "120937.710000", "120939.710000", "120941.709000", "120943.711000", "120945.710000", "120947.709000", "120949.709000", "120951.709000", "120953.709000", "120955.709000", "120957.709000", "120959.709000", "121001.710000", "121003.711000", "121005.710000", "121007.709000", "121009.710000", "121011.709000", "121013.709000", "121015.709000", "121017.711000", "121019.710000", "121021.711000", "121023.709000", "121025.709000", "121027.709000", "121029.710000", "121031.709000", "121033.709000", "121035.710000", "121037.710000", "121039.710000", "121041.710000", "121043.710000", "121045.709000", "121047.709000", "121049.709000", "121051.709000", "121053.710000", "121055.711000", "121057.709000", "121059.709000", "121101.709000", "121103.709000", "121105.709000", "121107.709000", "121109.709000", "121111.711000", "121113.711000", "121115.709000", "121117.709000", "121119.709000", "121121.709000", "121123.710000", "121125.709000", "121127.710000", "121129.710000", "121131.710000", "121133.709000", "121135.709000", "121137.710000", "121139.709000", "121141.709000", "121143.709000", "121145.711000", "121147.711000", "121149.710000", "121151.709000", "121153.710000", "121155.709000", "121157.710000", "121159.709000", "121201.709000", "121203.710000", "121205.711000", "121207.709000", "121209.709000", "121211.709000", "121213.709000", "121215.709000", "121217.709000", "121219.710000", "121221.711000", "121223.710000", "121225.710000", "121227.709000", "121229.709000", "121231.709000", "121233.709000", "121235.710000", "121237.711000", "121239.710000", "121241.710000", "121243.710000", "121245.710000", "121247.709000", "121249.709000", "121251.710000", "121253.710000", "121255.710000", "121257.711000", "121259.710000", "121301.710000", "121303.709000", "121305.710000", "121307.710000", "121309.709000", "121311.709000", "121313.711000", "121315.710000", "121317.709000", "121319.710000", "121321.709000", "121323.709000", "121325.710000", "121327.710000", "121329.711000", "121331.710000", "121333.711000", "121335.709000", "121337.710000", "121339.710000", "121341.709000", "121343.709000", "121345.710000", "121347.710000", "121349.710000", "121351.711000", "121353.710000", "121355.709000", "121357.710000", "121359.709000", "121401.709000", "121403.710000", "121405.710000", "121407.710000", "121409.710000", "121411.710000", "121413.710000", "121415.709000", "121417.709000", "121419.709000", "121421.709000", "121423.710000", "121425.711000", "121427.709000", "121429.710000", "121431.710000", "121433.710000", "121435.709000", "121437.709000", "121439.710000", "121441.710000", "121443.710000", "121445.710000", "121447.710000", "121449.709000", "121451.710000", "121453.709000", "121455.710000", "121457.711000", "121459.711000", "121501.710000", "121503.709000", "121505.710000", "121507.710000", "121509.710000", "121511.709000", "121513.709000", "121515.711000", "121517.711000", "121519.722000", "121521.710000", "121523.710000", "121525.710000", "121527.710000", "121529.709000", "121531.710000", "121533.711000", "121535.711000", "121537.709000", "121539.710000", "121541.710000", "121543.709000", "121545.709000", "121547.709000", "121549.711000", "121551.711000", "121553.710000", "121555.710000", "121557.710000", "121559.709000", "121601.710000", "121603.425000"],
      "InstanceCreationTime": ["120822.214000", "120823.710000", "120825.709000", "120827.709000", "120829.709000", "120831.709000", "120833.710000", "120835.710000", "120837.709000", "120839.709000", "120841.709000", "120843.709000", "120845.709000", "120847.709000", "120849.709000", "120851.710000", "120853.710000", "120855.709000", "120857.710000", "120859.710000", "120901.709000", "120903.709000", "120905.709000", "120907.710000", "120909.710000", "120911.710000", "120913.709000", "120915.709000", "120917.710000", "120919.710000", "120921.709000", "120923.709000", "120925.711000", "120927.711000", "120929.711000", "120931.709000", "120933.709000", "120935.709000", "120937.710000", "120939.710000", "120941.709000", "120943.711000", "120945.710000", "120947.709000", "120949.709000", "120951.709000", "120953.709000", "120955.709000", "120957.709000", "120959.709000", "121001.710000", "121003.711000", "121005.710000", "121007.709000", "121009.710000", "121011.709000", "121013.709000", "121015.709000", "121017.711000", "121019.710000", "121021.711000", "121023.709000", "121025.709000", "121027.709000", "121029.710000", "121031.709000", "121033.709000", "121035.710000", "121037.710000", "121039.710000", "121041.710000", "121043.710000", "121045.709000", "121047.709000", "121049.709000", "121051.709000", "121053.710000", "121055.711000", "121057.709000", "121059.709000", "121101.709000", "121103.709000", "121105.709000", "121107.709000", "121109.709000", "121111.711000", "121113.711000", "121115.709000", "121117.709000", "121119.709000", "121121.709000", "121123.710000", "121125.709000", "121127.710000", "121129.710000", "121131.710000", "121133.709000", "121135.709000", "121137.710000", "121139.709000", "121141.709000", "121143.709000", "121145.711000", "121147.711000", "121149.710000", "121151.709000", "121153.710000", "121155.709000", "121157.710000", "121159.709000", "121201.709000", "121203.710000", "121205.711000", "121207.709000", "121209.709000", "121211.709000", "121213.709000", "121215.709000", "121217.709000", "121219.710000", "121221.711000", "121223.710000", "121225.710000", "121227.709000", "121229.709000", "121231.709000", "121233.709000", "121235.710000", "121237.711000", "121239.710000", "121241.710000", "121243.710000", "121245.710000", "121247.709000", "121249.709000", "121251.710000", "121253.710000", "121255.710000", "121257.711000", "121259.710000", "121301.710000", "121303.709000", "121305.710000", "121307.710000", "121309.709000", "121311.709000", "121313.711000", "121315.710000", "121317.709000", "121319.710000", "121321.709000", "121323.709000", "121325.710000", "121327.710000", "121329.711000", "121331.710000", "121333.711000", "121335.709000", "121337.710000", "121339.710000", "121341.709000", "121343.709000", "121345.710000", "121347.710000", "121349.710000", "121351.711000", "121353.710000", "121355.709000", "121357.710000", "121359.709000", "121401.709000", "121403.710000", "121405.710000", "121407.710000", "121409.710000", "121411.710000", "121413.710000", "121415.709000", "121417.709000", "121419.709000", "121421.709000", "121423.710000", "121425.711000", "121427.709000", "121429.710000", "121431.710000", "121433.710000", "121435.709000", "121437.709000", "121439.710000", "121441.710000", "121443.710000", "121445.710000", "121447.710000", "121449.709000", "121451.710000", "121453.709000", "121455.710000", "121457.711000", "121459.711000", "121501.710000", "121503.709000", "121505.710000", "121507.710000", "121509.710000", "121511.709000", "121513.709000", "121515.711000", "121517.711000", "121519.722000", "121521.710000", "121523.710000", "121525.710000", "121527.710000", "121529.709000", "121531.710000", "121533.711000", "121535.711000", "121537.709000", "121539.710000", "121541.710000", "121543.709000", "121545.709000", "121547.709000", "121549.711000", "121551.711000", "121553.710000", "121555.710000", "121557.710000", "121559.709000", "121601.710000", "121603.425000"],
      "InstanceNumber": [1, 2, 3, 4, 5, 6, 7, 8, 9, 10, 11, 12, 13, 14, 15, 16, 17, 18, 19, 20, 21, 22, 23, 24, 25, 26, 27, 28, 29, 30, 31, 32, 33, 34, 35, 36, 37, 38, 39, 40, 41, 42, 43, 44, 45, 46, 47, 48, 49, 50, 51, 52, 53, 54, 55, 56, 57, 58, 59, 60, 61, 62, 63, 64, 65, 66, 67, 68, 69, 70, 71, 72, 73, 74, 75, 76, 77, 78, 79, 80, 81, 82, 83, 84, 85, 86, 87, 88, 89, 90, 91, 92, 93, 94, 95, 96, 97, 98, 99, 100, 101, 102, 103, 104, 105, 106, 107, 108, 109, 110, 111, 112, 113, 114, 115, 116, 117, 118, 119, 120, 121, 122, 123, 124, 125, 126, 127, 128, 129, 130, 131, 132, 133, 134, 135, 136, 137, 138, 139, 140, 141, 142, 143, 144, 145, 146, 147, 148, 149, 150, 151, 152, 153, 154, 155, 156, 157, 158, 159, 160, 161, 162, 163, 164, 165, 166, 167, 168, 169, 170, 171, 172, 173, 174, 175, 176, 177, 178, 179, 180, 181, 182, 183, 184, 185, 186, 187, 188, 189, 190, 191, 192, 193, 194, 195, 196, 197, 198, 199, 200, 201, 202, 203, 204, 205, 206, 207, 208, 209, 210, 211, 212, 213, 214, 215, 216, 217, 218, 219, 220, 221, 222, 223, 224, 225, 226, 227, 228, 229, 230, 231, 232],
      "LargestImagePixelValue": [2728, 2721, 2701, 2695, 2695, 2697, 2707, 2708, 2682, 2679, 2668, 2643, 2632, 2620, 2668, 2670, 2761, 2703, 2708, 2691, 2687, 2721, 2690, 2704, 2675, 2672, 2712, 2718, 2710, 2704, 2714, 2744, 2704, 2649, 2687, 2675, 2672, 2685, 2700, 2673, 2699, 2709, 2661, 2609, 2571, 2706, 2616, 2699, 2619, 2614, 2652, 2664, 2697, 2720, 2709, 2723, 2705, 2733, 2707, 2711, 2711, 2710, 2730, 2712, 2690, 2739, 2724, 2737, 2743, 2722, 2724, 2689, 2732, 2725, 2719, 2717, 2735, 2691, 2674, 2698, 2713, 2679, 2715, 2697, 2680, 2712, 2712, 2698, 2708, 2714, 2720, 2697, 2717, 2707, 2699, 2701, 2692, 2732, 2659, 2646, 2684, 2729, 2681, 2679, 2667, 2709, 2680, 2628, 2759, 2669, 2655, 2626, 2679, 2693, 2695, 2664, 2712, 2675, 2743, 2708, 2685, 2701, 2978, 2592, 3029, 2585, 2687, 2701, 2647, 2630, 2700, 2594, 2589, 2587, 2589, 2644, 2626, 2604, 2645, 2616, 2658, 2606, 2605, 2671, 2597, 2621, 2898, 2613, 2776, 2630, 2609, 2597, 2611, 2595, 2675, 2612, 2647, 2604, 2713, 2797, 2595, 2631, 2666, 2634, 2626, 2861, 2608, 2593, 2685, 2699, 2654, 2655, 2672, 2712, 2700, 2683, 2706, 2680, 3000, 2698, 2695, 2759, 2708, 2690, 2675, 2669, 2612, 2601, 2589, 2744, 2720, 2589, 2595, 2735, 2756, 2743, 2645, 2651, 2598, 2650, 2680, 2631, 2642, 2616, 2618, 2638, 2616, 2635, 2659, 2683, 2625, 2666, 2633, 2661, 2660, 2632, 2658, 2634, 2606, 2629, 2566, 2658, 2671, 2632, 2597, 2785, 2689, 2701, 2713, 2727, 2727, 2696],
      "WindowCenter": [763.0, 761.0, 760.0, 760.0, 760.0, 760.0, 760.0, 760.0, 760.0, 760.0, 760.0, 759.0, 758.0, 757.0, 758.0, 758.0, 758.0, 758.0, 758.0, 758.0, 757.0, 757.0, 757.0, 758.0, 758.0, 759.0, 760.0, 760.0, 760.0, 759.0, 760.0, 760.0, 760.0, 758.0, 759.0, 759.0, 759.0, 759.0, 759.0, 759.0, 759.0, 761.0, 760.0, 757.0, 750.0, 756.0, 756.0, 758.0, 754.0, 757.0, 756.0, 758.0, 760.0, 758.0, 757.0, 755.0, 753.0, 754.0, 754.0, 756.0, 757.0, 757.0, 758.0, 757.0, 758.0, 760.0, 760.0, 760.0, 762.0, 762.0, 761.0, 760.0, 761.0, 760.0, 760.0, 759.0, 759.0, 758.0, 759.0, 759.0, 760.0, 760.0, 759.0, 759.0, 759.0, 759.0, 758.0, 759.0, 759.0, 760.0, 759.0, 758.0, 759.0, 758.0, 759.0, 758.0, 757.0, 758.0, 758.0, 757.0, 757.0, 758.0, 757.0, 757.0, 754.0, 759.0, 757.0, 755.0, 757.0, 755.0, 757.0, 756.0, 756.0, 758.0, 760.0, 759.0, 758.0, 758.0, 757.0, 754.0, 753.0, 755.0, 757.0, 752.0, 760.0, 754.0, 757.0, 757.0, 756.0, 756.0, 758.0, 755.0, 755.0, 755.0, 754.0, 756.0, 756.0, 755.0, 756.0, 754.0, 755.0, 754.0, 754.0, 755.0, 753.0, 755.0, 759.0, 755.0, 757.0, 754.0, 755.0, 755.0, 754.0, 753.0, 756.0, 756.0, 757.0, 755.0, 757.0, 758.0, 755.0, 758.0, 757.0, 757.0, 756.0, 760.0, 756.0, 756.0, 757.0, 758.0, 757.0, 756.0, 756.0, 758.0, 756.0, 753.0, 753.0, 755.0, 760.0, 756.0, 756.0, 759.0, 759.0, 759.0, 758.0, 758.0, 755.0, 755.0, 750.0, 754.0, 755.0, 754.0, 754.0, 757.0, 759.0, 760.0, 757.0, 755.0, 752.0, 751.0, 751.0, 751.0, 753.0, 754.0, 754.0, 754.0, 754.0, 756.0, 757.0, 757.0, 757.0, 758.0, 757.0, 757.0, 758.0, 757.0, 759.0, 758.0, 757.0, 757.0, 755.0, 757.0, 757.0, 756.0, 756.0, 760.0, 760.0, 757.0, 758.0, 758.0, 756.0, 755.0],
      "WindowWidth": [1611.0, 1607.0, 1605.0, 1605.0, 1604.0, 1604.0, 1605.0, 1605.0, 1606.0, 1605.0, 1604.0, 1602.0, 1601.0, 1598.0, 1600.0, 1600.0, 1600.0, 1599.0, 1600.0, 1600.0, 1597.0, 1598.0, 1599.0, 1601.0, 1601.0, 1604.0, 1606.0, 1605.0, 1603.0, 1603.0, 1605.0, 1605.0, 1605.0, 1599.0, 1603.0, 1603.0, 1602.0, 1602.0, 1602.0, 1601.0, 1602.0, 1605.0, 1605.0, 1598.0, 1581.0, 1595.0, 1595.0, 1600.0, 1591.0, 1598.0, 1595.0, 1601.0, 1604.0, 1599.0, 1598.0, 1594.0, 1588.0, 1590.0, 1590.0, 1595.0, 1597.0, 1597.0, 1598.0, 1598.0, 1600.0, 1604.0, 1604.0, 1605.0, 1608.0, 1609.0, 1607.0, 1604.0, 1606.0, 1604.0, 1603.0, 1602.0, 1601.0, 1600.0, 1602.0, 1603.0, 1604.0, 1604.0, 1603.0, 1602.0, 1602.0, 1601.0, 1601.0, 1601.0, 1602.0, 1603.0, 1603.0, 1600.0, 1601.0, 1599.0, 1601.0, 1600.0, 1598.0, 1599.0, 1600.0, 1598.0, 1597.0, 1600.0, 1599.0, 1598.0, 1590.0, 1602.0, 1596.0, 1592.0, 1598.0, 1593.0, 1597.0, 1595.0, 1596.0, 1600.0, 1603.0, 1601.0, 1600.0, 1599.0, 1597.0, 1591.0, 1587.0, 1593.0, 1598.0, 1587.0, 1604.0, 1590.0, 1597.0, 1597.0, 1595.0, 1596.0, 1599.0, 1594.0, 1594.0, 1594.0, 1592.0, 1596.0, 1595.0, 1594.0, 1595.0, 1592.0, 1592.0, 1590.0, 1591.0, 1592.0, 1590.0, 1592.0, 1600.0, 1592.0, 1597.0, 1591.0, 1593.0, 1593.0, 1591.0, 1589.0, 1595.0, 1596.0, 1596.0, 1593.0, 1598.0, 1599.0, 1594.0, 1599.0, 1597.0, 1596.0, 1596.0, 1604.0, 1596.0, 1595.0, 1597.0, 1598.0, 1597.0, 1595.0, 1594.0, 1598.0, 1594.0, 1589.0, 1589.0, 1593.0, 1604.0, 1595.0, 1596.0, 1601.0, 1602.0, 1602.0, 1599.0, 1599.0, 1592.0, 1593.0, 1583.0, 1591.0, 1594.0, 1591.0, 1591.0, 1596.0, 1600.0, 1603.0, 1597.0, 1593.0, 1586.0, 1583.0, 1583.0, 1585.0, 1589.0, 1591.0, 1590.0, 1592.0, 1592.0, 1594.0, 1596.0, 1597.0, 1597.0, 1599.0, 1597.0, 1597.0, 1599.0, 1598.0, 1601.0, 1600.0, 1598.0, 1598.0, 1593.0, 1596.0, 1596.0, 1594.0, 1594.0, 1604.0, 1602.0, 1596.0, 1599.0, 1599.0, 1594.0, 1592.0]
    },
    "slices": {}
  }
}