{
  "AcquisitionMatrixPE": 100,
  "AcquisitionNumber": 1,
  "AcquisitionTime": "10:54:39.912500",
  "BandwidthPerPixelPhaseEncode": 18.519,
  "BaseResolution": 100,
  "BodyPartExamined": "BRAIN",
  "ConsistencyInfo": "N4_VE11C_LATEST_20160120",
  "ConversionSoftware": "dcm2niix",
  "ConversionSoftwareVersion": "v1.0.20180622 GCC4.9.2",
  "DerivedVendorReportedEchoSpacing": 0.000539986,
  "DeviceSerialNumber": "166078",
  "DwellTime": 2.1e-06,
  "EchoTime": 0.034,
  "EchoTrainLength": 100,
  "EffectiveEchoSpacing": 0.000539986,
  "FlipAngle": 90,
  "ImageOrientationPatientDICOM": [0.999781, -0.000438311, 0.0209279, -3.13353e-08, 0.999781, 0.0209408],
  "ImageType": [
    "ORIGINAL",
    "PRIMARY",
    "M",
    "ND",
    "MOSAIC"
],
  "InPlanePhaseEncodingDirectionDICOM": "COL",
  "InstitutionAddress": "Street_StreetNo_Bei_Jing_District_CN_ZIP",
  "InstitutionName": "BeiJing_Normal_University",
  "InstitutionalDepartmentName": "Department",
  "MRAcquisitionType": "2D",
  "MagneticFieldStrength": 3,
  "Manufacturer": "Siemens",
  "ManufacturersModelName": "Prisma",
  "Modality": "MR",
  "MultibandAccelerationFactor": 3,
  "PartialFourier": 1,
  "PatientPosition": "HFS",
  "PercentPhaseFOV": 100,
  "PhaseEncodingDirection": "j-",
  "PhaseEncodingSteps": 100,
  "PhaseResolution": 1,
  "PixelBandwidth": 2380,
  "ProcedureStepDescription": "BNU_P2018_64CH_Liu.Jia",
  "ProtocolName": "bold_100x100_s3_2x2x2_232",
  "PulseSequenceDetails": "%SiemensSeq%_ep2d_bold",
  "ReceiveCoilActiveElements": "HC1-7;NC1",
  "ReceiveCoilName": "HeadNeck_64",
  "ReconMatrixPE": 100,
  "RepetitionTime": 2,
  "SAR": 0.0634312,
  "ScanOptions": "FS",
  "ScanningSequence": "EP",
  "SequenceName": "_epfid2d1_100",
  "SequenceVariant": "SK",
  "SeriesDescription": "bold_100x100_s3_2x2x2_232",
  "SeriesNumber": 8,
  "ShimSetting": [-5457, -11493, -1277, 388, -21, -264, -66, -22],
  "SliceThickness": 2,
  "SliceTiming": [1.485, 0, 0.99, 0.0825, 1.0725, 0.165, 1.155, 0.2475, 1.2375, 0.33, 1.32, 0.4125, 1.4025, 0.5775, 1.5675, 0.66, 1.65, 0.7425, 1.7325, 0.825, 1.815, 0.9075, 1.8975, 0.495, 1.485, 0, 0.99, 0.0825, 1.0725, 0.165, 1.155, 0.2475, 1.2375, 0.33, 1.32, 0.4125, 1.4025, 0.5775, 1.5675, 0.66, 1.65, 0.7425, 1.7325, 0.825, 1.815, 0.9075, 1.8975, 0.495, 1.485, 0, 0.99, 0.0825, 1.0725, 0.165, 1.155, 0.2475, 1.2375, 0.33, 1.32, 0.4125, 1.4025, 0.5775, 1.5675, 0.66, 1.65, 0.7425, 1.7325, 0.825, 1.815, 0.9075, 1.8975, 0.495],
  "SoftwareVersions": "syngo_MR_E11",
  "SpacingBetweenSlices": 2,
  "StationName": "AWP166078",
  "TaskName": "motor",
  "TotalReadoutTime": 0.0534586,
  "TxRefAmp": 208.693,
  "dcmmeta_affine": [
    [-1.9995617866516113, -6.26706793127596e-08, 0.04186495020985603, 100.4040756225586],
    [0.0008766210521571338, 1.9995614290237427, 0.04187233746051788, -96.31405639648438],
    [0.041855767369270325, -0.041881512850522995, 1.9991233348846436, -78.87147521972656],
    [0.0, 0.0, 0.0, 1.0]
],
  "dcmmeta_reorient_transform": [
    [0.0, -1.0, 0.0, 99.0],
    [1.0, 0.0, 0.0, 0.0],
    [0.0, 0.0, 1.0, 0.0],
    [0.0, 0.0, 0.0, 1.0]
],
  "dcmmeta_shape": [100, 100, 72, 232],
  "dcmmeta_slice_dim": 2,
  "dcmmeta_version": 0.6,
  "global": {
    "const": {
      "AcquisitionMatrix": [100, 0, 0, 100],
      "AngioFlag": "N",
      "BitsAllocated": 16,
      "BitsStored": 12,
      "BodyPartExamined": "BRAIN",
      "Columns": 900,
      "EchoNumbers": 1,
      "EchoTime": 34.0,
      "EchoTrainLength": 100,
      "FlipAngle": 90.0,
      "HighBit": 11,
      "ImageOrientationPatient": [0.99978089176286, -0.0004383105209, 0.02092788450237, -3.1335341e-08, 0.99978071831387, 0.02094075661965],
      "ImagePositionPatient": [-900.22875694945, -901.11644948435, -116.51265622124],
      "ImageType": [
        "ORIGINAL",
        "PRIMARY",
        "M",
        "ND",
        "MOSAIC"
],
      "ImagedNucleus": "1H",
      "ImagingFrequency": 123.257825,
      "InPlanePhaseEncodingDirection": "COL",
      "MRAcquisitionType": "2D",
      "MagneticFieldStrength": 3.0,
      "Manufacturer": "SIEMENS",
      "ManufacturerModelName": "Prisma",
      "Modality": "MR",
      "NumberOfAverages": 1.0,
      "NumberOfPhaseEncodingSteps": 100,
      "PercentPhaseFieldOfView": 100.0,
      "PercentSampling": 100.0,
      "PerformedProcedureStepStartTime": "102248.997000",
      "PhotometricInterpretation": "MONOCHROME2",
      "PixelBandwidth": 2380.0,
      "PixelRepresentation": 0,
      "PixelSpacing": [2.0, 2.0],
      "ProtocolName": "bold_100x100_s3_2x2x2_232",
      "RepetitionTime": 2000.0,
      "Rows": 900,
      "SAR": 0.06343117222618,
      "SamplesPerPixel": 1,
      "ScanOptions": "FS",
      "ScanningSequence": "EP",
      "SequenceName": "*epfid2d1_100",
      "SequenceVariant": "SK",
      "SeriesDescription": "bold_100x100_s3_2x2x2_232",
      "SeriesNumber": 8,
      "SeriesTime": "105442.391000",
      "SliceLocation": -78.751642575378,
      "SliceThickness": 2.0,
      "SmallestImagePixelValue": 0,
      "SoftwareVersions": "syngo MR E11",
      "SpacingBetweenSlices": 2.0000000554864,
      "SpecificCharacterSet": "ISO_IR 100",
      "StudyID": "1",
      "StudyTime": "102248.938000",
      "TransmitCoilName": "Body",
      "VariableFlipAngleFlag": "N",
      "WindowCenterWidthExplanation": "Algo1",
      "dBdt": 0.0},
    "slices": {}
  },
  "time": {
    "samples": {
      "AcquisitionNumber": [1, 2, 3, 4, 5, 6, 7, 8, 9, 10, 11, 12, 13, 14, 15, 16, 17, 18, 19, 20, 21, 22, 23, 24, 25, 26, 27, 28, 29, 30, 31, 32, 33, 34, 35, 36, 37, 38, 39, 40, 41, 42, 43, 44, 45, 46, 47, 48, 49, 50, 51, 52, 53, 54, 55, 56, 57, 58, 59, 60, 61, 62, 63, 64, 65, 66, 67, 68, 69, 70, 71, 72, 73, 74, 75, 76, 77, 78, 79, 80, 81, 82, 83, 84, 85, 86, 87, 88, 89, 90, 91, 92, 93, 94, 95, 96, 97, 98, 99, 100, 101, 102, 103, 104, 105, 106, 107, 108, 109, 110, 111, 112, 113, 114, 115, 116, 117, 118, 119, 120, 121, 122, 123, 124, 125, 126, 127, 128, 129, 130, 131, 132, 133, 134, 135, 136, 137, 138, 139, 140, 141, 142, 143, 144, 145, 146, 147, 148, 149, 150, 151, 152, 153, 154, 155, 156, 157, 158, 159, 160, 161, 162, 163, 164, 165, 166, 167, 168, 169, 170, 171, 172, 173, 174, 175, 176, 177, 178, 179, 180, 181, 182, 183, 184, 185, 186, 187, 188, 189, 190, 191, 192, 193, 194, 195, 196, 197, 198, 199, 200, 201, 202, 203, 204, 205, 206, 207, 208, 209, 210, 211, 212, 213, 214, 215, 216, 217, 218, 219, 220, 221, 222, 223, 224, 225, 226, 227, 228, 229, 230, 231, 232],
      "AcquisitionTime": ["105439.912500", "105441.912500", "105443.912500", "105445.912500", "105447.912500", "105449.912500", "105451.912500", "105453.912500", "105455.912500", "105457.912500", "105459.912500", "105501.912500", "105503.912500", "105505.912500", "105507.912500", "105509.912500", "105511.912500", "105513.912500", "105515.912500", "105517.912500", "105519.912500", "105521.912500", "105523.912500", "105525.912500", "105527.912500", "105529.912500", "105531.912500", "105533.912500", "105535.912500", "105537.912500", "105539.912500", "105541.912500", "105543.912500", "105545.912500", "105547.912500", "105549.912500", "105551.912500", "105553.912500", "105555.912500", "105557.912500", "105559.912500", "105601.912500", "105603.912500", "105605.912500", "105607.912500", "105609.912500", "105611.912500", "105613.912500", "105615.912500", "105617.912500", "105619.912500", "105621.912500", "105623.912500", "105625.912500", "105627.912500", "105629.912500", "105631.912500", "105633.912500", "105635.912500", "105637.912500", "105639.912500", "105641.912500", "105643.912500", "105645.912500", "105647.912500", "105649.912500", "105651.912500", "105653.912500", "105655.912500", "105657.912500", "105659.912500", "105701.912500", "105703.912500", "105705.912500", "105707.912500", "105709.912500", "105711.912500", "105713.912500", "105715.912500", "105717.912500", "105719.912500", "105721.912500", "105723.912500", "105725.912500", "105727.912500", "105729.912500", "105731.912500", "105733.912500", "105735.912500", "105737.912500", "105739.912500", "105741.912500", "105743.912500", "105745.912500", "105747.912500", "105749.912500", "105751.912500", "105753.912500", "105755.912500", "105757.912500", "105759.912500", "105801.912500", "105803.912500", "105805.912500", "105807.912500", "105809.912500", "105811.912500", "105813.912500", "105815.912500", "105817.912500", "105819.912500", "105821.912500", "105823.912500", "105825.912500", "105827.912500", "105829.912500", "105831.912500", "105833.912500", "105835.912500", "105837.912500", "105839.912500", "105841.912500", "105843.912500", "105845.912500", "105847.912500", "105849.912500", "105851.912500", "105853.912500", "105855.912500", "105857.912500", "105859.912500", "105901.912500", "105903.912500", "105905.912500", "105907.912500", "105909.912500", "105911.912500", "105913.912500", "105915.912500", "105917.912500", "105919.912500", "105921.912500", "105923.912500", "105925.912500", "105927.912500", "105929.912500", "105931.912500", "105933.912500", "105935.912500", "105937.912500", "105939.912500", "105941.912500", "105943.912500", "105945.912500", "105947.912500", "105949.912500", "105951.912500", "105953.912500", "105955.912500", "105957.912500", "105959.912500", "110001.912500", "110003.912500", "110005.912500", "110007.912500", "110009.912500", "110011.912500", "110013.912500", "110015.912500", "110017.912500", "110019.912500", "110021.912500", "110023.912500", "110025.912500", "110027.912500", "110029.912500", "110031.912500", "110033.912500", "110035.912500", "110037.912500", "110039.912500", "110041.912500", "110043.912500", "110045.912500", "110047.912500", "110049.912500", "110051.912500", "110053.912500", "110055.912500", "110057.912500", "110059.912500", "110101.912500", "110103.912500", "110105.912500", "110107.912500", "110109.912500", "110111.912500", "110113.912500", "110115.912500", "110117.912500", "110119.912500", "110121.912500", "110123.912500", "110125.912500", "110127.912500", "110129.912500", "110131.912500", "110133.912500", "110135.912500", "110137.912500", "110139.912500", "110141.912500", "110143.912500", "110145.912500", "110147.912500", "110149.912500", "110151.912500", "110153.912500", "110155.912500", "110157.912500", "110159.912500", "110201.912500", "110203.912500", "110205.912500", "110207.912500", "110209.912500", "110211.912500", "110213.912500", "110215.912500", "110217.912500", "110219.912500", "110221.912500"],
      "ContentTime": ["105442.394000", "105443.892000", "105445.891000", "105447.891000", "105449.891000", "105451.891000", "105453.891000", "105455.890000", "105457.890000", "105459.890000", "105501.891000", "105503.891000", "105505.891000", "105507.891000", "105509.892000", "105511.891000", "105513.890000", "105515.890000", "105517.891000", "105519.891000", "105521.892000", "105523.892000", "105525.891000", "105527.891000", "105529.891000", "105531.890000", "105533.890000", "105535.892000", "105537.891000", "105539.891000", "105541.891000", "105543.892000", "105545.891000", "105547.891000", "105549.890000", "105551.890000", "105553.891000", "105555.891000", "105557.892000", "105559.891000", "105601.891000", "105603.891000", "105605.890000", "105607.890000", "105609.890000", "105611.892000", "105613.892000", "105615.891000", "105617.892000", "105619.891000", "105621.891000", "105623.891000", "105625.891000", "105627.891000", "105629.891000", "105631.891000", "105633.892000", "105635.891000", "105637.891000", "105639.892000", "105641.891000", "105643.891000", "105645.891000", "105647.892000", "105649.891000", "105651.891000", "105653.892000", "105655.891000", "105657.891000", "105659.890000", "105701.890000", "105703.891000", "105705.891000", "105707.892000", "105709.891000", "105711.891000", "105713.892000", "105715.891000", "105717.890000", "105719.891000", "105721.892000", "105723.891000", "105725.891000", "105727.891000", "105729.892000", "105731.892000", "105733.890000", "105735.890000", "105737.891000", "105739.892000", "105741.891000", "105743.891000", "105745.892000", "105747.891000", "105749.891000", "105751.890000", "105753.890000", "105755.892000", "105757.891000", "105759.891000", "105801.891000", "105803.891000", "105805.891000", "105807.891000", "105809.890000", "105811.890000", "105813.892000", "105815.891000", "105817.891000", "105819.891000", "105821.891000", "105823.891000", "105825.891000", "105827.890000", "105829.890000", "105831.891000", "105833.892000", "105835.891000", "105837.891000", "105839.891000", "105841.891000", "105843.890000", "105845.890000", "105847.892000", "105849.892000", "105851.891000", "105853.891000", "105855.892000", "105857.891000", "105859.891000", "105901.890000", "105903.890000", "105905.891000", "105907.891000", "105909.891000", "105911.891000", "105913.891000", "105915.891000", "105917.892000", "105919.890000", "105921.890000", "105923.891000", "105925.891000", "105927.892000", "105929.891000", "105931.891000", "105933.892000", "105935.891000", "105937.890000", "105939.890000", "105941.892000", "105943.892000", "105945.891000", "105947.891000", "105949.891000", "105951.891000", "105953.890000", "105955.891000", "105957.891000", "105959.891000", "110001.891000", "110003.892000", "110005.891000", "110007.891000", "110009.891000", "110011.900000", "110013.890000", "110015.891000", "110017.892000", "110019.891000", "110021.891000", "110023.891000", "110025.891000", "110027.891000", "110029.891000", "110031.890000", "110033.892000", "110035.892000", "110037.891000", "110039.891000", "110041.891000", "110043.891000", "110045.890000", "110047.891000", "110049.890000", "110051.892000", "110053.892000", "110055.891000", "110057.892000", "110059.891000", "110101.891000", "110103.891000", "110105.890000", "110107.892000", "110109.891000", "110111.891000", "110113.892000", "110115.891000", "110117.891000", "110119.892000", "110121.890000", "110123.890000", "110125.891000", "110127.891000", "110129.891000", "110131.892000", "110133.892000", "110135.891000", "110137.892000", "110139.891000", "110141.891000", "110143.891000", "110145.892000", "110147.891000", "110149.891000", "110151.891000", "110153.891000", "110155.890000", "110157.890000", "110159.890000", "110201.891000", "110203.891000", "110205.891000", "110207.892000", "110209.891000", "110211.891000", "110213.891000", "110215.890000", "110217.892000", "110219.891000", "110221.891000", "110223.700000"],
      "InstanceCreationTime": ["105442.394000", "105443.892000", "105445.891000", "105447.891000", "105449.891000", "105451.891000", "105453.891000", "105455.890000", "105457.890000", "105459.890000", "105501.891000", "105503.891000", "105505.891000", "105507.891000", "105509.892000", "105511.891000", "105513.890000", "105515.890000", "105517.891000", "105519.891000", "105521.892000", "105523.892000", "105525.891000", "105527.891000", "105529.891000", "105531.890000", "105533.890000", "105535.892000", "105537.891000", "105539.891000", "105541.891000", "105543.892000", "105545.891000", "105547.891000", "105549.890000", "105551.890000", "105553.891000", "105555.891000", "105557.892000", "105559.891000", "105601.891000", "105603.891000", "105605.890000", "105607.890000", "105609.890000", "105611.892000", "105613.892000", "105615.891000", "105617.892000", "105619.891000", "105621.891000", "105623.891000", "105625.891000", "105627.891000", "105629.891000", "105631.891000", "105633.892000", "105635.891000", "105637.891000", "105639.892000", "105641.891000", "105643.891000", "105645.891000", "105647.892000", "105649.891000", "105651.891000", "105653.892000", "105655.891000", "105657.891000", "105659.890000", "105701.890000", "105703.891000", "105705.891000", "105707.892000", "105709.891000", "105711.891000", "105713.892000", "105715.891000", "105717.890000", "105719.891000", "105721.892000", "105723.891000", "105725.891000", "105727.891000", "105729.892000", "105731.892000", "105733.890000", "105735.890000", "105737.891000", "105739.892000", "105741.891000", "105743.891000", "105745.892000", "105747.891000", "105749.891000", "105751.890000", "105753.890000", "105755.892000", "105757.891000", "105759.891000", "105801.891000", "105803.891000", "105805.891000", "105807.891000", "105809.890000", "105811.890000", "105813.892000", "105815.891000", "105817.891000", "105819.891000", "105821.891000", "105823.891000", "105825.891000", "105827.890000", "105829.890000", "105831.891000", "105833.892000", "105835.891000", "105837.891000", "105839.891000", "105841.891000", "105843.890000", "105845.890000", "105847.892000", "105849.892000", "105851.891000", "105853.891000", "105855.892000", "105857.891000", "105859.891000", "105901.890000", "105903.890000", "105905.891000", "105907.891000", "105909.891000", "105911.891000", "105913.891000", "105915.891000", "105917.892000", "105919.890000", "105921.890000", "105923.891000", "105925.891000", "105927.892000", "105929.891000", "105931.891000", "105933.892000", "105935.891000", "105937.890000", "105939.890000", "105941.892000", "105943.892000", "105945.891000", "105947.891000", "105949.891000", "105951.891000", "105953.890000", "105955.891000", "105957.891000", "105959.891000", "110001.891000", "110003.892000", "110005.891000", "110007.891000", "110009.891000", "110011.900000", "110013.890000", "110015.891000", "110017.892000", "110019.891000", "110021.891000", "110023.891000", "110025.891000", "110027.891000", "110029.891000", "110031.890000", "110033.892000", "110035.892000", "110037.891000", "110039.891000", "110041.891000", "110043.891000", "110045.890000", "110047.891000", "110049.890000", "110051.892000", "110053.892000", "110055.891000", "110057.892000", "110059.891000", "110101.891000", "110103.891000", "110105.890000", "110107.892000", "110109.891000", "110111.891000", "110113.892000", "110115.891000", "110117.891000", "110119.892000", "110121.890000", "110123.890000", "110125.891000", "110127.891000", "110129.891000", "110131.892000", "110133.892000", "110135.891000", "110137.892000", "110139.891000", "110141.891000", "110143.891000", "110145.892000", "110147.891000", "110149.891000", "110151.891000", "110153.891000", "110155.890000", "110157.890000", "110159.890000", "110201.891000", "110203.891000", "110205.891000", "110207.892000", "110209.891000", "110211.891000", "110213.891000", "110215.890000", "110217.892000", "110219.891000", "110221.891000", "110223.700000"],
      "InstanceNumber": [1, 2, 3, 4, 5, 6, 7, 8, 9, 10, 11, 12, 13, 14, 15, 16, 17, 18, 19, 20, 21, 22, 23, 24, 25, 26, 27, 28, 29, 30, 31, 32, 33, 34, 35, 36, 37, 38, 39, 40, 41, 42, 43, 44, 45, 46, 47, 48, 49, 50, 51, 52, 53, 54, 55, 56, 57, 58, 59, 60, 61, 62, 63, 64, 65, 66, 67, 68, 69, 70, 71, 72, 73, 74, 75, 76, 77, 78, 79, 80, 81, 82, 83, 84, 85, 86, 87, 88, 89, 90, 91, 92, 93, 94, 95, 96, 97, 98, 99, 100, 101, 102, 103, 104, 105, 106, 107, 108, 109, 110, 111, 112, 113, 114, 115, 116, 117, 118, 119, 120, 121, 122, 123, 124, 125, 126, 127, 128, 129, 130, 131, 132, 133, 134, 135, 136, 137, 138, 139, 140, 141, 142, 143, 144, 145, 146, 147, 148, 149, 150, 151, 152, 153, 154, 155, 156, 157, 158, 159, 160, 161, 162, 163, 164, 165, 166, 167, 168, 169, 170, 171, 172, 173, 174, 175, 176, 177, 178, 179, 180, 181, 182, 183, 184, 185, 186, 187, 188, 189, 190, 191, 192, 193, 194, 195, 196, 197, 198, 199, 200, 201, 202, 203, 204, 205, 206, 207, 208, 209, 210, 211, 212, 213, 214, 215, 216, 217, 218, 219, 220, 221, 222, 223, 224, 225, 226, 227, 228, 229, 230, 231, 232],
      "LargestImagePixelValue": [3119, 3055, 2979, 3052, 3083, 3171, 3149, 3145, 3089, 2920, 2953, 2971, 2955, 2964, 2978, 3076, 3079, 3142, 3212, 3101, 3096, 3112, 3166, 3141, 3083, 3018, 3086, 3081, 3290, 3081, 2939, 2927, 2993, 2928, 2986, 2991, 2979, 2980, 3094, 3243, 3380, 3330, 3329, 3163, 3058, 3045, 3210, 3104, 3234, 3073, 2979, 3010, 2978, 3002, 3006, 2952, 2999, 3051, 2961, 3024, 2977, 2931, 3021, 2991, 3037, 3002, 3153, 3236, 3222, 3065, 3052, 3099, 3181, 3033, 2999, 3034, 3057, 2998, 3078, 3011, 3006, 2996, 2989, 3061, 3011, 2986, 2991, 2963, 2999, 3012, 2964, 2961, 2987, 2978, 2966, 2922, 2996, 3017, 3059, 3020, 3017, 3023, 2980, 2965, 3023, 3002, 2961, 2957, 3038, 3049, 3059, 3129, 2962, 3056, 2927, 2884, 2908, 2957, 2990, 3032, 3041, 3111, 2952, 2940, 3026, 3067, 3122, 3075, 2928, 3021, 2944, 2933, 2922, 2880, 2906, 2891, 2867, 2914, 2927, 2977, 2899, 2948, 2904, 3043, 3022, 3125, 2980, 3021, 3028, 3049, 3260, 3361, 2932, 2937, 2903, 2971, 2962, 3089, 3133, 3034, 2940, 2955, 3157, 2947, 3078, 2946, 3148, 3087, 3064, 3162, 3039, 3047, 3053, 3085, 3069, 3025, 3098, 3077, 3061, 3065, 3115, 2997, 3003, 2994, 2991, 3078, 3156, 3082, 3116, 2993, 3129, 3044, 3152, 3122, 2902, 2954, 2968, 2956, 2900, 2914, 3097, 2944, 2936, 2981, 2976, 2991, 3019, 3356, 3140, 3019, 3039, 2965, 3194, 2964, 2945, 2951, 2964, 2969, 2981, 3150, 3147, 2994, 2979, 2993, 2994, 3004, 2990, 2987, 2989, 3000, 2978, 2996],
      "WindowCenter": [747.0, 745.0, 744.0, 744.0, 747.0, 749.0, 749.0, 747.0, 744.0, 740.0, 739.0, 739.0, 739.0, 740.0, 742.0, 743.0, 742.0, 743.0, 747.0, 748.0, 747.0, 746.0, 747.0, 747.0, 746.0, 745.0, 745.0, 745.0, 746.0, 743.0, 740.0, 740.0, 741.0, 739.0, 740.0, 741.0, 741.0, 741.0, 745.0, 748.0, 749.0, 744.0, 745.0, 742.0, 740.0, 741.0, 745.0, 738.0, 743.0, 742.0, 741.0, 741.0, 740.0, 741.0, 741.0, 744.0, 743.0, 743.0, 738.0, 734.0, 732.0, 731.0, 733.0, 736.0, 738.0, 741.0, 744.0, 744.0, 740.0, 737.0, 737.0, 738.0, 739.0, 741.0, 742.0, 743.0, 744.0, 743.0, 745.0, 744.0, 743.0, 743.0, 743.0, 744.0, 743.0, 741.0, 740.0, 741.0, 743.0, 742.0, 741.0, 741.0, 741.0, 741.0, 741.0, 740.0, 742.0, 744.0, 745.0, 744.0, 743.0, 742.0, 741.0, 740.0, 736.0, 738.0, 738.0, 740.0, 740.0, 738.0, 740.0, 740.0, 740.0, 741.0, 738.0, 736.0, 737.0, 740.0, 743.0, 742.0, 744.0, 740.0, 741.0, 742.0, 744.0, 744.0, 744.0, 743.0, 742.0, 743.0, 741.0, 740.0, 739.0, 738.0, 738.0, 738.0, 739.0, 741.0, 740.0, 741.0, 740.0, 741.0, 740.0, 743.0, 743.0, 744.0, 743.0, 744.0, 744.0, 745.0, 746.0, 745.0, 741.0, 741.0, 741.0, 743.0, 743.0, 747.0, 746.0, 744.0, 740.0, 737.0, 733.0, 732.0, 740.0, 728.0, 743.0, 730.0, 731.0, 748.0, 745.0, 744.0, 743.0, 742.0, 741.0, 741.0, 743.0, 744.0, 745.0, 746.0, 746.0, 744.0, 742.0, 742.0, 742.0, 738.0, 741.0, 741.0, 738.0, 741.0, 739.0, 737.0, 744.0, 742.0, 741.0, 741.0, 741.0, 741.0, 740.0, 741.0, 741.0, 743.0, 743.0, 742.0, 740.0, 743.0, 744.0, 748.0, 745.0, 745.0, 746.0, 744.0, 745.0, 742.0, 740.0, 740.0, 741.0, 741.0, 741.0, 745.0, 743.0, 744.0, 747.0, 747.0, 746.0, 744.0, 743.0, 745.0, 745.0, 743.0, 739.0, 736.0],
      "WindowWidth": [1627.0, 1622.0, 1617.0, 1619.0, 1627.0, 1634.0, 1633.0, 1628.0, 1618.0, 1607.0, 1605.0, 1604.0, 1605.0, 1609.0, 1612.0, 1615.0, 1614.0, 1617.0, 1628.0, 1629.0, 1626.0, 1626.0, 1627.0, 1626.0, 1624.0, 1621.0, 1622.0, 1620.0, 1624.0, 1615.0, 1608.0, 1607.0, 1609.0, 1605.0, 1608.0, 1611.0, 1610.0, 1611.0, 1621.0, 1629.0, 1631.0, 1620.0, 1622.0, 1614.0, 1609.0, 1611.0, 1620.0, 1603.0, 1618.0, 1613.0, 1609.0, 1609.0, 1606.0, 1608.0, 1609.0, 1618.0, 1616.0, 1615.0, 1603.0, 1592.0, 1584.0, 1582.0, 1589.0, 1596.0, 1602.0, 1611.0, 1618.0, 1619.0, 1609.0, 1600.0, 1601.0, 1604.0, 1607.0, 1611.0, 1611.0, 1615.0, 1618.0, 1615.0, 1622.0, 1618.0, 1616.0, 1617.0, 1616.0, 1619.0, 1617.0, 1610.0, 1608.0, 1611.0, 1616.0, 1614.0, 1610.0, 1610.0, 1610.0, 1612.0, 1611.0, 1609.0, 1612.0, 1618.0, 1622.0, 1620.0, 1616.0, 1612.0, 1610.0, 1608.0, 1596.0, 1603.0, 1603.0, 1608.0, 1607.0, 1601.0, 1607.0, 1607.0, 1608.0, 1609.0, 1602.0, 1597.0, 1599.0, 1609.0, 1616.0, 1613.0, 1618.0, 1608.0, 1611.0, 1613.0, 1617.0, 1619.0, 1618.0, 1616.0, 1612.0, 1615.0, 1612.0, 1609.0, 1604.0, 1601.0, 1600.0, 1601.0, 1605.0, 1610.0, 1609.0, 1611.0, 1608.0, 1610.0, 1609.0, 1616.0, 1617.0, 1620.0, 1617.0, 1618.0, 1619.0, 1622.0, 1625.0, 1622.0, 1610.0, 1609.0, 1610.0, 1615.0, 1617.0, 1626.0, 1625.0, 1618.0, 1609.0, 1599.0, 1589.0, 1588.0, 1608.0, 1578.0, 1615.0, 1582.0, 1586.0, 1630.0, 1622.0, 1619.0, 1615.0, 1611.0, 1609.0, 1608.0, 1614.0, 1617.0, 1621.0, 1624.0, 1625.0, 1617.0, 1613.0, 1614.0, 1613.0, 1602.0, 1612.0, 1610.0, 1603.0, 1609.0, 1606.0, 1599.0, 1619.0, 1613.0, 1608.0, 1610.0, 1611.0, 1609.0, 1608.0, 1609.0, 1610.0, 1614.0, 1615.0, 1612.0, 1609.0, 1615.0, 1617.0, 1628.0, 1621.0, 1620.0, 1623.0, 1620.0, 1622.0, 1612.0, 1608.0, 1608.0, 1609.0, 1611.0, 1611.0, 1619.0, 1615.0, 1618.0, 1626.0, 1626.0, 1622.0, 1619.0, 1616.0, 1620.0, 1620.0, 1615.0, 1605.0, 1595.0]
    },
    "slices": {}
  }
}