{
  "AcquisitionMatrixPE": 100,
  "AcquisitionNumber": 1,
  "AcquisitionTime": "11:12:2.932500",
  "BandwidthPerPixelPhaseEncode": 18.519,
  "BaseResolution": 100,
  "BodyPartExamined": "BRAIN",
  "ConsistencyInfo": "N4_VE11C_LATEST_20160120",
  "ConversionSoftware": "dcm2niix",
  "ConversionSoftwareVersion": "v1.0.20180622 GCC4.9.2",
  "DerivedVendorReportedEchoSpacing": 0.000539986,
  "DeviceSerialNumber": "166078",
  "DwellTime": 2.1e-06,
  "EchoTime": 0.034,
  "EchoTrainLength": 100,
  "EffectiveEchoSpacing": 0.000539986,
  "FlipAngle": 90,
  "ImageOrientationPatientDICOM": [0.999781, -0.000438311, 0.0209279, -3.13353e-08, 0.999781, 0.0209408],
  "ImageType": [
    "ORIGINAL",
    "PRIMARY",
    "M",
    "ND",
    "MOSAIC"
],
  "InPlanePhaseEncodingDirectionDICOM": "COL",
  "InstitutionAddress": "Street_StreetNo_Bei_Jing_District_CN_ZIP",
  "InstitutionName": "BeiJing_Normal_University",
  "InstitutionalDepartmentName": "Department",
  "MRAcquisitionType": "2D",
  "MagneticFieldStrength": 3,
  "Manufacturer": "Siemens",
  "ManufacturersModelName": "Prisma",
  "Modality": "MR",
  "MultibandAccelerationFactor": 3,
  "PartialFourier": 1,
  "PatientPosition": "HFS",
  "PercentPhaseFOV": 100,
  "PhaseEncodingDirection": "j-",
  "PhaseEncodingSteps": 100,
  "PhaseResolution": 1,
  "PixelBandwidth": 2380,
  "ProcedureStepDescription": "BNU_P2018_64CH_Liu.Jia",
  "ProtocolName": "bold_100x100_s3_2x2x2_232",
  "PulseSequenceDetails": "%SiemensSeq%_ep2d_bold",
  "ReceiveCoilActiveElements": "HC1-7;NC1",
  "ReceiveCoilName": "HeadNeck_64",
  "ReconMatrixPE": 100,
  "RepetitionTime": 2,
  "SAR": 0.0634312,
  "ScanOptions": "FS",
  "ScanningSequence": "EP",
  "SequenceName": "_epfid2d1_100",
  "SequenceVariant": "SK",
  "SeriesDescription": "bold_100x100_s3_2x2x2_232",
  "SeriesNumber": 10,
  "ShimSetting": [-5457, -11493, -1277, 388, -21, -264, -66, -22],
  "SliceThickness": 2,
  "SliceTiming": [1.485, 0, 0.99, 0.0825, 1.0725, 0.165, 1.155, 0.2475, 1.2375, 0.33, 1.32, 0.4125, 1.4025, 0.5775, 1.5675, 0.66, 1.65, 0.7425, 1.7325, 0.825, 1.815, 0.9075, 1.8975, 0.495, 1.485, 0, 0.99, 0.0825, 1.0725, 0.165, 1.155, 0.2475, 1.2375, 0.33, 1.32, 0.4125, 1.4025, 0.5775, 1.5675, 0.66, 1.65, 0.7425, 1.7325, 0.825, 1.815, 0.9075, 1.8975, 0.495, 1.485, 0, 0.99, 0.0825, 1.0725, 0.165, 1.155, 0.2475, 1.2375, 0.33, 1.32, 0.4125, 1.4025, 0.5775, 1.5675, 0.66, 1.65, 0.7425, 1.7325, 0.825, 1.815, 0.9075, 1.8975, 0.495],
  "SoftwareVersions": "syngo_MR_E11",
  "SpacingBetweenSlices": 2,
  "StationName": "AWP166078",
  "TaskName": "motor",
  "TotalReadoutTime": 0.0534586,
  "TxRefAmp": 208.693,
  "dcmmeta_affine": [
    [-1.9995617866516113, -6.26706793127596e-08, 0.04186495020985603, 100.4040756225586],
    [0.0008766210521571338, 1.9995614290237427, 0.04187233746051788, -96.31405639648438],
    [0.041855767369270325, -0.041881512850522995, 1.9991233348846436, -78.87147521972656],
    [0.0, 0.0, 0.0, 1.0]
],
  "dcmmeta_reorient_transform": [
    [0.0, -1.0, 0.0, 99.0],
    [1.0, 0.0, 0.0, 0.0],
    [0.0, 0.0, 1.0, 0.0],
    [0.0, 0.0, 0.0, 1.0]
],
  "dcmmeta_shape": [100, 100, 72, 232],
  "dcmmeta_slice_dim": 2,
  "dcmmeta_version": 0.6,
  "global": {
    "const": {
      "AcquisitionMatrix": [100, 0, 0, 100],
      "AngioFlag": "N",
      "BitsAllocated": 16,
      "BitsStored": 12,
      "BodyPartExamined": "BRAIN",
      "Columns": 900,
      "EchoNumbers": 1,
      "EchoTime": 34.0,
      "EchoTrainLength": 100,
      "FlipAngle": 90.0,
      "HighBit": 11,
      "ImageOrientationPatient": [0.99978089176286, -0.0004383105209, 0.02092788450237, -3.1335341e-08, 0.99978071831387, 0.02094075661965],
      "ImagePositionPatient": [-900.22875694945, -901.11644948435, -116.51265622124],
      "ImageType": [
        "ORIGINAL",
        "PRIMARY",
        "M",
        "ND",
        "MOSAIC"
],
      "ImagedNucleus": "1H",
      "ImagingFrequency": 123.257837,
      "InPlanePhaseEncodingDirection": "COL",
      "MRAcquisitionType": "2D",
      "MagneticFieldStrength": 3.0,
      "Manufacturer": "SIEMENS",
      "ManufacturerModelName": "Prisma",
      "Modality": "MR",
      "NumberOfAverages": 1.0,
      "NumberOfPhaseEncodingSteps": 100,
      "PercentPhaseFieldOfView": 100.0,
      "PercentSampling": 100.0,
      "PerformedProcedureStepStartTime": "102248.997000",
      "PhotometricInterpretation": "MONOCHROME2",
      "PixelBandwidth": 2380.0,
      "PixelRepresentation": 0,
      "PixelSpacing": [2.0, 2.0],
      "ProtocolName": "bold_100x100_s3_2x2x2_232",
      "RepetitionTime": 2000.0,
      "Rows": 900,
      "SAR": 0.06343117222618,
      "SamplesPerPixel": 1,
      "ScanOptions": "FS",
      "ScanningSequence": "EP",
      "SequenceName": "*epfid2d1_100",
      "SequenceVariant": "SK",
      "SeriesDescription": "bold_100x100_s3_2x2x2_232",
      "SeriesNumber": 10,
      "SeriesTime": "111205.316000",
      "SliceLocation": -78.751642575378,
      "SliceThickness": 2.0,
      "SmallestImagePixelValue": 0,
      "SoftwareVersions": "syngo MR E11",
      "SpacingBetweenSlices": 2.0000000554864,
      "SpecificCharacterSet": "ISO_IR 100",
      "StudyID": "1",
      "StudyTime": "102248.938000",
      "TransmitCoilName": "Body",
      "VariableFlipAngleFlag": "N",
      "WindowCenterWidthExplanation": "Algo1",
      "dBdt": 0.0},
    "slices": {}
  },
  "time": {
    "samples": {
      "AcquisitionNumber": [1, 2, 3, 4, 5, 6, 7, 8, 9, 10, 11, 12, 13, 14, 15, 16, 17, 18, 19, 20, 21, 22, 23, 24, 25, 26, 27, 28, 29, 30, 31, 32, 33, 34, 35, 36, 37, 38, 39, 40, 41, 42, 43, 44, 45, 46, 47, 48, 49, 50, 51, 52, 53, 54, 55, 56, 57, 58, 59, 60, 61, 62, 63, 64, 65, 66, 67, 68, 69, 70, 71, 72, 73, 74, 75, 76, 77, 78, 79, 80, 81, 82, 83, 84, 85, 86, 87, 88, 89, 90, 91, 92, 93, 94, 95, 96, 97, 98, 99, 100, 101, 102, 103, 104, 105, 106, 107, 108, 109, 110, 111, 112, 113, 114, 115, 116, 117, 118, 119, 120, 121, 122, 123, 124, 125, 126, 127, 128, 129, 130, 131, 132, 133, 134, 135, 136, 137, 138, 139, 140, 141, 142, 143, 144, 145, 146, 147, 148, 149, 150, 151, 152, 153, 154, 155, 156, 157, 158, 159, 160, 161, 162, 163, 164, 165, 166, 167, 168, 169, 170, 171, 172, 173, 174, 175, 176, 177, 178, 179, 180, 181, 182, 183, 184, 185, 186, 187, 188, 189, 190, 191, 192, 193, 194, 195, 196, 197, 198, 199, 200, 201, 202, 203, 204, 205, 206, 207, 208, 209, 210, 211, 212, 213, 214, 215, 216, 217, 218, 219, 220, 221, 222, 223, 224, 225, 226, 227, 228, 229, 230, 231, 232],
      "AcquisitionTime": ["111202.932500", "111204.932500", "111206.932500", "111208.932500", "111210.932500", "111212.932500", "111214.932500", "111216.932500", "111218.932500", "111220.932500", "111222.932500", "111224.932500", "111226.932500", "111228.932500", "111230.932500", "111232.932500", "111234.932500", "111236.932500", "111238.932500", "111240.932500", "111242.932500", "111244.932500", "111246.932500", "111248.932500", "111250.932500", "111252.932500", "111254.932500", "111256.932500", "111258.932500", "111300.932500", "111302.932500", "111304.932500", "111306.932500", "111308.932500", "111310.932500", "111312.932500", "111314.932500", "111316.932500", "111318.932500", "111320.932500", "111322.932500", "111324.932500", "111326.932500", "111328.932500", "111330.932500", "111332.932500", "111334.932500", "111336.932500", "111338.932500", "111340.932500", "111342.932500", "111344.932500", "111346.932500", "111348.932500", "111350.932500", "111352.932500", "111354.932500", "111356.932500", "111358.932500", "111400.932500", "111402.932500", "111404.932500", "111406.932500", "111408.932500", "111410.932500", "111412.932500", "111414.932500", "111416.932500", "111418.932500", "111420.932500", "111422.932500", "111424.932500", "111426.932500", "111428.932500", "111430.932500", "111432.932500", "111434.932500", "111436.932500", "111438.932500", "111440.932500", "111442.932500", "111444.932500", "111446.932500", "111448.932500", "111450.932500", "111452.932500", "111454.932500", "111456.932500", "111458.932500", "111500.932500", "111502.932500", "111504.932500", "111506.932500", "111508.932500", "111510.932500", "111512.932500", "111514.932500", "111516.932500", "111518.932500", "111520.932500", "111522.932500", "111524.932500", "111526.932500", "111528.932500", "111530.932500", "111532.932500", "111534.932500", "111536.932500", "111538.932500", "111540.932500", "111542.932500", "111544.932500", "111546.932500", "111548.932500", "111550.932500", "111552.932500", "111554.932500", "111556.932500", "111558.932500", "111600.932500", "111602.932500", "111604.932500", "111606.932500", "111608.932500", "111610.932500", "111612.932500", "111614.932500", "111616.932500", "111618.932500", "111620.932500", "111622.932500", "111624.932500", "111626.932500", "111628.932500", "111630.932500", "111632.932500", "111634.932500", "111636.932500", "111638.932500", "111640.932500", "111642.932500", "111644.932500", "111646.932500", "111648.932500", "111650.932500", "111652.932500", "111654.932500", "111656.932500", "111658.932500", "111700.932500", "111702.932500", "111704.932500", "111706.932500", "111708.932500", "111710.932500", "111712.932500", "111714.932500", "111716.932500", "111718.932500", "111720.932500", "111722.932500", "111724.932500", "111726.932500", "111728.932500", "111730.932500", "111732.932500", "111734.932500", "111736.932500", "111738.932500", "111740.932500", "111742.932500", "111744.932500", "111746.932500", "111748.932500", "111750.932500", "111752.932500", "111754.932500", "111756.932500", "111758.932500", "111800.932500", "111802.932500", "111804.932500", "111806.932500", "111808.932500", "111810.932500", "111812.932500", "111814.932500", "111816.932500", "111818.932500", "111820.932500", "111822.932500", "111824.932500", "111826.932500", "111828.932500", "111830.932500", "111832.932500", "111834.932500", "111836.932500", "111838.932500", "111840.932500", "111842.932500", "111844.932500", "111846.932500", "111848.932500", "111850.932500", "111852.932500", "111854.932500", "111856.932500", "111858.932500", "111900.932500", "111902.932500", "111904.932500", "111906.932500", "111908.932500", "111910.932500", "111912.932500", "111914.932500", "111916.932500", "111918.932500", "111920.932500", "111922.932500", "111924.932500", "111926.932500", "111928.932500", "111930.932500", "111932.932500", "111934.932500", "111936.932500", "111938.932500", "111940.932500", "111942.932500", "111944.932500"],
      "ContentTime": ["111205.320000", "111206.815000", "111208.815000", "111210.816000", "111212.816000", "111214.815000", "111217.315000", "111218.815000", "111220.815000", "111222.815000", "111224.815000", "111226.815000", "111228.816000", "111230.816000", "111232.815000", "111234.815000", "111236.816000", "111239.315000", "111240.815000", "111242.816000", "111244.816000", "111246.817000", "111248.815000", "111250.815000", "111252.815000", "111254.815000", "111256.815000", "111258.816000", "111300.835000", "111302.815000", "111304.816000", "111306.816000", "111308.815000", "111310.815000", "111312.815000", "111314.815000", "111316.815000", "111318.815000", "111320.815000", "111322.817000", "111324.815000", "111326.815000", "111328.815000", "111330.815000", "111332.815000", "111334.815000", "111336.815000", "111338.815000", "111340.816000", "111342.815000", "111344.815000", "111346.815000", "111348.815000", "111350.816000", "111352.815000", "111354.816000", "111356.817000", "111358.815000", "111400.816000", "111402.816000", "111404.815000", "111406.815000", "111408.815000", "111410.815000", "111413.316000", "111414.816000", "111416.815000", "111418.815000", "111420.816000", "111422.815000", "111424.816000", "111426.815000", "111428.815000", "111430.816000", "111432.817000", "111434.815000", "111436.816000", "111438.816000", "111440.815000", "111442.815000", "111444.815000", "111446.815000", "111448.815000", "111450.816000", "111452.815000", "111454.815000", "111456.816000", "111458.815000", "111500.815000", "111502.816000", "111504.815000", "111506.816000", "111508.815000", "111510.816000", "111512.815000", "111515.316000", "111516.815000", "111518.815000", "111520.816000", "111522.815000", "111525.316000", "111526.815000", "111528.815000", "111530.815000", "111532.815000", "111534.815000", "111536.816000", "111538.815000", "111541.316000", "111542.817000", "111544.815000", "111546.815000", "111548.815000", "111550.815000", "111552.815000", "111554.816000", "111556.815000", "111558.815000", "111600.817000", "111602.815000", "111604.815000", "111606.815000", "111608.815000", "111610.815000", "111612.815000", "111614.815000", "111616.816000", "111618.815000", "111620.815000", "111622.815000", "111624.815000", "111627.316000", "111628.816000", "111630.815000", "111633.315000", "111634.816000", "111636.815000", "111638.815000", "111640.816000", "111642.815000", "111644.816000", "111646.815000", "111648.815000", "111650.815000", "111652.816000", "111654.815000", "111656.815000", "111658.815000", "111700.815000", "111702.816000", "111704.816000", "111706.816000", "111708.816000", "111710.836000", "111712.815000", "111714.816000", "111716.815000", "111718.816000", "111720.815000", "111722.816000", "111724.816000", "111726.817000", "111728.815000", "111730.816000", "111732.815000", "111734.815000", "111736.815000", "111738.815000", "111740.816000", "111742.815000", "111744.816000", "111746.815000", "111748.815000", "111750.815000", "111752.815000", "111754.835000", "111756.815000", "111758.815000", "111800.815000", "111802.816000", "111804.816000", "111806.815000", "111808.815000", "111810.815000", "111812.815000", "111814.815000", "111816.815000", "111818.815000", "111820.816000", "111822.815000", "111824.815000", "111826.815000", "111828.816000", "111830.815000", "111832.816000", "111834.815000", "111836.816000", "111838.815000", "111840.815000", "111842.815000", "111844.815000", "111846.815000", "111848.815000", "111850.816000", "111852.816000", "111854.816000", "111856.815000", "111858.815000", "111900.815000", "111902.815000", "111904.816000", "111906.815000", "111908.815000", "111910.816000", "111912.817000", "111914.816000", "111916.815000", "111918.815000", "111920.815000", "111922.816000", "111924.816000", "111926.815000", "111928.815000", "111930.817000", "111932.816000", "111934.815000", "111936.815000", "111938.816000", "111940.816000", "111942.815000", "111944.815000", "111946.689000"],
      "InstanceCreationTime": ["111205.320000", "111206.815000", "111208.815000", "111210.816000", "111212.816000", "111214.815000", "111217.315000", "111218.815000", "111220.815000", "111222.815000", "111224.815000", "111226.815000", "111228.816000", "111230.816000", "111232.815000", "111234.815000", "111236.816000", "111239.315000", "111240.815000", "111242.816000", "111244.816000", "111246.817000", "111248.815000", "111250.815000", "111252.815000", "111254.815000", "111256.815000", "111258.816000", "111300.835000", "111302.815000", "111304.816000", "111306.816000", "111308.815000", "111310.815000", "111312.815000", "111314.815000", "111316.815000", "111318.815000", "111320.815000", "111322.817000", "111324.815000", "111326.815000", "111328.815000", "111330.815000", "111332.815000", "111334.815000", "111336.815000", "111338.815000", "111340.816000", "111342.815000", "111344.815000", "111346.815000", "111348.815000", "111350.816000", "111352.815000", "111354.816000", "111356.817000", "111358.815000", "111400.816000", "111402.816000", "111404.815000", "111406.815000", "111408.815000", "111410.815000", "111413.316000", "111414.816000", "111416.815000", "111418.815000", "111420.816000", "111422.815000", "111424.816000", "111426.815000", "111428.815000", "111430.816000", "111432.817000", "111434.815000", "111436.816000", "111438.816000", "111440.815000", "111442.815000", "111444.815000", "111446.815000", "111448.815000", "111450.816000", "111452.815000", "111454.815000", "111456.816000", "111458.815000", "111500.815000", "111502.816000", "111504.815000", "111506.816000", "111508.815000", "111510.816000", "111512.815000", "111515.316000", "111516.815000", "111518.815000", "111520.816000", "111522.815000", "111525.316000", "111526.815000", "111528.815000", "111530.815000", "111532.815000", "111534.815000", "111536.816000", "111538.815000", "111541.316000", "111542.817000", "111544.815000", "111546.815000", "111548.815000", "111550.815000", "111552.815000", "111554.816000", "111556.815000", "111558.815000", "111600.817000", "111602.815000", "111604.815000", "111606.815000", "111608.815000", "111610.815000", "111612.815000", "111614.815000", "111616.816000", "111618.815000", "111620.815000", "111622.815000", "111624.815000", "111627.316000", "111628.816000", "111630.815000", "111633.315000", "111634.816000", "111636.815000", "111638.815000", "111640.816000", "111642.815000", "111644.816000", "111646.815000", "111648.815000", "111650.815000", "111652.816000", "111654.815000", "111656.815000", "111658.815000", "111700.815000", "111702.816000", "111704.816000", "111706.816000", "111708.816000", "111710.836000", "111712.815000", "111714.816000", "111716.815000", "111718.816000", "111720.815000", "111722.816000", "111724.816000", "111726.817000", "111728.815000", "111730.816000", "111732.815000", "111734.815000", "111736.815000", "111738.815000", "111740.816000", "111742.815000", "111744.816000", "111746.815000", "111748.815000", "111750.815000", "111752.815000", "111754.835000", "111756.815000", "111758.815000", "111800.815000", "111802.816000", "111804.816000", "111806.815000", "111808.815000", "111810.815000", "111812.815000", "111814.815000", "111816.815000", "111818.815000", "111820.816000", "111822.815000", "111824.815000", "111826.815000", "111828.816000", "111830.815000", "111832.816000", "111834.815000", "111836.816000", "111838.815000", "111840.815000", "111842.815000", "111844.815000", "111846.815000", "111848.815000", "111850.816000", "111852.816000", "111854.816000", "111856.815000", "111858.815000", "111900.815000", "111902.815000", "111904.816000", "111906.815000", "111908.815000", "111910.816000", "111912.817000", "111914.816000", "111916.815000", "111918.815000", "111920.815000", "111922.816000", "111924.816000", "111926.815000", "111928.815000", "111930.817000", "111932.816000", "111934.815000", "111936.815000", "111938.816000", "111940.816000", "111942.815000", "111944.815000", "111946.689000"],
      "InstanceNumber": [1, 2, 3, 4, 5, 6, 7, 8, 9, 10, 11, 12, 13, 14, 15, 16, 17, 18, 19, 20, 21, 22, 23, 24, 25, 26, 27, 28, 29, 30, 31, 32, 33, 34, 35, 36, 37, 38, 39, 40, 41, 42, 43, 44, 45, 46, 47, 48, 49, 50, 51, 52, 53, 54, 55, 56, 57, 58, 59, 60, 61, 62, 63, 64, 65, 66, 67, 68, 69, 70, 71, 72, 73, 74, 75, 76, 77, 78, 79, 80, 81, 82, 83, 84, 85, 86, 87, 88, 89, 90, 91, 92, 93, 94, 95, 96, 97, 98, 99, 100, 101, 102, 103, 104, 105, 106, 107, 108, 109, 110, 111, 112, 113, 114, 115, 116, 117, 118, 119, 120, 121, 122, 123, 124, 125, 126, 127, 128, 129, 130, 131, 132, 133, 134, 135, 136, 137, 138, 139, 140, 141, 142, 143, 144, 145, 146, 147, 148, 149, 150, 151, 152, 153, 154, 155, 156, 157, 158, 159, 160, 161, 162, 163, 164, 165, 166, 167, 168, 169, 170, 171, 172, 173, 174, 175, 176, 177, 178, 179, 180, 181, 182, 183, 184, 185, 186, 187, 188, 189, 190, 191, 192, 193, 194, 195, 196, 197, 198, 199, 200, 201, 202, 203, 204, 205, 206, 207, 208, 209, 210, 211, 212, 213, 214, 215, 216, 217, 218, 219, 220, 221, 222, 223, 224, 225, 226, 227, 228, 229, 230, 231, 232],
      "LargestImagePixelValue": [3054, 3151, 3125, 3138, 3085, 3124, 3140, 3150, 3119, 3186, 3154, 3119, 3114, 3081, 3048, 3047, 3051, 3044, 3060, 3197, 3112, 3106, 3053, 3030, 3094, 3076, 3093, 3006, 3006, 3091, 3072, 2966, 2981, 3012, 3083, 3022, 3015, 2989, 3011, 3051, 3211, 3213, 3220, 3084, 3059, 3070, 3072, 3053, 3063, 3022, 3083, 3008, 3098, 3059, 3086, 3125, 3146, 3196, 3216, 3364, 3283, 3145, 3150, 3072, 3046, 3060, 3096, 3097, 3021, 3032, 3007, 3012, 3007, 3110, 3183, 3234, 3295, 3306, 3347, 3314, 3320, 3315, 3253, 3267, 3246, 3193, 3231, 3199, 3090, 3222, 3242, 3037, 3171, 3066, 3074, 3079, 3209, 3223, 3295, 3276, 3219, 3253, 3212, 3210, 3299, 3368, 3392, 3413, 3341, 3279, 3292, 3230, 3097, 3192, 3138, 3067, 3224, 3169, 3057, 3020, 3013, 3014, 3034, 3016, 3059, 3123, 3088, 3099, 3150, 3192, 3206, 3174, 3225, 3271, 3274, 3229, 3197, 3149, 3120, 3284, 3207, 3205, 3124, 3105, 3238, 3263, 3225, 3197, 3169, 3220, 3183, 3149, 3162, 3192, 3219, 3145, 3264, 3143, 3223, 3300, 3274, 3134, 3024, 3111, 3018, 2905, 2928, 2952, 2912, 3010, 3027, 3245, 3208, 3109, 3063, 3155, 3185, 3240, 3174, 3507, 3417, 3076, 3075, 3203, 2909, 3251, 3196, 3329, 3271, 3232, 3185, 3122, 3164, 3166, 3245, 3275, 3255, 3213, 3068, 3071, 3141, 3230, 3044, 2953, 2915, 2928, 2917, 2971, 2946, 2897, 2844, 2878, 2926, 2951, 3095, 3111, 3191, 3161, 3217, 3346, 3429, 3442, 3389, 3207, 3198, 3174, 3155, 3253, 3266, 3317, 3092, 3169],
      "WindowCenter": [747.0, 748.0, 746.0, 746.0, 745.0, 745.0, 747.0, 749.0, 748.0, 748.0, 747.0, 747.0, 747.0, 747.0, 748.0, 747.0, 747.0, 747.0, 747.0, 748.0, 748.0, 748.0, 747.0, 747.0, 747.0, 746.0, 745.0, 744.0, 745.0, 746.0, 745.0, 744.0, 744.0, 745.0, 745.0, 744.0, 744.0, 744.0, 745.0, 747.0, 750.0, 750.0, 750.0, 747.0, 745.0, 745.0, 746.0, 746.0, 746.0, 744.0, 745.0, 743.0, 746.0, 745.0, 745.0, 746.0, 748.0, 748.0, 748.0, 751.0, 749.0, 747.0, 745.0, 741.0, 739.0, 738.0, 738.0, 739.0, 740.0, 741.0, 741.0, 742.0, 742.0, 745.0, 748.0, 749.0, 750.0, 750.0, 750.0, 750.0, 750.0, 750.0, 749.0, 749.0, 748.0, 747.0, 747.0, 746.0, 746.0, 747.0, 746.0, 747.0, 747.0, 745.0, 746.0, 746.0, 746.0, 747.0, 748.0, 747.0, 746.0, 746.0, 747.0, 748.0, 749.0, 751.0, 751.0, 751.0, 752.0, 751.0, 750.0, 748.0, 746.0, 747.0, 746.0, 746.0, 748.0, 747.0, 744.0, 743.0, 742.0, 743.0, 744.0, 744.0, 746.0, 747.0, 746.0, 746.0, 747.0, 748.0, 748.0, 749.0, 751.0, 751.0, 749.0, 747.0, 747.0, 746.0, 745.0, 750.0, 748.0, 747.0, 745.0, 746.0, 746.0, 746.0, 745.0, 746.0, 746.0, 746.0, 747.0, 746.0, 747.0, 748.0, 749.0, 748.0, 748.0, 746.0, 748.0, 749.0, 747.0, 745.0, 744.0, 744.0, 740.0, 735.0, 733.0, 734.0, 734.0, 739.0, 743.0, 748.0, 746.0, 745.0, 744.0, 745.0, 746.0, 747.0, 746.0, 751.0, 747.0, 744.0, 740.0, 740.0, 735.0, 746.0, 746.0, 748.0, 748.0, 746.0, 745.0, 745.0, 746.0, 748.0, 748.0, 750.0, 750.0, 749.0, 746.0, 745.0, 745.0, 743.0, 741.0, 741.0, 739.0, 738.0, 735.0, 733.0, 730.0, 732.0, 731.0, 733.0, 735.0, 737.0, 741.0, 743.0, 746.0, 745.0, 747.0, 750.0, 752.0, 752.0, 750.0, 747.0, 746.0, 747.0, 749.0, 751.0, 750.0, 748.0, 745.0, 745.0],
      "WindowWidth": [1628.0, 1628.0, 1625.0, 1623.0, 1620.0, 1623.0, 1628.0, 1632.0, 1631.0, 1631.0, 1627.0, 1626.0, 1625.0, 1626.0, 1629.0, 1628.0, 1628.0, 1626.0, 1626.0, 1630.0, 1630.0, 1629.0, 1626.0, 1626.0, 1628.0, 1624.0, 1621.0, 1619.0, 1620.0, 1625.0, 1623.0, 1620.0, 1619.0, 1621.0, 1621.0, 1619.0, 1619.0, 1618.0, 1621.0, 1626.0, 1635.0, 1637.0, 1635.0, 1627.0, 1622.0, 1623.0, 1625.0, 1626.0, 1624.0, 1619.0, 1622.0, 1617.0, 1625.0, 1621.0, 1623.0, 1625.0, 1630.0, 1630.0, 1631.0, 1637.0, 1633.0, 1628.0, 1623.0, 1612.0, 1605.0, 1602.0, 1603.0, 1606.0, 1608.0, 1610.0, 1610.0, 1612.0, 1614.0, 1622.0, 1629.0, 1632.0, 1635.0, 1635.0, 1637.0, 1635.0, 1635.0, 1635.0, 1633.0, 1632.0, 1631.0, 1628.0, 1627.0, 1624.0, 1623.0, 1626.0, 1624.0, 1627.0, 1627.0, 1622.0, 1625.0, 1623.0, 1625.0, 1628.0, 1629.0, 1628.0, 1624.0, 1625.0, 1625.0, 1628.0, 1633.0, 1637.0, 1639.0, 1640.0, 1640.0, 1639.0, 1636.0, 1631.0, 1623.0, 1628.0, 1624.0, 1625.0, 1630.0, 1625.0, 1618.0, 1615.0, 1614.0, 1616.0, 1617.0, 1619.0, 1625.0, 1626.0, 1623.0, 1623.0, 1627.0, 1630.0, 1630.0, 1632.0, 1637.0, 1637.0, 1632.0, 1627.0, 1627.0, 1624.0, 1621.0, 1635.0, 1630.0, 1628.0, 1622.0, 1624.0, 1626.0, 1623.0, 1622.0, 1623.0, 1624.0, 1624.0, 1626.0, 1624.0, 1626.0, 1629.0, 1632.0, 1629.0, 1629.0, 1625.0, 1630.0, 1631.0, 1627.0, 1621.0, 1617.0, 1616.0, 1608.0, 1595.0, 1588.0, 1590.0, 1591.0, 1605.0, 1615.0, 1628.0, 1625.0, 1619.0, 1619.0, 1621.0, 1624.0, 1627.0, 1625.0, 1639.0, 1626.0, 1618.0, 1608.0, 1609.0, 1594.0, 1625.0, 1623.0, 1629.0, 1628.0, 1624.0, 1621.0, 1620.0, 1625.0, 1629.0, 1630.0, 1636.0, 1636.0, 1632.0, 1625.0, 1621.0, 1619.0, 1615.0, 1610.0, 1609.0, 1603.0, 1603.0, 1593.0, 1590.0, 1582.0, 1587.0, 1582.0, 1588.0, 1595.0, 1598.0, 1610.0, 1617.0, 1624.0, 1622.0, 1627.0, 1634.0, 1640.0, 1640.0, 1635.0, 1627.0, 1622.0, 1626.0, 1632.0, 1637.0, 1634.0, 1628.0, 1621.0, 1620.0]
    },
    "slices": {}
  }
}