{
  "AcquisitionMatrixPE": 100,
  "AcquisitionNumber": 1,
  "AcquisitionTime": "13:24:37.775000",
  "BandwidthPerPixelPhaseEncode": 18.519,
  "BaseResolution": 100,
  "BodyPartExamined": "BRAIN",
  "ConsistencyInfo": "N4_VE11C_LATEST_20160120",
  "ConversionSoftware": "dcm2niix",
  "ConversionSoftwareVersion": "v1.0.20180622 GCC4.9.2",
  "DerivedVendorReportedEchoSpacing": 0.000539986,
  "DeviceSerialNumber": "166078",
  "DwellTime": 2.1e-06,
  "EchoTime": 0.034,
  "EchoTrainLength": 100,
  "EffectiveEchoSpacing": 0.000539986,
  "FlipAngle": 90,
  "ImageOrientationPatientDICOM": [1, 0, 0, 0, 0.971134, -0.238533],
  "ImageType": [
    "ORIGINAL",
    "PRIMARY",
    "M",
    "ND",
    "MOSAIC"
],
  "InPlanePhaseEncodingDirectionDICOM": "COL",
  "InstitutionAddress": "Street_StreetNo_Bei_Jing_District_CN_ZIP",
  "InstitutionName": "BeiJing_Normal_University",
  "InstitutionalDepartmentName": "Department",
  "MRAcquisitionType": "2D",
  "MagneticFieldStrength": 3,
  "Manufacturer": "Siemens",
  "ManufacturersModelName": "Prisma",
  "Modality": "MR",
  "MultibandAccelerationFactor": 3,
  "PartialFourier": 1,
  "PatientPosition": "HFS",
  "PercentPhaseFOV": 100,
  "PhaseEncodingDirection": "j-",
  "PhaseEncodingSteps": 100,
  "PhaseResolution": 1,
  "PixelBandwidth": 2380,
  "ProcedureStepDescription": "BNU_P2018_64CH_Liu.Jia",
  "ProtocolName": "bold_100x100_s3_2x2x2_232",
  "PulseSequenceDetails": "%SiemensSeq%_ep2d_bold",
  "ReceiveCoilActiveElements": "HC1-7;NC1",
  "ReceiveCoilName": "HeadNeck_64",
  "ReconMatrixPE": 100,
  "RepetitionTime": 2,
  "SAR": 0.0854914,
  "ScanOptions": "FS",
  "ScanningSequence": "EP",
  "SequenceName": "_epfid2d1_100",
  "SequenceVariant": "SK",
  "SeriesDescription": "bold_100x100_s3_2x2x2_232",
  "SeriesNumber": 9,
  "ShimSetting": [-5468, -11485, -1241, 381, -16, -306, -27, 43],
  "SliceThickness": 2,
  "SliceTiming": [1.485, 0, 0.99, 0.0825, 1.0725, 0.165, 1.155, 0.2475, 1.2375, 0.33, 1.32, 0.4125, 1.4025, 0.5775, 1.5675, 0.66, 1.65, 0.7425, 1.7325, 0.825, 1.815, 0.9075, 1.8975, 0.495, 1.485, 0, 0.99, 0.0825, 1.0725, 0.165, 1.155, 0.2475, 1.2375, 0.33, 1.32, 0.4125, 1.4025, 0.5775, 1.5675, 0.66, 1.65, 0.7425, 1.7325, 0.825, 1.815, 0.9075, 1.8975, 0.495, 1.485, 0, 0.99, 0.0825, 1.0725, 0.165, 1.155, 0.2475, 1.2375, 0.33, 1.32, 0.4125, 1.4025, 0.5775, 1.5675, 0.66, 1.65, 0.7425, 1.7325, 0.825, 1.815, 0.9075, 1.8975, 0.495],
  "SoftwareVersions": "syngo_MR_E11",
  "SpacingBetweenSlices": 2,
  "StationName": "AWP166078",
  "TaskName": "motor",
  "TotalReadoutTime": 0.0534586,
  "TxRefAmp": 244.423,
  "dcmmeta_affine": [
    [-2.0, 0.0, 0.0, 100.0],
    [0.0, 1.9422686100006104, -0.4770669639110565, -72.95817565917969],
    [0.0, 0.47706693410873413, 1.9422686100006104, -80.18223571777344],
    [0.0, 0.0, 0.0, 1.0]
],
  "dcmmeta_reorient_transform": [
    [0.0, -1.0, 0.0, 99.0],
    [1.0, 0.0, 0.0, 0.0],
    [0.0, 0.0, 1.0, 0.0],
    [0.0, 0.0, 0.0, 1.0]
],
  "dcmmeta_shape": [100, 100, 72, 232],
  "dcmmeta_slice_dim": 2,
  "dcmmeta_version": 0.6,
  "global": {
    "const": {
      "AcquisitionMatrix": [100, 0, 0, 100],
      "AngioFlag": "N",
      "BitsAllocated": 16,
      "BitsStored": 12,
      "BodyPartExamined": "BRAIN",
      "Columns": 900,
      "EchoNumbers": 1,
      "EchoTime": 34.0,
      "EchoTrainLength": 100,
      "FlipAngle": 90.0,
      "HighBit": 11,
      "ImageOrientationPatient": [1.0, 0.0, 0.0, 0.0, 0.97113427618897, -0.2385334727264],
      "ImagePositionPatient": [-900.0, -896.23383265516, 157.87417147428],
      "ImageType": [
        "ORIGINAL",
        "PRIMARY",
        "M",
        "ND",
        "MOSAIC"
],
      "ImagedNucleus": "1H",
      "ImagingFrequency": 123.2578,
      "InPlanePhaseEncodingDirection": "COL",
      "MRAcquisitionType": "2D",
      "MagneticFieldStrength": 3.0,
      "Manufacturer": "SIEMENS",
      "ManufacturerModelName": "Prisma",
      "Modality": "MR",
      "NumberOfAverages": 1.0,
      "NumberOfPhaseEncodingSteps": 100,
      "PercentPhaseFieldOfView": 100.0,
      "PercentSampling": 100.0,
      "PerformedProcedureStepStartTime": "124412.632000",
      "PhotometricInterpretation": "MONOCHROME2",
      "PixelBandwidth": 2380.0,
      "PixelRepresentation": 0,
      "PixelSpacing": [2.0, 2.0],
      "ProtocolName": "bold_100x100_s3_2x2x2_232",
      "RepetitionTime": 2000.0,
      "Rows": 900,
      "SAR": 0.08549136631308,
      "SamplesPerPixel": 1,
      "ScanOptions": "FS",
      "ScanningSequence": "EP",
      "SequenceName": "*epfid2d1_100",
      "SequenceVariant": "SK",
      "SeriesDescription": "bold_100x100_s3_2x2x2_232",
      "SeriesNumber": 9,
      "SeriesTime": "132440.507000",
      "SliceLocation": -60.46474923453,
      "SliceThickness": 2.0,
      "SmallestImagePixelValue": 0,
      "SoftwareVersions": "syngo MR E11",
      "SpacingBetweenSlices": 2.0000000254196,
      "SpecificCharacterSet": "ISO_IR 100",
      "StudyID": "1",
      "StudyTime": "124412.533000",
      "TransmitCoilName": "Body",
      "VariableFlipAngleFlag": "N",
      "WindowCenterWidthExplanation": "Algo1",
      "dBdt": 0.0},
    "slices": {}
  },
  "time": {
    "samples": {
      "AcquisitionNumber": [1, 2, 3, 4, 5, 6, 7, 8, 9, 10, 11, 12, 13, 14, 15, 16, 17, 18, 19, 20, 21, 22, 23, 24, 25, 26, 27, 28, 29, 30, 31, 32, 33, 34, 35, 36, 37, 38, 39, 40, 41, 42, 43, 44, 45, 46, 47, 48, 49, 50, 51, 52, 53, 54, 55, 56, 57, 58, 59, 60, 61, 62, 63, 64, 65, 66, 67, 68, 69, 70, 71, 72, 73, 74, 75, 76, 77, 78, 79, 80, 81, 82, 83, 84, 85, 86, 87, 88, 89, 90, 91, 92, 93, 94, 95, 96, 97, 98, 99, 100, 101, 102, 103, 104, 105, 106, 107, 108, 109, 110, 111, 112, 113, 114, 115, 116, 117, 118, 119, 120, 121, 122, 123, 124, 125, 126, 127, 128, 129, 130, 131, 132, 133, 134, 135, 136, 137, 138, 139, 140, 141, 142, 143, 144, 145, 146, 147, 148, 149, 150, 151, 152, 153, 154, 155, 156, 157, 158, 159, 160, 161, 162, 163, 164, 165, 166, 167, 168, 169, 170, 171, 172, 173, 174, 175, 176, 177, 178, 179, 180, 181, 182, 183, 184, 185, 186, 187, 188, 189, 190, 191, 192, 193, 194, 195, 196, 197, 198, 199, 200, 201, 202, 203, 204, 205, 206, 207, 208, 209, 210, 211, 212, 213, 214, 215, 216, 217, 218, 219, 220, 221, 222, 223, 224, 225, 226, 227, 228, 229, 230, 231, 232],
      "AcquisitionTime": ["132437.775000", "132439.775000", "132441.775000", "132443.775000", "132445.775000", "132447.775000", "132449.775000", "132451.775000", "132453.775000", "132455.775000", "132457.775000", "132459.775000", "132501.775000", "132503.775000", "132505.775000", "132507.775000", "132509.775000", "132511.775000", "132513.775000", "132515.775000", "132517.775000", "132519.775000", "132521.775000", "132523.775000", "132525.775000", "132527.775000", "132529.775000", "132531.775000", "132533.775000", "132535.775000", "132537.775000", "132539.775000", "132541.775000", "132543.775000", "132545.775000", "132547.775000", "132549.775000", "132551.775000", "132553.775000", "132555.775000", "132557.775000", "132559.775000", "132601.775000", "132603.775000", "132605.775000", "132607.775000", "132609.775000", "132611.775000", "132613.775000", "132615.775000", "132617.775000", "132619.775000", "132621.775000", "132623.775000", "132625.775000", "132627.775000", "132629.775000", "132631.775000", "132633.775000", "132635.775000", "132637.775000", "132639.775000", "132641.775000", "132643.775000", "132645.775000", "132647.775000", "132649.775000", "132651.775000", "132653.775000", "132655.775000", "132657.775000", "132659.775000", "132701.775000", "132703.775000", "132705.775000", "132707.775000", "132709.775000", "132711.775000", "132713.775000", "132715.775000", "132717.775000", "132719.775000", "132721.775000", "132723.775000", "132725.775000", "132727.775000", "132729.775000", "132731.775000", "132733.775000", "132735.775000", "132737.775000", "132739.775000", "132741.775000", "132743.775000", "132745.775000", "132747.775000", "132749.775000", "132751.775000", "132753.775000", "132755.775000", "132757.775000", "132759.775000", "132801.775000", "132803.775000", "132805.775000", "132807.775000", "132809.775000", "132811.775000", "132813.775000", "132815.775000", "132817.775000", "132819.775000", "132821.775000", "132823.775000", "132825.775000", "132827.775000", "132829.775000", "132831.775000", "132833.775000", "132835.775000", "132837.775000", "132839.775000", "132841.775000", "132843.775000", "132845.775000", "132847.775000", "132849.775000", "132851.775000", "132853.775000", "132855.775000", "132857.775000", "132859.775000", "132901.775000", "132903.775000", "132905.775000", "132907.775000", "132909.775000", "132911.775000", "132913.775000", "132915.775000", "132917.775000", "132919.775000", "132921.775000", "132923.775000", "132925.775000", "132927.775000", "132929.775000", "132931.775000", "132933.775000", "132935.775000", "132937.775000", "132939.775000", "132941.775000", "132943.775000", "132945.775000", "132947.775000", "132949.775000", "132951.775000", "132953.775000", "132955.775000", "132957.775000", "132959.775000", "133001.775000", "133003.775000", "133005.775000", "133007.775000", "133009.775000", "133011.775000", "133013.775000", "133015.775000", "133017.775000", "133019.775000", "133021.775000", "133023.775000", "133025.775000", "133027.775000", "133029.775000", "133031.775000", "133033.775000", "133035.775000", "133037.775000", "133039.775000", "133041.775000", "133043.775000", "133045.775000", "133047.775000", "133049.775000", "133051.775000", "133053.775000", "133055.775000", "133057.775000", "133059.775000", "133101.775000", "133103.775000", "133105.775000", "133107.775000", "133109.775000", "133111.775000", "133113.775000", "133115.775000", "133117.775000", "133119.775000", "133121.775000", "133123.775000", "133125.775000", "133127.775000", "133129.775000", "133131.775000", "133133.775000", "133135.775000", "133137.775000", "133139.775000", "133141.775000", "133143.775000", "133145.775000", "133147.775000", "133149.775000", "133151.775000", "133153.775000", "133155.775000", "133157.775000", "133159.775000", "133201.775000", "133203.775000", "133205.775000", "133207.775000", "133209.775000", "133211.775000", "133213.775000", "133215.775000", "133217.775000", "133219.775000"],
      "ContentTime": ["132440.511000", "132442.006000", "132444.006000", "132446.006000", "132448.006000", "132450.006000", "132452.006000", "132454.007000", "132456.006000", "132458.006000", "132500.006000", "132502.006000", "132504.007000", "132506.006000", "132508.006000", "132510.006000", "132512.006000", "132514.006000", "132516.006000", "132518.007000", "132520.006000", "132522.007000", "132524.006000", "132526.007000", "132528.006000", "132530.006000", "132532.006000", "132534.006000", "132536.007000", "132538.007000", "132540.006000", "132542.006000", "132544.006000", "132546.006000", "132548.006000", "132550.006000", "132552.007000", "132554.006000", "132556.006000", "132558.006000", "132600.007000", "132602.006000", "132604.006000", "132606.006000", "132608.006000", "132610.006000", "132612.006000", "132614.007000", "132616.006000", "132618.006000", "132620.007000", "132622.006000", "132624.007000", "132626.006000", "132628.006000", "132630.006000", "132632.007000", "132634.007000", "132636.006000", "132638.007000", "132640.006000", "132642.006000", "132644.006000", "132646.007000", "132648.006000", "132650.006000", "132652.006000", "132654.006000", "132656.007000", "132658.006000", "132700.006000", "132702.006000", "132704.006000", "132706.006000", "132708.007000", "132710.007000", "132712.006000", "132714.007000", "132716.007000", "132718.007000", "132720.006000", "132722.007000", "132724.007000", "132726.007000", "132728.006000", "132730.006000", "132732.006000", "132734.006000", "132736.006000", "132738.006000", "132740.006000", "132742.008000", "132744.006000", "132746.006000", "132748.006000", "132750.006000", "132752.006000", "132754.007000", "132756.007000", "132758.006000", "132800.007000", "132802.006000", "132804.006000", "132806.006000", "132808.006000", "132810.006000", "132812.006000", "132814.006000", "132816.006000", "132818.007000", "132820.006000", "132822.006000", "132824.007000", "132826.007000", "132828.006000", "132830.007000", "132832.006000", "132834.007000", "132836.007000", "132838.007000", "132840.007000", "132842.006000", "132844.006000", "132846.006000", "132848.006000", "132850.006000", "132852.008000", "132854.006000", "132856.007000", "132858.007000", "132900.006000", "132902.006000", "132904.016000", "132906.006000", "132908.007000", "132910.006000", "132912.007000", "132914.006000", "132916.006000", "132918.006000", "132920.007000", "132922.007000", "132924.007000", "132926.006000", "132928.006000", "132930.007000", "132932.007000", "132934.006000", "132936.006000", "132938.007000", "132940.007000", "132942.008000", "132944.007000", "132946.006000", "132948.007000", "132950.006000", "132952.007000", "132954.007000", "132956.006000", "132958.006000", "133000.007000", "133002.008000", "133004.006000", "133006.006000", "133008.007000", "133010.006000", "133012.006000", "133014.006000", "133016.007000", "133018.006000", "133020.006000", "133022.006000", "133024.007000", "133026.007000", "133028.006000", "133030.007000", "133032.007000", "133034.006000", "133036.007000", "133038.006000", "133040.007000", "133042.006000", "133044.006000", "133046.006000", "133048.006000", "133050.007000", "133052.007000", "133054.008000", "133056.007000", "133058.007000", "133100.006000", "133102.006000", "133104.007000", "133106.006000", "133108.007000", "133110.007000", "133112.008000", "133114.006000", "133116.006000", "133118.007000", "133120.006000", "133122.006000", "133124.007000", "133126.007000", "133128.007000", "133130.007000", "133132.007000", "133134.007000", "133136.007000", "133138.007000", "133140.007000", "133142.007000", "133144.007000", "133146.006000", "133148.006000", "133150.006000", "133152.007000", "133154.007000", "133156.007000", "133158.007000", "133200.007000", "133202.006000", "133204.008000", "133206.007000", "133208.006000", "133210.008000", "133212.007000", "133214.007000", "133216.007000", "133218.006000", "133220.007000", "133221.748000"],
      "InstanceCreationTime": ["132440.511000", "132442.006000", "132444.006000", "132446.006000", "132448.006000", "132450.006000", "132452.006000", "132454.007000", "132456.006000", "132458.006000", "132500.006000", "132502.006000", "132504.007000", "132506.006000", "132508.006000", "132510.006000", "132512.006000", "132514.006000", "132516.006000", "132518.007000", "132520.006000", "132522.007000", "132524.006000", "132526.007000", "132528.006000", "132530.006000", "132532.006000", "132534.006000", "132536.007000", "132538.007000", "132540.006000", "132542.006000", "132544.006000", "132546.006000", "132548.006000", "132550.006000", "132552.007000", "132554.006000", "132556.006000", "132558.006000", "132600.007000", "132602.006000", "132604.006000", "132606.006000", "132608.006000", "132610.006000", "132612.006000", "132614.007000", "132616.006000", "132618.006000", "132620.007000", "132622.006000", "132624.007000", "132626.006000", "132628.006000", "132630.006000", "132632.007000", "132634.007000", "132636.006000", "132638.007000", "132640.006000", "132642.006000", "132644.006000", "132646.007000", "132648.006000", "132650.006000", "132652.006000", "132654.006000", "132656.007000", "132658.006000", "132700.006000", "132702.006000", "132704.006000", "132706.006000", "132708.007000", "132710.007000", "132712.006000", "132714.007000", "132716.007000", "132718.007000", "132720.006000", "132722.007000", "132724.007000", "132726.007000", "132728.006000", "132730.006000", "132732.006000", "132734.006000", "132736.006000", "132738.006000", "132740.006000", "132742.008000", "132744.006000", "132746.006000", "132748.006000", "132750.006000", "132752.006000", "132754.007000", "132756.007000", "132758.006000", "132800.007000", "132802.006000", "132804.006000", "132806.006000", "132808.006000", "132810.006000", "132812.006000", "132814.006000", "132816.006000", "132818.007000", "132820.006000", "132822.006000", "132824.007000", "132826.007000", "132828.006000", "132830.007000", "132832.006000", "132834.007000", "132836.007000", "132838.007000", "132840.007000", "132842.006000", "132844.006000", "132846.006000", "132848.006000", "132850.006000", "132852.008000", "132854.006000", "132856.007000", "132858.007000", "132900.006000", "132902.006000", "132904.016000", "132906.006000", "132908.007000", "132910.006000", "132912.007000", "132914.006000", "132916.006000", "132918.006000", "132920.007000", "132922.007000", "132924.007000", "132926.006000", "132928.006000", "132930.007000", "132932.007000", "132934.006000", "132936.006000", "132938.007000", "132940.007000", "132942.008000", "132944.007000", "132946.006000", "132948.007000", "132950.006000", "132952.007000", "132954.007000", "132956.006000", "132958.006000", "133000.007000", "133002.008000", "133004.006000", "133006.006000", "133008.007000", "133010.006000", "133012.006000", "133014.006000", "133016.007000", "133018.006000", "133020.006000", "133022.006000", "133024.007000", "133026.007000", "133028.006000", "133030.007000", "133032.007000", "133034.006000", "133036.007000", "133038.006000", "133040.007000", "133042.006000", "133044.006000", "133046.006000", "133048.006000", "133050.007000", "133052.007000", "133054.008000", "133056.007000", "133058.007000", "133100.006000", "133102.006000", "133104.007000", "133106.006000", "133108.007000", "133110.007000", "133112.008000", "133114.006000", "133116.006000", "133118.007000", "133120.006000", "133122.006000", "133124.007000", "133126.007000", "133128.007000", "133130.007000", "133132.007000", "133134.007000", "133136.007000", "133138.007000", "133140.007000", "133142.007000", "133144.007000", "133146.006000", "133148.006000", "133150.006000", "133152.007000", "133154.007000", "133156.007000", "133158.007000", "133200.007000", "133202.006000", "133204.008000", "133206.007000", "133208.006000", "133210.008000", "133212.007000", "133214.007000", "133216.007000", "133218.006000", "133220.007000", "133221.748000"],
      "InstanceNumber": [1, 2, 3, 4, 5, 6, 7, 8, 9, 10, 11, 12, 13, 14, 15, 16, 17, 18, 19, 20, 21, 22, 23, 24, 25, 26, 27, 28, 29, 30, 31, 32, 33, 34, 35, 36, 37, 38, 39, 40, 41, 42, 43, 44, 45, 46, 47, 48, 49, 50, 51, 52, 53, 54, 55, 56, 57, 58, 59, 60, 61, 62, 63, 64, 65, 66, 67, 68, 69, 70, 71, 72, 73, 74, 75, 76, 77, 78, 79, 80, 81, 82, 83, 84, 85, 86, 87, 88, 89, 90, 91, 92, 93, 94, 95, 96, 97, 98, 99, 100, 101, 102, 103, 104, 105, 106, 107, 108, 109, 110, 111, 112, 113, 114, 115, 116, 117, 118, 119, 120, 121, 122, 123, 124, 125, 126, 127, 128, 129, 130, 131, 132, 133, 134, 135, 136, 137, 138, 139, 140, 141, 142, 143, 144, 145, 146, 147, 148, 149, 150, 151, 152, 153, 154, 155, 156, 157, 158, 159, 160, 161, 162, 163, 164, 165, 166, 167, 168, 169, 170, 171, 172, 173, 174, 175, 176, 177, 178, 179, 180, 181, 182, 183, 184, 185, 186, 187, 188, 189, 190, 191, 192, 193, 194, 195, 196, 197, 198, 199, 200, 201, 202, 203, 204, 205, 206, 207, 208, 209, 210, 211, 212, 213, 214, 215, 216, 217, 218, 219, 220, 221, 222, 223, 224, 225, 226, 227, 228, 229, 230, 231, 232],
      "LargestImagePixelValue": [2921, 2789, 2810, 2738, 2840, 2739, 2816, 2761, 2775, 2793, 2730, 2761, 2738, 2747, 2771, 2728, 2809, 2786, 2767, 2771, 2722, 2711, 2772, 2781, 2966, 2792, 2777, 2830, 2823, 2769, 2874, 2802, 2774, 2822, 2717, 2718, 2769, 2767, 2779, 2775, 2686, 2888, 2850, 2812, 2839, 2768, 2993, 2887, 2781, 2887, 2852, 2748, 2702, 2735, 2716, 2826, 2778, 2818, 2682, 2689, 2743, 2702, 2808, 2670, 2732, 2720, 2733, 2727, 2763, 2756, 2728, 2723, 2708, 2713, 2712, 2756, 2711, 2711, 2782, 2756, 2740, 2756, 2742, 2798, 2719, 2711, 2761, 2701, 2744, 2793, 2857, 2772, 2869, 2909, 2832, 2930, 2884, 2743, 2744, 2837, 2755, 2725, 2792, 2741, 2709, 2794, 2747, 2825, 2846, 2805, 2766, 2711, 3053, 2951, 2874, 2921, 2943, 2912, 2962, 2882, 2659, 2945, 2729, 2698, 3079, 2902, 3070, 2944, 2991, 2939, 2947, 2947, 2931, 2963, 2900, 2931, 2968, 2941, 2860, 2801, 2896, 2770, 2958, 2736, 2837, 2880, 2773, 2976, 2867, 2847, 2996, 2911, 2871, 2932, 2859, 2846, 2926, 2883, 2882, 2916, 2843, 2869, 2855, 2863, 2891, 2907, 2922, 2902, 2895, 2908, 2849, 2965, 2909, 2918, 2887, 2880, 2837, 2972, 2880, 2891, 2945, 2910, 2905, 2906, 2684, 2812, 2799, 2720, 2765, 2747, 2685, 2724, 2823, 2796, 2774, 2749, 2808, 2792, 2844, 2848, 2974, 2886, 2838, 2869, 2851, 2923, 2855, 2929, 2795, 2733, 2765, 2765, 2873, 2854, 2847, 2850, 2896, 3019, 2902, 2863, 2856, 2893, 2898, 3009, 2853, 2924, 2868, 2879, 2880, 2856, 2917, 2920],
      "WindowCenter": [727.0, 724.0, 724.0, 723.0, 725.0, 723.0, 724.0, 723.0, 724.0, 725.0, 723.0, 724.0, 723.0, 724.0, 724.0, 724.0, 726.0, 725.0, 724.0, 723.0, 722.0, 724.0, 723.0, 721.0, 724.0, 722.0, 723.0, 724.0, 724.0, 723.0, 723.0, 723.0, 725.0, 724.0, 724.0, 726.0, 724.0, 725.0, 724.0, 723.0, 721.0, 722.0, 722.0, 721.0, 721.0, 721.0, 723.0, 724.0, 725.0, 726.0, 727.0, 724.0, 722.0, 722.0, 722.0, 722.0, 722.0, 723.0, 722.0, 721.0, 722.0, 723.0, 722.0, 721.0, 721.0, 721.0, 723.0, 723.0, 724.0, 722.0, 721.0, 722.0, 719.0, 721.0, 723.0, 722.0, 722.0, 723.0, 724.0, 724.0, 724.0, 725.0, 724.0, 722.0, 723.0, 723.0, 724.0, 723.0, 724.0, 724.0, 724.0, 721.0, 722.0, 723.0, 721.0, 724.0, 724.0, 721.0, 723.0, 725.0, 724.0, 723.0, 723.0, 722.0, 723.0, 725.0, 725.0, 727.0, 723.0, 723.0, 722.0, 720.0, 724.0, 722.0, 722.0, 721.0, 721.0, 721.0, 721.0, 722.0, 718.0, 724.0, 723.0, 722.0, 723.0, 723.0, 723.0, 721.0, 722.0, 722.0, 723.0, 722.0, 723.0, 724.0, 723.0, 724.0, 724.0, 724.0, 725.0, 723.0, 724.0, 723.0, 723.0, 721.0, 721.0, 722.0, 722.0, 723.0, 723.0, 722.0, 722.0, 722.0, 724.0, 724.0, 723.0, 722.0, 723.0, 724.0, 726.0, 726.0, 726.0, 724.0, 723.0, 723.0, 723.0, 723.0, 721.0, 721.0, 720.0, 721.0, 721.0, 722.0, 722.0, 722.0, 721.0, 723.0, 722.0, 724.0, 724.0, 723.0, 724.0, 723.0, 722.0, 722.0, 717.0, 719.0, 721.0, 719.0, 720.0, 721.0, 720.0, 722.0, 724.0, 723.0, 725.0, 723.0, 725.0, 726.0, 725.0, 724.0, 724.0, 722.0, 723.0, 722.0, 723.0, 722.0, 722.0, 723.0, 722.0, 723.0, 722.0, 723.0, 723.0, 722.0, 723.0, 723.0, 723.0, 724.0, 723.0, 724.0, 723.0, 724.0, 724.0, 723.0, 723.0, 723.0, 723.0, 723.0, 722.0, 723.0, 723.0, 724.0],
      "WindowWidth": [1550.0, 1542.0, 1541.0, 1539.0, 1544.0, 1538.0, 1542.0, 1540.0, 1542.0, 1544.0, 1539.0, 1542.0, 1540.0, 1540.0, 1542.0, 1540.0, 1545.0, 1544.0, 1541.0, 1539.0, 1536.0, 1541.0, 1538.0, 1535.0, 1541.0, 1535.0, 1540.0, 1541.0, 1541.0, 1537.0, 1538.0, 1539.0, 1543.0, 1541.0, 1542.0, 1546.0, 1543.0, 1543.0, 1540.0, 1538.0, 1536.0, 1537.0, 1536.0, 1533.0, 1533.0, 1535.0, 1538.0, 1541.0, 1545.0, 1547.0, 1547.0, 1540.0, 1537.0, 1535.0, 1535.0, 1534.0, 1534.0, 1537.0, 1535.0, 1532.0, 1535.0, 1538.0, 1535.0, 1533.0, 1533.0, 1534.0, 1538.0, 1538.0, 1541.0, 1537.0, 1534.0, 1535.0, 1529.0, 1534.0, 1537.0, 1536.0, 1537.0, 1539.0, 1541.0, 1543.0, 1543.0, 1545.0, 1540.0, 1536.0, 1538.0, 1540.0, 1540.0, 1540.0, 1542.0, 1540.0, 1541.0, 1535.0, 1537.0, 1538.0, 1533.0, 1541.0, 1541.0, 1534.0, 1539.0, 1543.0, 1542.0, 1540.0, 1538.0, 1536.0, 1539.0, 1544.0, 1545.0, 1549.0, 1539.0, 1538.0, 1537.0, 1532.0, 1539.0, 1535.0, 1536.0, 1533.0, 1533.0, 1534.0, 1534.0, 1534.0, 1527.0, 1541.0, 1538.0, 1537.0, 1536.0, 1538.0, 1537.0, 1533.0, 1534.0, 1534.0, 1537.0, 1535.0, 1538.0, 1540.0, 1538.0, 1540.0, 1541.0, 1541.0, 1543.0, 1540.0, 1541.0, 1539.0, 1539.0, 1534.0, 1534.0, 1536.0, 1536.0, 1538.0, 1537.0, 1535.0, 1535.0, 1535.0, 1540.0, 1540.0, 1538.0, 1537.0, 1539.0, 1541.0, 1546.0, 1546.0, 1545.0, 1541.0, 1538.0, 1537.0, 1537.0, 1537.0, 1533.0, 1534.0, 1530.0, 1532.0, 1533.0, 1533.0, 1535.0, 1536.0, 1533.0, 1536.0, 1535.0, 1539.0, 1540.0, 1538.0, 1540.0, 1538.0, 1534.0, 1534.0, 1524.0, 1529.0, 1534.0, 1530.0, 1533.0, 1533.0, 1531.0, 1538.0, 1541.0, 1540.0, 1544.0, 1540.0, 1543.0, 1546.0, 1542.0, 1541.0, 1541.0, 1537.0, 1537.0, 1536.0, 1538.0, 1535.0, 1536.0, 1539.0, 1537.0, 1538.0, 1536.0, 1538.0, 1539.0, 1536.0, 1538.0, 1536.0, 1537.0, 1539.0, 1538.0, 1540.0, 1537.0, 1540.0, 1541.0, 1538.0, 1537.0, 1536.0, 1538.0, 1537.0, 1535.0, 1538.0, 1537.0, 1539.0]
    },
    "slices": {}
  }
}