{
  "AcquisitionMatrixPE": 100,
  "AcquisitionNumber": 1,
  "AcquisitionTime": "12:56:9.317500",
  "BandwidthPerPixelPhaseEncode": 18.519,
  "BaseResolution": 100,
  "BodyPartExamined": "BRAIN",
  "ConsistencyInfo": "N4_VE11C_LATEST_20160120",
  "ConversionSoftware": "dcm2niix",
  "ConversionSoftwareVersion": "v1.0.20180622 GCC4.9.2",
  "DerivedVendorReportedEchoSpacing": 0.000539986,
  "DeviceSerialNumber": "166078",
  "DwellTime": 2.1e-06,
  "EchoTime": 0.034,
  "EchoTrainLength": 100,
  "EffectiveEchoSpacing": 0.000539986,
  "FlipAngle": 90,
  "ImageOrientationPatientDICOM": [1, 0, 0, 0, 0.971134, -0.238533],
  "ImageType": [
    "ORIGINAL",
    "PRIMARY",
    "M",
    "ND",
    "MOSAIC"
],
  "InPlanePhaseEncodingDirectionDICOM": "COL",
  "InstitutionAddress": "Street_StreetNo_Bei_Jing_District_CN_ZIP",
  "InstitutionName": "BeiJing_Normal_University",
  "InstitutionalDepartmentName": "Department",
  "MRAcquisitionType": "2D",
  "MagneticFieldStrength": 3,
  "Manufacturer": "Siemens",
  "ManufacturersModelName": "Prisma",
  "Modality": "MR",
  "MultibandAccelerationFactor": 3,
  "PartialFourier": 1,
  "PatientPosition": "HFS",
  "PercentPhaseFOV": 100,
  "PhaseEncodingDirection": "j-",
  "PhaseEncodingSteps": 100,
  "PhaseResolution": 1,
  "PixelBandwidth": 2380,
  "ProcedureStepDescription": "BNU_P2018_64CH_Liu.Jia",
  "ProtocolName": "bold_100x100_s3_2x2x2_232",
  "PulseSequenceDetails": "%SiemensSeq%_ep2d_bold",
  "ReceiveCoilActiveElements": "HC1-7;NC1",
  "ReceiveCoilName": "HeadNeck_64",
  "ReconMatrixPE": 100,
  "RepetitionTime": 2,
  "SAR": 0.0854914,
  "ScanOptions": "FS",
  "ScanningSequence": "EP",
  "SequenceName": "_epfid2d1_100",
  "SequenceVariant": "SK",
  "SeriesDescription": "bold_100x100_s3_2x2x2_232",
  "SeriesNumber": 4,
  "ShimSetting": [-5468, -11485, -1241, 381, -16, -306, -27, 43],
  "SliceThickness": 2,
  "SliceTiming": [1.485, 0, 0.99, 0.0825, 1.0725, 0.165, 1.155, 0.2475, 1.2375, 0.33, 1.32, 0.4125, 1.4025, 0.5775, 1.5675, 0.66, 1.65, 0.7425, 1.7325, 0.825, 1.815, 0.9075, 1.8975, 0.495, 1.485, 0, 0.99, 0.0825, 1.0725, 0.165, 1.155, 0.2475, 1.2375, 0.33, 1.32, 0.4125, 1.4025, 0.5775, 1.5675, 0.66, 1.65, 0.7425, 1.7325, 0.825, 1.815, 0.9075, 1.8975, 0.495, 1.485, 0, 0.99, 0.0825, 1.0725, 0.165, 1.155, 0.2475, 1.2375, 0.33, 1.32, 0.4125, 1.4025, 0.5775, 1.5675, 0.66, 1.65, 0.7425, 1.7325, 0.825, 1.815, 0.9075, 1.8975, 0.495],
  "SoftwareVersions": "syngo_MR_E11",
  "SpacingBetweenSlices": 2,
  "StationName": "AWP166078",
  "TaskName": "motor",
  "TotalReadoutTime": 0.0534586,
  "TxRefAmp": 244.423,
  "dcmmeta_affine": [
    [-2.0, 0.0, 0.0, 100.0],
    [0.0, 1.9422686100006104, -0.4770669639110565, -72.95817565917969],
    [0.0, 0.47706693410873413, 1.9422686100006104, -80.18223571777344],
    [0.0, 0.0, 0.0, 1.0]
],
  "dcmmeta_reorient_transform": [
    [0.0, -1.0, 0.0, 99.0],
    [1.0, 0.0, 0.0, 0.0],
    [0.0, 0.0, 1.0, 0.0],
    [0.0, 0.0, 0.0, 1.0]
],
  "dcmmeta_shape": [100, 100, 72, 232],
  "dcmmeta_slice_dim": 2,
  "dcmmeta_version": 0.6,
  "global": {
    "const": {
      "AcquisitionMatrix": [100, 0, 0, 100],
      "AngioFlag": "N",
      "BitsAllocated": 16,
      "BitsStored": 12,
      "BodyPartExamined": "BRAIN",
      "Columns": 900,
      "EchoNumbers": 1,
      "EchoTime": 34.0,
      "EchoTrainLength": 100,
      "FlipAngle": 90.0,
      "HighBit": 11,
      "ImageOrientationPatient": [1.0, 0.0, 0.0, 0.0, 0.97113427618897, -0.2385334727264],
      "ImagePositionPatient": [-900.0, -896.23383265516, 157.87417147428],
      "ImageType": [
        "ORIGINAL",
        "PRIMARY",
        "M",
        "ND",
        "MOSAIC"
],
      "ImagedNucleus": "1H",
      "ImagingFrequency": 123.257792,
      "InPlanePhaseEncodingDirection": "COL",
      "MRAcquisitionType": "2D",
      "MagneticFieldStrength": 3.0,
      "Manufacturer": "SIEMENS",
      "ManufacturerModelName": "Prisma",
      "Modality": "MR",
      "NumberOfAverages": 1.0,
      "NumberOfPhaseEncodingSteps": 100,
      "PercentPhaseFieldOfView": 100.0,
      "PercentSampling": 100.0,
      "PerformedProcedureStepStartTime": "124412.632000",
      "PhotometricInterpretation": "MONOCHROME2",
      "PixelBandwidth": 2380.0,
      "PixelRepresentation": 0,
      "PixelSpacing": [2.0, 2.0],
      "ProtocolName": "bold_100x100_s3_2x2x2_232",
      "RepetitionTime": 2000.0,
      "Rows": 900,
      "SAR": 0.08549136631308,
      "SamplesPerPixel": 1,
      "ScanOptions": "FS",
      "ScanningSequence": "EP",
      "SequenceName": "*epfid2d1_100",
      "SequenceVariant": "SK",
      "SeriesDescription": "bold_100x100_s3_2x2x2_232",
      "SeriesNumber": 4,
      "SeriesTime": "125612.504000",
      "SliceLocation": -60.46474923453,
      "SliceThickness": 2.0,
      "SmallestImagePixelValue": 0,
      "SoftwareVersions": "syngo MR E11",
      "SpacingBetweenSlices": 2.0000000254196,
      "SpecificCharacterSet": "ISO_IR 100",
      "StudyID": "1",
      "StudyTime": "124412.533000",
      "TransmitCoilName": "Body",
      "VariableFlipAngleFlag": "N",
      "WindowCenterWidthExplanation": "Algo1",
      "dBdt": 0.0},
    "slices": {}
  },
  "time": {
    "samples": {
      "AcquisitionNumber": [1, 2, 3, 4, 5, 6, 7, 8, 9, 10, 11, 12, 13, 14, 15, 16, 17, 18, 19, 20, 21, 22, 23, 24, 25, 26, 27, 28, 29, 30, 31, 32, 33, 34, 35, 36, 37, 38, 39, 40, 41, 42, 43, 44, 45, 46, 47, 48, 49, 50, 51, 52, 53, 54, 55, 56, 57, 58, 59, 60, 61, 62, 63, 64, 65, 66, 67, 68, 69, 70, 71, 72, 73, 74, 75, 76, 77, 78, 79, 80, 81, 82, 83, 84, 85, 86, 87, 88, 89, 90, 91, 92, 93, 94, 95, 96, 97, 98, 99, 100, 101, 102, 103, 104, 105, 106, 107, 108, 109, 110, 111, 112, 113, 114, 115, 116, 117, 118, 119, 120, 121, 122, 123, 124, 125, 126, 127, 128, 129, 130, 131, 132, 133, 134, 135, 136, 137, 138, 139, 140, 141, 142, 143, 144, 145, 146, 147, 148, 149, 150, 151, 152, 153, 154, 155, 156, 157, 158, 159, 160, 161, 162, 163, 164, 165, 166, 167, 168, 169, 170, 171, 172, 173, 174, 175, 176, 177, 178, 179, 180, 181, 182, 183, 184, 185, 186, 187, 188, 189, 190, 191, 192, 193, 194, 195, 196, 197, 198, 199, 200, 201, 202, 203, 204, 205, 206, 207, 208, 209, 210, 211, 212, 213, 214, 215, 216, 217, 218, 219, 220, 221, 222, 223, 224, 225, 226, 227, 228, 229, 230, 231, 232],
      "AcquisitionTime": ["125609.317500", "125611.317500", "125613.317500", "125615.317500", "125617.317500", "125619.317500", "125621.317500", "125623.317500", "125625.317500", "125627.317500", "125629.317500", "125631.317500", "125633.317500", "125635.317500", "125637.317500", "125639.317500", "125641.317500", "125643.317500", "125645.317500", "125647.317500", "125649.317500", "125651.317500", "125653.317500", "125655.317500", "125657.317500", "125659.317500", "125701.317500", "125703.317500", "125705.317500", "125707.317500", "125709.317500", "125711.317500", "125713.317500", "125715.317500", "125717.317500", "125719.317500", "125721.317500", "125723.317500", "125725.317500", "125727.317500", "125729.317500", "125731.317500", "125733.317500", "125735.317500", "125737.317500", "125739.317500", "125741.317500", "125743.317500", "125745.317500", "125747.317500", "125749.317500", "125751.317500", "125753.317500", "125755.317500", "125757.317500", "125759.317500", "125801.317500", "125803.317500", "125805.317500", "125807.317500", "125809.317500", "125811.317500", "125813.317500", "125815.317500", "125817.317500", "125819.317500", "125821.317500", "125823.317500", "125825.317500", "125827.317500", "125829.317500", "125831.317500", "125833.317500", "125835.317500", "125837.317500", "125839.317500", "125841.317500", "125843.317500", "125845.317500", "125847.317500", "125849.317500", "125851.317500", "125853.317500", "125855.317500", "125857.317500", "125859.317500", "125901.317500", "125903.317500", "125905.317500", "125907.317500", "125909.317500", "125911.317500", "125913.317500", "125915.317500", "125917.317500", "125919.317500", "125921.317500", "125923.317500", "125925.317500", "125927.317500", "125929.317500", "125931.317500", "125933.317500", "125935.317500", "125937.317500", "125939.317500", "125941.317500", "125943.317500", "125945.317500", "125947.317500", "125949.317500", "125951.317500", "125953.317500", "125955.317500", "125957.317500", "125959.317500", "130001.317500", "130003.317500", "130005.317500", "130007.317500", "130009.317500", "130011.317500", "130013.317500", "130015.317500", "130017.317500", "130019.317500", "130021.317500", "130023.317500", "130025.317500", "130027.317500", "130029.317500", "130031.317500", "130033.317500", "130035.317500", "130037.317500", "130039.317500", "130041.317500", "130043.317500", "130045.317500", "130047.317500", "130049.317500", "130051.317500", "130053.317500", "130055.317500", "130057.317500", "130059.317500", "130101.317500", "130103.317500", "130105.317500", "130107.317500", "130109.317500", "130111.317500", "130113.317500", "130115.317500", "130117.317500", "130119.317500", "130121.317500", "130123.317500", "130125.317500", "130127.317500", "130129.317500", "130131.317500", "130133.317500", "130135.317500", "130137.317500", "130139.317500", "130141.317500", "130143.317500", "130145.317500", "130147.317500", "130149.317500", "130151.317500", "130153.317500", "130155.317500", "130157.317500", "130159.317500", "130201.317500", "130203.317500", "130205.317500", "130207.317500", "130209.317500", "130211.317500", "130213.317500", "130215.317500", "130217.317500", "130219.317500", "130221.317500", "130223.317500", "130225.317500", "130227.317500", "130229.317500", "130231.317500", "130233.317500", "130235.317500", "130237.317500", "130239.317500", "130241.317500", "130243.317500", "130245.317500", "130247.317500", "130249.317500", "130251.317500", "130253.317500", "130255.317500", "130257.317500", "130259.317500", "130301.317500", "130303.317500", "130305.317500", "130307.317500", "130309.317500", "130311.317500", "130313.317500", "130315.317500", "130317.317500", "130319.317500", "130321.317500", "130323.317500", "130325.317500", "130327.317500", "130329.317500", "130331.317500", "130333.317500", "130335.317500", "130337.317500", "130339.317500", "130341.317500", "130343.317500", "130345.317500", "130347.317500", "130349.317500", "130351.317500"],
      "ContentTime": ["125612.509000", "125613.504000", "125615.504000", "125617.505000", "125619.504000", "125621.503000", "125623.503000", "125625.504000", "125627.504000", "125629.503000", "125631.504000", "125633.505000", "125635.504000", "125637.503000", "125639.503000", "125641.503000", "125643.503000", "125645.503000", "125647.503000", "125649.505000", "125651.504000", "125653.503000", "125655.504000", "125657.503000", "125659.503000", "125701.503000", "125703.503000", "125705.503000", "125707.504000", "125709.505000", "125711.503000", "125713.503000", "125715.503000", "125717.504000", "125719.503000", "125721.503000", "125723.504000", "125725.505000", "125727.504000", "125729.503000", "125731.503000", "125733.503000", "125735.504000", "125737.503000", "125739.503000", "125741.505000", "125743.504000", "125745.504000", "125747.503000", "125749.503000", "125751.503000", "125753.503000", "125755.503000", "125757.504000", "125759.505000", "125801.504000", "125803.503000", "125805.503000", "125807.503000", "125809.503000", "125811.504000", "125813.504000", "125815.503000", "125817.504000", "125819.505000", "125821.503000", "125823.503000", "125825.503000", "125827.503000", "125829.503000", "125831.503000", "125833.504000", "125835.524000", "125837.505000", "125839.503000", "125841.503000", "125843.504000", "125845.504000", "125847.503000", "125849.503000", "125851.504000", "125853.504000", "125855.504000", "125857.503000", "125859.503000", "125901.504000", "125903.503000", "125905.503000", "125907.504000", "125909.505000", "125911.505000", "125913.503000", "125915.504000", "125917.503000", "125919.503000", "125921.504000", "125923.503000", "125925.503000", "125927.505000", "125929.504000", "125931.503000", "125933.503000", "125935.504000", "125937.503000", "125939.503000", "125941.503000", "125943.505000", "125945.504000", "125947.504000", "125949.504000", "125951.503000", "125953.503000", "125955.503000", "125957.503000", "125959.503000", "130001.504000", "130003.504000", "130005.504000", "130007.503000", "130009.504000", "130011.503000", "130013.503000", "130015.503000", "130017.504000", "130019.504000", "130021.505000", "130023.503000", "130025.503000", "130027.503000", "130029.503000", "130031.503000", "130033.504000", "130035.513000", "130037.504000", "130039.504000", "130041.503000", "130043.504000", "130045.503000", "130047.523000", "130049.503000", "130051.504000", "130053.504000", "130055.504000", "130057.504000", "130059.503000", "130101.503000", "130103.503000", "130105.503000", "130107.503000", "130109.503000", "130111.504000", "130113.504000", "130115.504000", "130117.503000", "130119.503000", "130121.503000", "130123.504000", "130125.503000", "130127.503000", "130129.504000", "130131.504000", "130133.503000", "130135.503000", "130137.503000", "130139.503000", "130141.503000", "130143.503000", "130145.503000", "130147.505000", "130149.504000", "130151.503000", "130153.503000", "130155.504000", "130157.504000", "130159.504000", "130201.503000", "130203.504000", "130205.504000", "130207.504000", "130209.503000", "130211.503000", "130213.503000", "130215.503000", "130217.504000", "130219.503000", "130221.505000", "130223.505000", "130225.505000", "130227.523000", "130229.504000", "130231.503000", "130233.503000", "130235.503000", "130237.503000", "130239.504000", "130241.505000", "130243.503000", "130245.504000", "130247.503000", "130249.504000", "130251.504000", "130253.503000", "130255.504000", "130257.505000", "130259.505000", "130301.503000", "130303.504000", "130305.504000", "130307.504000", "130309.503000", "130311.504000", "130313.504000", "130315.504000", "130317.504000", "130319.504000", "130321.503000", "130323.503000", "130325.503000", "130327.503000", "130329.503000", "130331.505000", "130333.504000", "130335.504000", "130337.503000", "130339.504000", "130341.504000", "130343.503000", "130345.503000", "130347.503000", "130349.504000", "130351.504000", "130353.302000"],
      "InstanceCreationTime": ["125612.509000", "125613.504000", "125615.504000", "125617.505000", "125619.504000", "125621.503000", "125623.503000", "125625.504000", "125627.504000", "125629.503000", "125631.504000", "125633.505000", "125635.504000", "125637.503000", "125639.503000", "125641.503000", "125643.503000", "125645.503000", "125647.503000", "125649.505000", "125651.504000", "125653.503000", "125655.504000", "125657.503000", "125659.503000", "125701.503000", "125703.503000", "125705.503000", "125707.504000", "125709.505000", "125711.503000", "125713.503000", "125715.503000", "125717.504000", "125719.503000", "125721.503000", "125723.504000", "125725.505000", "125727.504000", "125729.503000", "125731.503000", "125733.503000", "125735.504000", "125737.503000", "125739.503000", "125741.505000", "125743.504000", "125745.504000", "125747.503000", "125749.503000", "125751.503000", "125753.503000", "125755.503000", "125757.504000", "125759.505000", "125801.504000", "125803.503000", "125805.503000", "125807.503000", "125809.503000", "125811.504000", "125813.504000", "125815.503000", "125817.504000", "125819.505000", "125821.503000", "125823.503000", "125825.503000", "125827.503000", "125829.503000", "125831.503000", "125833.504000", "125835.524000", "125837.505000", "125839.503000", "125841.503000", "125843.504000", "125845.504000", "125847.503000", "125849.503000", "125851.504000", "125853.504000", "125855.504000", "125857.503000", "125859.503000", "125901.504000", "125903.503000", "125905.503000", "125907.504000", "125909.505000", "125911.505000", "125913.503000", "125915.504000", "125917.503000", "125919.503000", "125921.504000", "125923.503000", "125925.503000", "125927.505000", "125929.504000", "125931.503000", "125933.503000", "125935.504000", "125937.503000", "125939.503000", "125941.503000", "125943.505000", "125945.504000", "125947.504000", "125949.504000", "125951.503000", "125953.503000", "125955.503000", "125957.503000", "125959.503000", "130001.504000", "130003.504000", "130005.504000", "130007.503000", "130009.504000", "130011.503000", "130013.503000", "130015.503000", "130017.504000", "130019.504000", "130021.505000", "130023.503000", "130025.503000", "130027.503000", "130029.503000", "130031.503000", "130033.504000", "130035.513000", "130037.504000", "130039.504000", "130041.503000", "130043.504000", "130045.503000", "130047.523000", "130049.503000", "130051.504000", "130053.504000", "130055.504000", "130057.504000", "130059.503000", "130101.503000", "130103.503000", "130105.503000", "130107.503000", "130109.503000", "130111.504000", "130113.504000", "130115.504000", "130117.503000", "130119.503000", "130121.503000", "130123.504000", "130125.503000", "130127.503000", "130129.504000", "130131.504000", "130133.503000", "130135.503000", "130137.503000", "130139.503000", "130141.503000", "130143.503000", "130145.503000", "130147.505000", "130149.504000", "130151.503000", "130153.503000", "130155.504000", "130157.504000", "130159.504000", "130201.503000", "130203.504000", "130205.504000", "130207.504000", "130209.503000", "130211.503000", "130213.503000", "130215.503000", "130217.504000", "130219.503000", "130221.505000", "130223.505000", "130225.505000", "130227.523000", "130229.504000", "130231.503000", "130233.503000", "130235.503000", "130237.503000", "130239.504000", "130241.505000", "130243.503000", "130245.504000", "130247.503000", "130249.504000", "130251.504000", "130253.503000", "130255.504000", "130257.505000", "130259.505000", "130301.503000", "130303.504000", "130305.504000", "130307.504000", "130309.503000", "130311.504000", "130313.504000", "130315.504000", "130317.504000", "130319.504000", "130321.503000", "130323.503000", "130325.503000", "130327.503000", "130329.503000", "130331.505000", "130333.504000", "130335.504000", "130337.503000", "130339.504000", "130341.504000", "130343.503000", "130345.503000", "130347.503000", "130349.504000", "130351.504000", "130353.302000"],
      "InstanceNumber": [1, 2, 3, 4, 5, 6, 7, 8, 9, 10, 11, 12, 13, 14, 15, 16, 17, 18, 19, 20, 21, 22, 23, 24, 25, 26, 27, 28, 29, 30, 31, 32, 33, 34, 35, 36, 37, 38, 39, 40, 41, 42, 43, 44, 45, 46, 47, 48, 49, 50, 51, 52, 53, 54, 55, 56, 57, 58, 59, 60, 61, 62, 63, 64, 65, 66, 67, 68, 69, 70, 71, 72, 73, 74, 75, 76, 77, 78, 79, 80, 81, 82, 83, 84, 85, 86, 87, 88, 89, 90, 91, 92, 93, 94, 95, 96, 97, 98, 99, 100, 101, 102, 103, 104, 105, 106, 107, 108, 109, 110, 111, 112, 113, 114, 115, 116, 117, 118, 119, 120, 121, 122, 123, 124, 125, 126, 127, 128, 129, 130, 131, 132, 133, 134, 135, 136, 137, 138, 139, 140, 141, 142, 143, 144, 145, 146, 147, 148, 149, 150, 151, 152, 153, 154, 155, 156, 157, 158, 159, 160, 161, 162, 163, 164, 165, 166, 167, 168, 169, 170, 171, 172, 173, 174, 175, 176, 177, 178, 179, 180, 181, 182, 183, 184, 185, 186, 187, 188, 189, 190, 191, 192, 193, 194, 195, 196, 197, 198, 199, 200, 201, 202, 203, 204, 205, 206, 207, 208, 209, 210, 211, 212, 213, 214, 215, 216, 217, 218, 219, 220, 221, 222, 223, 224, 225, 226, 227, 228, 229, 230, 231, 232],
      "LargestImagePixelValue": [2965, 2937, 2890, 2862, 2918, 2863, 2883, 2923, 2883, 2887, 2956, 2926, 2924, 2895, 2909, 2930, 2961, 2925, 2855, 2927, 2865, 2889, 2870, 2841, 2898, 2831, 2864, 2836, 2876, 2899, 2868, 2883, 2846, 2860, 2843, 2821, 2812, 2819, 2875, 2822, 2884, 2885, 2693, 2763, 2851, 2806, 2736, 2690, 2877, 2849, 2880, 2772, 2893, 2956, 2893, 2882, 2911, 2871, 2867, 2912, 2893, 2851, 2889, 2814, 2801, 2874, 2908, 2855, 2864, 2855, 2888, 2894, 2853, 2927, 2895, 2905, 2889, 2874, 2877, 2902, 2885, 2880, 2983, 2922, 2924, 2872, 2873, 2908, 2870, 2917, 2966, 2902, 2953, 2878, 2845, 2926, 2844, 2851, 2803, 2818, 2870, 2848, 2897, 2876, 2965, 3009, 2728, 2951, 2941, 2939, 2762, 2678, 2833, 2923, 2854, 2903, 2895, 2815, 2876, 2803, 2762, 2957, 2840, 2794, 2691, 2792, 2980, 2849, 2802, 2815, 2820, 2750, 2730, 2705, 2734, 2776, 2764, 2816, 2844, 2743, 2765, 2829, 2845, 2785, 2761, 2838, 2804, 2812, 2814, 2843, 2807, 2792, 2808, 2850, 2827, 2790, 2803, 2774, 2795, 2775, 2793, 2765, 2752, 2762, 2782, 2849, 2736, 2800, 2913, 2847, 2793, 2879, 2849, 2820, 2869, 2853, 2824, 2734, 2879, 2812, 2837, 2836, 2793, 2835, 2767, 3027, 2761, 2782, 2915, 2734, 2894, 2743, 2859, 2800, 2797, 2852, 2738, 2825, 2802, 2832, 2849, 2855, 2798, 2849, 2832, 2892, 2909, 2851, 2968, 2908, 2897, 2831, 2869, 2897, 2921, 2851, 2897, 2936, 2751, 2757, 2805, 2818, 2760, 2801, 2739, 2725, 2835, 2856, 2863, 2791, 2828, 2874],
      "WindowCenter": [726.0, 725.0, 724.0, 724.0, 725.0, 724.0, 726.0, 726.0, 725.0, 725.0, 726.0, 727.0, 725.0, 725.0, 724.0, 725.0, 725.0, 723.0, 723.0, 723.0, 723.0, 724.0, 724.0, 723.0, 725.0, 723.0, 724.0, 725.0, 725.0, 725.0, 724.0, 724.0, 724.0, 726.0, 724.0, 725.0, 724.0, 724.0, 725.0, 724.0, 723.0, 723.0, 720.0, 722.0, 724.0, 723.0, 722.0, 720.0, 723.0, 723.0, 724.0, 721.0, 725.0, 725.0, 724.0, 725.0, 725.0, 726.0, 726.0, 726.0, 726.0, 724.0, 725.0, 726.0, 724.0, 725.0, 724.0, 723.0, 724.0, 723.0, 724.0, 724.0, 723.0, 726.0, 726.0, 726.0, 726.0, 725.0, 724.0, 725.0, 723.0, 724.0, 725.0, 726.0, 725.0, 723.0, 725.0, 726.0, 726.0, 727.0, 727.0, 727.0, 728.0, 725.0, 725.0, 727.0, 724.0, 726.0, 724.0, 725.0, 725.0, 724.0, 724.0, 723.0, 724.0, 725.0, 721.0, 724.0, 724.0, 723.0, 721.0, 719.0, 721.0, 722.0, 721.0, 722.0, 723.0, 723.0, 724.0, 723.0, 722.0, 724.0, 723.0, 724.0, 722.0, 724.0, 722.0, 723.0, 724.0, 724.0, 723.0, 722.0, 722.0, 721.0, 721.0, 720.0, 719.0, 720.0, 721.0, 720.0, 720.0, 720.0, 720.0, 721.0, 720.0, 722.0, 723.0, 719.0, 720.0, 721.0, 719.0, 721.0, 725.0, 726.0, 726.0, 727.0, 726.0, 725.0, 723.0, 721.0, 722.0, 721.0, 721.0, 721.0, 721.0, 722.0, 719.0, 721.0, 722.0, 722.0, 722.0, 721.0, 722.0, 721.0, 721.0, 721.0, 720.0, 719.0, 722.0, 720.0, 721.0, 721.0, 721.0, 722.0, 720.0, 723.0, 721.0, 720.0, 723.0, 717.0, 720.0, 721.0, 717.0, 718.0, 721.0, 722.0, 720.0, 720.0, 719.0, 720.0, 719.0, 720.0, 721.0, 720.0, 721.0, 720.0, 719.0, 720.0, 720.0, 720.0, 721.0, 719.0, 721.0, 722.0, 723.0, 722.0, 722.0, 723.0, 723.0, 721.0, 722.0, 719.0, 719.0, 718.0, 718.0, 717.0, 719.0, 719.0, 719.0, 718.0, 720.0, 721.0],
      "WindowWidth": [1548.0, 1544.0, 1541.0, 1543.0, 1544.0, 1543.0, 1549.0, 1548.0, 1545.0, 1544.0, 1548.0, 1550.0, 1546.0, 1546.0, 1543.0, 1545.0, 1544.0, 1540.0, 1540.0, 1541.0, 1539.0, 1542.0, 1543.0, 1540.0, 1544.0, 1541.0, 1544.0, 1544.0, 1544.0, 1545.0, 1542.0, 1544.0, 1542.0, 1546.0, 1541.0, 1544.0, 1543.0, 1542.0, 1545.0, 1541.0, 1540.0, 1541.0, 1533.0, 1538.0, 1541.0, 1541.0, 1538.0, 1534.0, 1541.0, 1539.0, 1542.0, 1536.0, 1544.0, 1544.0, 1541.0, 1544.0, 1544.0, 1545.0, 1546.0, 1545.0, 1544.0, 1542.0, 1543.0, 1546.0, 1543.0, 1544.0, 1541.0, 1539.0, 1542.0, 1540.0, 1542.0, 1542.0, 1540.0, 1546.0, 1547.0, 1547.0, 1546.0, 1544.0, 1543.0, 1544.0, 1541.0, 1542.0, 1545.0, 1547.0, 1545.0, 1540.0, 1545.0, 1548.0, 1548.0, 1550.0, 1549.0, 1548.0, 1551.0, 1544.0, 1543.0, 1549.0, 1544.0, 1547.0, 1544.0, 1546.0, 1545.0, 1543.0, 1543.0, 1541.0, 1544.0, 1545.0, 1537.0, 1543.0, 1541.0, 1540.0, 1536.0, 1531.0, 1535.0, 1537.0, 1535.0, 1538.0, 1538.0, 1541.0, 1542.0, 1539.0, 1538.0, 1542.0, 1540.0, 1543.0, 1538.0, 1543.0, 1537.0, 1539.0, 1543.0, 1543.0, 1542.0, 1539.0, 1538.0, 1536.0, 1534.0, 1533.0, 1529.0, 1533.0, 1535.0, 1532.0, 1533.0, 1531.0, 1531.0, 1535.0, 1533.0, 1538.0, 1539.0, 1531.0, 1532.0, 1536.0, 1530.0, 1536.0, 1545.0, 1547.0, 1548.0, 1551.0, 1549.0, 1544.0, 1539.0, 1536.0, 1538.0, 1534.0, 1535.0, 1534.0, 1534.0, 1538.0, 1531.0, 1536.0, 1538.0, 1537.0, 1537.0, 1535.0, 1536.0, 1535.0, 1534.0, 1535.0, 1532.0, 1531.0, 1537.0, 1532.0, 1535.0, 1534.0, 1536.0, 1539.0, 1533.0, 1538.0, 1536.0, 1534.0, 1541.0, 1527.0, 1532.0, 1534.0, 1527.0, 1528.0, 1536.0, 1536.0, 1532.0, 1531.0, 1529.0, 1532.0, 1530.0, 1532.0, 1535.0, 1533.0, 1535.0, 1532.0, 1529.0, 1531.0, 1532.0, 1531.0, 1534.0, 1530.0, 1534.0, 1538.0, 1539.0, 1536.0, 1536.0, 1540.0, 1540.0, 1535.0, 1536.0, 1530.0, 1530.0, 1527.0, 1527.0, 1526.0, 1528.0, 1529.0, 1528.0, 1526.0, 1531.0, 1532.0]
    },
    "slices": {}
  }
}