{
  "AcquisitionMatrixPE": 100,
  "AcquisitionNumber": 1,
  "AcquisitionTime": "12:47:41.205000",
  "BandwidthPerPixelPhaseEncode": 18.519,
  "BaseResolution": 100,
  "BodyPartExamined": "BRAIN",
  "ConsistencyInfo": "N4_VE11C_LATEST_20160120",
  "ConversionSoftware": "dcm2niix",
  "ConversionSoftwareVersion": "v1.0.20180622 GCC4.9.2",
  "DerivedVendorReportedEchoSpacing": 0.000539986,
  "DeviceSerialNumber": "166078",
  "DwellTime": 2.1e-06,
  "EchoTime": 0.034,
  "EchoTrainLength": 100,
  "EffectiveEchoSpacing": 0.000539986,
  "FlipAngle": 90,
  "ImageOrientationPatientDICOM": [1, 0, 0, 0, 0.971134, -0.238533],
  "ImageType": [
    "ORIGINAL",
    "PRIMARY",
    "M",
    "ND",
    "MOSAIC"
],
  "InPlanePhaseEncodingDirectionDICOM": "COL",
  "InstitutionAddress": "Street_StreetNo_Bei_Jing_District_CN_ZIP",
  "InstitutionName": "BeiJing_Normal_University",
  "InstitutionalDepartmentName": "Department",
  "MRAcquisitionType": "2D",
  "MagneticFieldStrength": 3,
  "Manufacturer": "Siemens",
  "ManufacturersModelName": "Prisma",
  "Modality": "MR",
  "MultibandAccelerationFactor": 3,
  "PartialFourier": 1,
  "PatientPosition": "HFS",
  "PercentPhaseFOV": 100,
  "PhaseEncodingDirection": "j-",
  "PhaseEncodingSteps": 100,
  "PhaseResolution": 1,
  "PixelBandwidth": 2380,
  "ProcedureStepDescription": "BNU_P2018_64CH_Liu.Jia",
  "ProtocolName": "bold_100x100_s3_2x2x2_232",
  "PulseSequenceDetails": "%SiemensSeq%_ep2d_bold",
  "ReceiveCoilActiveElements": "HC1-7;NC1",
  "ReceiveCoilName": "HeadNeck_64",
  "ReconMatrixPE": 100,
  "RepetitionTime": 2,
  "SAR": 0.0854914,
  "ScanOptions": "FS",
  "ScanningSequence": "EP",
  "SequenceName": "_epfid2d1_100",
  "SequenceVariant": "SK",
  "SeriesDescription": "bold_100x100_s3_2x2x2_232",
  "SeriesNumber": 3,
  "ShimSetting": [-5468, -11485, -1241, 381, -16, -306, -27, 43],
  "SliceThickness": 2,
  "SliceTiming": [1.485, 0, 0.99, 0.0825, 1.0725, 0.165, 1.155, 0.2475, 1.2375, 0.33, 1.32, 0.4125, 1.4025, 0.5775, 1.5675, 0.66, 1.65, 0.7425, 1.7325, 0.825, 1.8125, 0.9075, 1.895, 0.495, 1.485, 0, 0.99, 0.0825, 1.0725, 0.165, 1.155, 0.2475, 1.2375, 0.33, 1.32, 0.4125, 1.4025, 0.5775, 1.5675, 0.66, 1.65, 0.7425, 1.7325, 0.825, 1.8125, 0.9075, 1.895, 0.495, 1.485, 0, 0.99, 0.0825, 1.0725, 0.165, 1.155, 0.2475, 1.2375, 0.33, 1.32, 0.4125, 1.4025, 0.5775, 1.5675, 0.66, 1.65, 0.7425, 1.7325, 0.825, 1.8125, 0.9075, 1.895, 0.495],
  "SoftwareVersions": "syngo_MR_E11",
  "SpacingBetweenSlices": 2,
  "StationName": "AWP166078",
  "TaskName": "motor",
  "TotalReadoutTime": 0.0534586,
  "TxRefAmp": 244.423,
  "dcmmeta_affine": [
    [-2.0, 0.0, 0.0, 100.0],
    [0.0, 1.9422686100006104, -0.4770669639110565, -72.95817565917969],
    [0.0, 0.47706693410873413, 1.9422686100006104, -80.18223571777344],
    [0.0, 0.0, 0.0, 1.0]
],
  "dcmmeta_reorient_transform": [
    [0.0, -1.0, 0.0, 99.0],
    [1.0, 0.0, 0.0, 0.0],
    [0.0, 0.0, 1.0, 0.0],
    [0.0, 0.0, 0.0, 1.0]
],
  "dcmmeta_shape": [100, 100, 72, 232],
  "dcmmeta_slice_dim": 2,
  "dcmmeta_version": 0.6,
  "global": {
    "const": {
      "AcquisitionMatrix": [100, 0, 0, 100],
      "AngioFlag": "N",
      "BitsAllocated": 16,
      "BitsStored": 12,
      "BodyPartExamined": "BRAIN",
      "Columns": 900,
      "EchoNumbers": 1,
      "EchoTime": 34.0,
      "EchoTrainLength": 100,
      "FlipAngle": 90.0,
      "HighBit": 11,
      "ImageOrientationPatient": [1.0, 0.0, 0.0, 0.0, 0.97113427618897, -0.2385334727264],
      "ImagePositionPatient": [-900.0, -896.23383265516, 157.87417147428],
      "ImageType": [
        "ORIGINAL",
        "PRIMARY",
        "M",
        "ND",
        "MOSAIC"
],
      "ImagedNucleus": "1H",
      "ImagingFrequency": 123.257784,
      "InPlanePhaseEncodingDirection": "COL",
      "MRAcquisitionType": "2D",
      "MagneticFieldStrength": 3.0,
      "Manufacturer": "SIEMENS",
      "ManufacturerModelName": "Prisma",
      "Modality": "MR",
      "NumberOfAverages": 1.0,
      "NumberOfPhaseEncodingSteps": 100,
      "PercentPhaseFieldOfView": 100.0,
      "PercentSampling": 100.0,
      "PerformedProcedureStepStartTime": "124412.632000",
      "PhotometricInterpretation": "MONOCHROME2",
      "PixelBandwidth": 2380.0,
      "PixelRepresentation": 0,
      "PixelSpacing": [2.0, 2.0],
      "ProtocolName": "bold_100x100_s3_2x2x2_232",
      "RepetitionTime": 2000.0,
      "Rows": 900,
      "SAR": 0.08549136631308,
      "SamplesPerPixel": 1,
      "ScanOptions": "FS",
      "ScanningSequence": "EP",
      "SequenceName": "*epfid2d1_100",
      "SequenceVariant": "SK",
      "SeriesDescription": "bold_100x100_s3_2x2x2_232",
      "SeriesNumber": 3,
      "SeriesTime": "124743.670000",
      "SliceLocation": -60.46474923453,
      "SliceThickness": 2.0,
      "SmallestImagePixelValue": 0,
      "SoftwareVersions": "syngo MR E11",
      "SpacingBetweenSlices": 2.0000000254196,
      "SpecificCharacterSet": "ISO_IR 100",
      "StudyID": "1",
      "StudyTime": "124412.533000",
      "TransmitCoilName": "Body",
      "VariableFlipAngleFlag": "N",
      "WindowCenterWidthExplanation": "Algo1",
      "dBdt": 0.0},
    "slices": {}
  },
  "time": {
    "samples": {
      "AcquisitionNumber": [1, 2, 3, 4, 5, 6, 7, 8, 9, 10, 11, 12, 13, 14, 15, 16, 17, 18, 19, 20, 21, 22, 23, 24, 25, 26, 27, 28, 29, 30, 31, 32, 33, 34, 35, 36, 37, 38, 39, 40, 41, 42, 43, 44, 45, 46, 47, 48, 49, 50, 51, 52, 53, 54, 55, 56, 57, 58, 59, 60, 61, 62, 63, 64, 65, 66, 67, 68, 69, 70, 71, 72, 73, 74, 75, 76, 77, 78, 79, 80, 81, 82, 83, 84, 85, 86, 87, 88, 89, 90, 91, 92, 93, 94, 95, 96, 97, 98, 99, 100, 101, 102, 103, 104, 105, 106, 107, 108, 109, 110, 111, 112, 113, 114, 115, 116, 117, 118, 119, 120, 121, 122, 123, 124, 125, 126, 127, 128, 129, 130, 131, 132, 133, 134, 135, 136, 137, 138, 139, 140, 141, 142, 143, 144, 145, 146, 147, 148, 149, 150, 151, 152, 153, 154, 155, 156, 157, 158, 159, 160, 161, 162, 163, 164, 165, 166, 167, 168, 169, 170, 171, 172, 173, 174, 175, 176, 177, 178, 179, 180, 181, 182, 183, 184, 185, 186, 187, 188, 189, 190, 191, 192, 193, 194, 195, 196, 197, 198, 199, 200, 201, 202, 203, 204, 205, 206, 207, 208, 209, 210, 211, 212, 213, 214, 215, 216, 217, 218, 219, 220, 221, 222, 223, 224, 225, 226, 227, 228, 229, 230, 231, 232],
      "AcquisitionTime": ["124741.205000", "124743.205000", "124745.205000", "124747.205000", "124749.205000", "124751.205000", "124753.205000", "124755.205000", "124757.205000", "124759.205000", "124801.205000", "124803.205000", "124805.205000", "124807.205000", "124809.205000", "124811.205000", "124813.205000", "124815.205000", "124817.205000", "124819.205000", "124821.205000", "124823.205000", "124825.205000", "124827.205000", "124829.205000", "124831.205000", "124833.205000", "124835.205000", "124837.205000", "124839.205000", "124841.205000", "124843.205000", "124845.205000", "124847.205000", "124849.205000", "124851.205000", "124853.205000", "124855.205000", "124857.205000", "124859.205000", "124901.205000", "124903.205000", "124905.205000", "124907.205000", "124909.205000", "124911.205000", "124913.205000", "124915.205000", "124917.205000", "124919.205000", "124921.205000", "124923.205000", "124925.205000", "124927.205000", "124929.205000", "124931.205000", "124933.205000", "124935.205000", "124937.205000", "124939.205000", "124941.205000", "124943.205000", "124945.205000", "124947.205000", "124949.205000", "124951.205000", "124953.205000", "124955.205000", "124957.205000", "124959.205000", "125001.205000", "125003.205000", "125005.205000", "125007.205000", "125009.205000", "125011.205000", "125013.205000", "125015.205000", "125017.205000", "125019.205000", "125021.205000", "125023.205000", "125025.205000", "125027.205000", "125029.205000", "125031.205000", "125033.205000", "125035.205000", "125037.205000", "125039.205000", "125041.205000", "125043.205000", "125045.205000", "125047.205000", "125049.205000", "125051.205000", "125053.205000", "125055.205000", "125057.205000", "125059.205000", "125101.205000", "125103.205000", "125105.205000", "125107.205000", "125109.205000", "125111.205000", "125113.205000", "125115.205000", "125117.205000", "125119.205000", "125121.205000", "125123.205000", "125125.205000", "125127.205000", "125129.205000", "125131.205000", "125133.205000", "125135.205000", "125137.205000", "125139.205000", "125141.205000", "125143.205000", "125145.205000", "125147.205000", "125149.205000", "125151.205000", "125153.205000", "125155.205000", "125157.205000", "125159.205000", "125201.205000", "125203.205000", "125205.205000", "125207.205000", "125209.205000", "125211.205000", "125213.205000", "125215.205000", "125217.205000", "125219.205000", "125221.205000", "125223.205000", "125225.205000", "125227.205000", "125229.205000", "125231.205000", "125233.205000", "125235.205000", "125237.205000", "125239.205000", "125241.205000", "125243.205000", "125245.205000", "125247.205000", "125249.205000", "125251.205000", "125253.205000", "125255.205000", "125257.205000", "125259.205000", "125301.205000", "125303.205000", "125305.205000", "125307.205000", "125309.205000", "125311.205000", "125313.205000", "125315.205000", "125317.205000", "125319.205000", "125321.205000", "125323.205000", "125325.205000", "125327.205000", "125329.205000", "125331.205000", "125333.205000", "125335.205000", "125337.205000", "125339.205000", "125341.205000", "125343.205000", "125345.205000", "125347.205000", "125349.205000", "125351.205000", "125353.205000", "125355.205000", "125357.205000", "125359.205000", "125401.205000", "125403.205000", "125405.205000", "125407.205000", "125409.205000", "125411.205000", "125413.205000", "125415.205000", "125417.205000", "125419.205000", "125421.205000", "125423.205000", "125425.205000", "125427.205000", "125429.205000", "125431.205000", "125433.205000", "125435.205000", "125437.205000", "125439.205000", "125441.205000", "125443.205000", "125445.205000", "125447.205000", "125449.205000", "125451.205000", "125453.205000", "125455.205000", "125457.205000", "125459.205000", "125501.205000", "125503.205000", "125505.205000", "125507.205000", "125509.205000", "125511.205000", "125513.205000", "125515.205000", "125517.205000", "125519.205000", "125521.205000", "125523.205000"],
      "ContentTime": ["124743.674000", "124745.170000", "124747.170000", "124749.170000", "124751.171000", "124753.170000", "124755.170000", "124757.170000", "124759.169000", "124801.169000", "124803.169000", "124805.170000", "124807.170000", "124809.170000", "124811.170000", "124813.171000", "124815.171000", "124817.169000", "124819.169000", "124821.169000", "124823.170000", "124825.171000", "124827.170000", "124829.171000", "124831.170000", "124833.169000", "124835.169000", "124837.169000", "124839.170000", "124841.170000", "124843.170000", "124845.171000", "124847.170000", "124849.170000", "124851.170000", "124853.169000", "124855.169000", "124857.170000", "124859.170000", "124901.170000", "124903.170000", "124905.170000", "124907.170000", "124909.169000", "124911.169000", "124913.169000", "124915.170000", "124917.171000", "124919.170000", "124921.170000", "124923.170000", "124925.171000", "124927.169000", "124929.169000", "124931.170000", "124933.170000", "124935.171000", "124937.171000", "124939.170000", "124941.170000", "124943.169000", "124945.169000", "124947.169000", "124949.171000", "124951.170000", "124953.170000", "124955.170000", "124957.170000", "124959.170000", "125001.169000", "125003.169000", "125005.169000", "125007.170000", "125009.171000", "125011.170000", "125013.170000", "125015.171000", "125017.170000", "125019.169000", "125021.169000", "125023.169000", "125025.170000", "125027.171000", "125029.170000", "125031.190000", "125033.170000", "125035.170000", "125037.169000", "125039.169000", "125041.169000", "125043.170000", "125045.170000", "125047.171000", "125049.170000", "125051.170000", "125053.169000", "125055.169000", "125057.170000", "125059.170000", "125101.170000", "125103.170000", "125105.170000", "125107.170000", "125109.171000", "125111.169000", "125113.169000", "125115.169000", "125117.171000", "125119.170000", "125121.170000", "125123.170000", "125125.170000", "125127.171000", "125129.189000", "125131.169000", "125133.169000", "125135.170000", "125137.170000", "125139.170000", "125141.171000", "125143.170000", "125145.170000", "125147.170000", "125149.170000", "125151.169000", "125153.170000", "125155.170000", "125157.170000", "125159.170000", "125201.171000", "125203.169000", "125205.169000", "125207.170000", "125209.170000", "125211.170000", "125213.170000", "125215.170000", "125217.171000", "125219.170000", "125221.169000", "125223.169000", "125225.169000", "125227.170000", "125229.170000", "125231.170000", "125233.170000", "125235.171000", "125237.170000", "125239.170000", "125241.169000", "125243.169000", "125245.170000", "125247.171000", "125249.170000", "125251.170000", "125253.171000", "125255.171000", "125257.170000", "125259.169000", "125301.170000", "125303.170000", "125305.171000", "125307.171000", "125309.170000", "125311.170000", "125313.169000", "125315.170000", "125317.169000", "125319.170000", "125321.171000", "125323.170000", "125325.171000", "125327.170000", "125329.171000", "125331.170000", "125333.170000", "125335.170000", "125337.171000", "125339.170000", "125341.170000", "125343.171000", "125345.170000", "125347.171000", "125349.170000", "125351.169000", "125353.169000", "125355.170000", "125357.171000", "125359.171000", "125401.170000", "125403.170000", "125405.170000", "125407.169000", "125409.169000", "125411.170000", "125413.170000", "125415.170000", "125417.170000", "125419.171000", "125421.170000", "125423.169000", "125425.169000", "125427.190000", "125429.170000", "125431.171000", "125433.170000", "125435.171000", "125437.171000", "125439.171000", "125441.169000", "125443.169000", "125445.170000", "125447.171000", "125449.170000", "125451.171000", "125453.170000", "125455.171000", "125457.170000", "125459.170000", "125501.169000", "125503.169000", "125505.170000", "125507.170000", "125509.170000", "125511.170000", "125513.170000", "125515.171000", "125517.169000", "125519.170000", "125521.170000", "125523.170000", "125524.839000"],
      "InstanceCreationTime": ["124743.674000", "124745.170000", "124747.170000", "124749.170000", "124751.171000", "124753.170000", "124755.170000", "124757.170000", "124759.169000", "124801.169000", "124803.169000", "124805.170000", "124807.170000", "124809.170000", "124811.170000", "124813.171000", "124815.171000", "124817.169000", "124819.169000", "124821.169000", "124823.170000", "124825.171000", "124827.170000", "124829.171000", "124831.170000", "124833.169000", "124835.169000", "124837.169000", "124839.170000", "124841.170000", "124843.170000", "124845.171000", "124847.170000", "124849.170000", "124851.170000", "124853.169000", "124855.169000", "124857.170000", "124859.170000", "124901.170000", "124903.170000", "124905.170000", "124907.170000", "124909.169000", "124911.169000", "124913.169000", "124915.170000", "124917.171000", "124919.170000", "124921.170000", "124923.170000", "124925.171000", "124927.169000", "124929.169000", "124931.170000", "124933.170000", "124935.171000", "124937.171000", "124939.170000", "124941.170000", "124943.169000", "124945.169000", "124947.169000", "124949.171000", "124951.170000", "124953.170000", "124955.170000", "124957.170000", "124959.170000", "125001.169000", "125003.169000", "125005.169000", "125007.170000", "125009.171000", "125011.170000", "125013.170000", "125015.171000", "125017.170000", "125019.169000", "125021.169000", "125023.169000", "125025.170000", "125027.171000", "125029.170000", "125031.190000", "125033.170000", "125035.170000", "125037.169000", "125039.169000", "125041.169000", "125043.170000", "125045.170000", "125047.171000", "125049.170000", "125051.170000", "125053.169000", "125055.169000", "125057.170000", "125059.170000", "125101.170000", "125103.170000", "125105.170000", "125107.170000", "125109.171000", "125111.169000", "125113.169000", "125115.169000", "125117.171000", "125119.170000", "125121.170000", "125123.170000", "125125.170000", "125127.171000", "125129.189000", "125131.169000", "125133.169000", "125135.170000", "125137.170000", "125139.170000", "125141.171000", "125143.170000", "125145.170000", "125147.170000", "125149.170000", "125151.169000", "125153.170000", "125155.170000", "125157.170000", "125159.170000", "125201.171000", "125203.169000", "125205.169000", "125207.170000", "125209.170000", "125211.170000", "125213.170000", "125215.170000", "125217.171000", "125219.170000", "125221.169000", "125223.169000", "125225.169000", "125227.170000", "125229.170000", "125231.170000", "125233.170000", "125235.171000", "125237.170000", "125239.170000", "125241.169000", "125243.169000", "125245.170000", "125247.171000", "125249.170000", "125251.170000", "125253.171000", "125255.171000", "125257.170000", "125259.169000", "125301.170000", "125303.170000", "125305.171000", "125307.171000", "125309.170000", "125311.170000", "125313.169000", "125315.170000", "125317.169000", "125319.170000", "125321.171000", "125323.170000", "125325.171000", "125327.170000", "125329.171000", "125331.170000", "125333.170000", "125335.170000", "125337.171000", "125339.170000", "125341.170000", "125343.171000", "125345.170000", "125347.171000", "125349.170000", "125351.169000", "125353.169000", "125355.170000", "125357.171000", "125359.171000", "125401.170000", "125403.170000", "125405.170000", "125407.169000", "125409.169000", "125411.170000", "125413.170000", "125415.170000", "125417.170000", "125419.171000", "125421.170000", "125423.169000", "125425.169000", "125427.190000", "125429.170000", "125431.171000", "125433.170000", "125435.171000", "125437.171000", "125439.171000", "125441.169000", "125443.169000", "125445.170000", "125447.171000", "125449.170000", "125451.171000", "125453.170000", "125455.171000", "125457.170000", "125459.170000", "125501.169000", "125503.169000", "125505.170000", "125507.170000", "125509.170000", "125511.170000", "125513.170000", "125515.171000", "125517.169000", "125519.170000", "125521.170000", "125523.170000", "125524.839000"],
      "InstanceNumber": [1, 2, 3, 4, 5, 6, 7, 8, 9, 10, 11, 12, 13, 14, 15, 16, 17, 18, 19, 20, 21, 22, 23, 24, 25, 26, 27, 28, 29, 30, 31, 32, 33, 34, 35, 36, 37, 38, 39, 40, 41, 42, 43, 44, 45, 46, 47, 48, 49, 50, 51, 52, 53, 54, 55, 56, 57, 58, 59, 60, 61, 62, 63, 64, 65, 66, 67, 68, 69, 70, 71, 72, 73, 74, 75, 76, 77, 78, 79, 80, 81, 82, 83, 84, 85, 86, 87, 88, 89, 90, 91, 92, 93, 94, 95, 96, 97, 98, 99, 100, 101, 102, 103, 104, 105, 106, 107, 108, 109, 110, 111, 112, 113, 114, 115, 116, 117, 118, 119, 120, 121, 122, 123, 124, 125, 126, 127, 128, 129, 130, 131, 132, 133, 134, 135, 136, 137, 138, 139, 140, 141, 142, 143, 144, 145, 146, 147, 148, 149, 150, 151, 152, 153, 154, 155, 156, 157, 158, 159, 160, 161, 162, 163, 164, 165, 166, 167, 168, 169, 170, 171, 172, 173, 174, 175, 176, 177, 178, 179, 180, 181, 182, 183, 184, 185, 186, 187, 188, 189, 190, 191, 192, 193, 194, 195, 196, 197, 198, 199, 200, 201, 202, 203, 204, 205, 206, 207, 208, 209, 210, 211, 212, 213, 214, 215, 216, 217, 218, 219, 220, 221, 222, 223, 224, 225, 226, 227, 228, 229, 230, 231, 232],
      "LargestImagePixelValue": [3023, 2994, 2974, 2966, 2986, 2920, 2982, 2923, 2974, 2906, 2981, 2902, 2959, 3044, 2925, 2910, 3074, 2982, 2990, 2992, 2988, 3016, 2983, 3062, 3030, 2974, 2959, 2988, 2981, 3016, 3044, 3007, 3030, 2938, 3053, 3036, 3123, 3081, 3084, 3006, 3021, 3035, 3014, 2981, 2960, 2976, 2970, 2925, 2932, 3040, 3012, 3018, 3038, 3020, 3056, 3050, 3092, 3065, 3031, 3049, 2986, 3009, 3045, 3030, 2983, 2952, 3014, 2912, 2983, 2956, 2930, 2980, 2968, 2967, 2987, 2983, 2927, 2966, 3005, 2984, 3012, 2950, 2960, 2970, 2942, 2923, 2846, 2933, 2873, 2841, 2915, 2845, 2899, 2884, 2905, 2991, 2906, 2944, 2860, 2879, 2867, 2895, 2954, 2881, 2929, 2875, 2950, 2885, 2875, 2908, 2918, 2963, 2931, 3028, 2925, 2940, 2886, 2891, 2930, 2917, 2962, 2980, 2877, 2947, 3024, 2927, 2924, 2890, 2929, 2895, 2909, 2836, 2783, 2882, 2840, 2838, 2870, 2890, 3002, 2935, 2953, 2998, 2914, 3007, 2958, 2889, 2990, 2874, 2958, 2863, 2874, 2845, 2975, 3012, 2933, 2956, 2964, 3040, 2943, 3033, 2956, 2975, 2994, 2974, 3012, 2991, 2952, 3005, 3012, 3005, 3033, 3037, 3039, 3023, 3027, 3008, 3013, 3050, 3044, 3045, 3036, 3064, 3027, 3007, 3045, 3048, 2976, 3003, 2987, 2966, 2927, 2988, 3008, 2873, 2932, 2880, 2962, 2931, 2918, 2921, 2940, 2878, 2872, 2974, 2985, 2982, 3013, 3072, 2951, 2890, 2940, 2964, 2962, 2920, 2928, 2936, 2906, 2965, 2957, 2984, 2995, 2901, 2922, 2936, 2946, 2793, 2954, 2975, 2918, 2935, 2921, 2860],
      "WindowCenter": [730.0, 730.0, 730.0, 729.0, 728.0, 728.0, 728.0, 728.0, 727.0, 726.0, 729.0, 729.0, 729.0, 729.0, 729.0, 728.0, 732.0, 731.0, 733.0, 733.0, 732.0, 732.0, 731.0, 732.0, 731.0, 732.0, 732.0, 734.0, 734.0, 734.0, 734.0, 732.0, 733.0, 731.0, 732.0, 731.0, 732.0, 731.0, 730.0, 730.0, 731.0, 732.0, 732.0, 733.0, 732.0, 732.0, 731.0, 730.0, 731.0, 731.0, 730.0, 731.0, 731.0, 731.0, 731.0, 730.0, 731.0, 731.0, 731.0, 731.0, 729.0, 729.0, 730.0, 730.0, 729.0, 730.0, 730.0, 730.0, 730.0, 730.0, 729.0, 729.0, 728.0, 728.0, 729.0, 729.0, 728.0, 730.0, 730.0, 729.0, 730.0, 730.0, 729.0, 728.0, 729.0, 728.0, 728.0, 728.0, 728.0, 728.0, 729.0, 729.0, 730.0, 730.0, 728.0, 730.0, 726.0, 729.0, 729.0, 727.0, 727.0, 728.0, 728.0, 726.0, 726.0, 728.0, 727.0, 727.0, 728.0, 727.0, 728.0, 728.0, 726.0, 728.0, 728.0, 727.0, 727.0, 726.0, 726.0, 726.0, 725.0, 728.0, 725.0, 727.0, 729.0, 728.0, 728.0, 727.0, 727.0, 720.0, 729.0, 724.0, 723.0, 725.0, 724.0, 724.0, 724.0, 725.0, 727.0, 727.0, 727.0, 727.0, 727.0, 727.0, 727.0, 725.0, 727.0, 725.0, 726.0, 725.0, 725.0, 726.0, 727.0, 728.0, 726.0, 727.0, 728.0, 729.0, 728.0, 728.0, 728.0, 727.0, 729.0, 729.0, 729.0, 729.0, 727.0, 727.0, 729.0, 727.0, 728.0, 727.0, 727.0, 727.0, 726.0, 726.0, 726.0, 727.0, 728.0, 728.0, 729.0, 728.0, 726.0, 728.0, 729.0, 728.0, 728.0, 728.0, 729.0, 729.0, 730.0, 731.0, 730.0, 729.0, 728.0, 728.0, 729.0, 728.0, 728.0, 728.0, 729.0, 726.0, 727.0, 728.0, 729.0, 729.0, 728.0, 729.0, 725.0, 726.0, 727.0, 726.0, 726.0, 725.0, 725.0, 725.0, 723.0, 724.0, 722.0, 722.0, 722.0, 722.0, 723.0, 722.0, 725.0, 722.0, 725.0, 725.0, 724.0, 724.0, 722.0, 721.0],
      "WindowWidth": [1558.0, 1558.0, 1557.0, 1554.0, 1553.0, 1552.0, 1553.0, 1552.0, 1549.0, 1548.0, 1555.0, 1555.0, 1556.0, 1557.0, 1556.0, 1554.0, 1562.0, 1561.0, 1564.0, 1564.0, 1561.0, 1561.0, 1559.0, 1561.0, 1559.0, 1561.0, 1563.0, 1566.0, 1566.0, 1566.0, 1567.0, 1563.0, 1565.0, 1560.0, 1563.0, 1561.0, 1561.0, 1558.0, 1557.0, 1557.0, 1560.0, 1562.0, 1563.0, 1564.0, 1564.0, 1562.0, 1560.0, 1558.0, 1559.0, 1560.0, 1558.0, 1561.0, 1561.0, 1560.0, 1559.0, 1556.0, 1559.0, 1558.0, 1560.0, 1558.0, 1555.0, 1553.0, 1555.0, 1556.0, 1554.0, 1556.0, 1557.0, 1556.0, 1558.0, 1556.0, 1556.0, 1554.0, 1552.0, 1552.0, 1554.0, 1555.0, 1553.0, 1556.0, 1556.0, 1555.0, 1557.0, 1556.0, 1554.0, 1553.0, 1555.0, 1553.0, 1552.0, 1553.0, 1553.0, 1553.0, 1556.0, 1557.0, 1558.0, 1557.0, 1553.0, 1556.0, 1548.0, 1553.0, 1554.0, 1549.0, 1551.0, 1552.0, 1552.0, 1547.0, 1548.0, 1551.0, 1550.0, 1551.0, 1552.0, 1551.0, 1553.0, 1551.0, 1548.0, 1552.0, 1552.0, 1550.0, 1550.0, 1546.0, 1548.0, 1548.0, 1544.0, 1551.0, 1546.0, 1550.0, 1554.0, 1552.0, 1552.0, 1550.0, 1551.0, 1533.0, 1555.0, 1543.0, 1541.0, 1545.0, 1543.0, 1542.0, 1543.0, 1545.0, 1550.0, 1549.0, 1550.0, 1550.0, 1551.0, 1549.0, 1548.0, 1545.0, 1549.0, 1544.0, 1546.0, 1546.0, 1545.0, 1548.0, 1548.0, 1551.0, 1546.0, 1548.0, 1551.0, 1553.0, 1550.0, 1551.0, 1552.0, 1550.0, 1552.0, 1555.0, 1554.0, 1555.0, 1549.0, 1549.0, 1552.0, 1548.0, 1550.0, 1548.0, 1548.0, 1548.0, 1546.0, 1545.0, 1545.0, 1548.0, 1551.0, 1551.0, 1552.0, 1552.0, 1547.0, 1550.0, 1554.0, 1550.0, 1551.0, 1552.0, 1555.0, 1554.0, 1555.0, 1557.0, 1554.0, 1553.0, 1551.0, 1551.0, 1552.0, 1549.0, 1550.0, 1549.0, 1551.0, 1546.0, 1549.0, 1551.0, 1553.0, 1554.0, 1551.0, 1554.0, 1543.0, 1545.0, 1549.0, 1547.0, 1546.0, 1543.0, 1543.0, 1542.0, 1540.0, 1543.0, 1537.0, 1538.0, 1538.0, 1538.0, 1538.0, 1537.0, 1544.0, 1536.0, 1543.0, 1542.0, 1540.0, 1540.0, 1535.0, 1535.0]
    },
    "slices": {}
  }
}