{
  "AcquisitionMatrixPE": 100,
  "AcquisitionNumber": 1,
  "AcquisitionTime": "11:35:37.725000",
  "BandwidthPerPixelPhaseEncode": 18.519,
  "BaseResolution": 100,
  "BodyPartExamined": "BRAIN",
  "ConsistencyInfo": "N4_VE11C_LATEST_20160120",
  "ConversionSoftware": "dcm2niix",
  "ConversionSoftwareVersion": "v1.0.20180622 GCC4.9.2",
  "DerivedVendorReportedEchoSpacing": 0.000539986,
  "DeviceSerialNumber": "166078",
  "DwellTime": 2.1e-06,
  "EchoTime": 0.034,
  "EchoTrainLength": 100,
  "EffectiveEchoSpacing": 0.000539986,
  "FlipAngle": 90,
  "ImageOrientationPatientDICOM": [0.999847, 0.0130156, -0.0116449, -0.0139614, 0.996265, -0.0852133],
  "ImageType": [
    "ORIGINAL",
    "PRIMARY",
    "M",
    "ND",
    "MOSAIC"
],
  "InPlanePhaseEncodingDirectionDICOM": "COL",
  "InstitutionAddress": "Street_StreetNo_Bei_Jing_District_CN_ZIP",
  "InstitutionName": "BeiJing_Normal_University",
  "InstitutionalDepartmentName": "Department",
  "MRAcquisitionType": "2D",
  "MagneticFieldStrength": 3,
  "Manufacturer": "Siemens",
  "ManufacturersModelName": "Prisma",
  "Modality": "MR",
  "MultibandAccelerationFactor": 3,
  "PartialFourier": 1,
  "PatientPosition": "HFS",
  "PercentPhaseFOV": 100,
  "PhaseEncodingDirection": "j-",
  "PhaseEncodingSteps": 100,
  "PhaseResolution": 1,
  "PixelBandwidth": 2380,
  "ProcedureStepDescription": "BNU_P2018_64CH_Liu.Jia",
  "ProtocolName": "bold_100x100_s3_2x2x2_232",
  "PulseSequenceDetails": "%SiemensSeq%_ep2d_bold",
  "ReceiveCoilActiveElements": "HC1-7;NC1",
  "ReceiveCoilName": "HeadNeck_64",
  "ReconMatrixPE": 100,
  "RepetitionTime": 2,
  "SAR": 0.0603948,
  "ScanOptions": "FS",
  "ScanningSequence": "EP",
  "SequenceName": "_epfid2d1_100",
  "SequenceVariant": "SK",
  "SeriesDescription": "bold_100x100_s3_2x2x2_232",
  "SeriesNumber": 3,
  "ShimSetting": [-5449, -11512, -1286, 377, 0, -256, -193, 20],
  "SliceThickness": 2,
  "SliceTiming": [1.485, 0, 0.99, 0.0825, 1.0725, 0.165, 1.155, 0.2475, 1.2375, 0.33, 1.32, 0.4125, 1.4025, 0.5775, 1.5675, 0.66, 1.65, 0.7425, 1.7325, 0.825, 1.815, 0.9075, 1.8975, 0.495, 1.485, 0, 0.99, 0.0825, 1.0725, 0.165, 1.155, 0.2475, 1.2375, 0.33, 1.32, 0.4125, 1.4025, 0.5775, 1.5675, 0.66, 1.65, 0.7425, 1.7325, 0.825, 1.815, 0.9075, 1.8975, 0.495, 1.485, 0, 0.99, 0.0825, 1.0725, 0.165, 1.155, 0.2475, 1.2375, 0.33, 1.32, 0.4125, 1.4025, 0.5775, 1.5675, 0.66, 1.65, 0.7425, 1.7325, 0.825, 1.815, 0.9075, 1.8975, 0.495],
  "SoftwareVersions": "syngo_MR_E11",
  "SpacingBetweenSlices": 2,
  "StationName": "AWP166078",
  "TaskName": "motor",
  "TotalReadoutTime": 0.0534586,
  "TxRefAmp": 216.402,
  "dcmmeta_affine": [
    [-1.9996949434280396, -0.027922816574573517, -0.020984578877687454, 102.4595947265625],
    [-0.026031188666820526, 1.9925298690795898, -0.1707257330417633, -86.26018524169922],
    [-0.023289771750569344, 0.17042657732963562, 1.9925892353057861, -76.26697540283203],
    [0.0, 0.0, 0.0, 1.0]
],
  "dcmmeta_reorient_transform": [
    [0.0, -1.0, 0.0, 99.0],
    [1.0, 0.0, 0.0, 0.0],
    [0.0, 0.0, 1.0, 0.0],
    [0.0, 0.0, 0.0, 1.0]
],
  "dcmmeta_shape": [100, 100, 72, 232],
  "dcmmeta_slice_dim": 2,
  "dcmmeta_version": 0.6,
  "global": {
    "const": {
      "AcquisitionMatrix": [100, 0, 0, 100],
      "AngioFlag": "N",
      "BitsAllocated": 16,
      "BitsStored": 12,
      "BodyPartExamined": "BRAIN",
      "Columns": 900,
      "EchoNumbers": 1,
      "EchoTime": 34.0,
      "EchoTrainLength": 100,
      "FlipAngle": 90.0,
      "HighBit": 11,
      "ImageOrientationPatient": [0.9998474838385, 0.0130155943462, -0.0116448858144, -0.0139614082868, 0.9962649120062, -0.0852132864284],
      "ImagePositionPatient": [-888.40409259985, -918.42467175109, 18.091796241626],
      "ImageType": [
        "ORIGINAL",
        "PRIMARY",
        "M",
        "ND",
        "MOSAIC"
],
      "ImagedNucleus": "1H",
      "ImagingFrequency": 123.257827,
      "InPlanePhaseEncodingDirection": "COL",
      "MRAcquisitionType": "2D",
      "MagneticFieldStrength": 3.0,
      "Manufacturer": "SIEMENS",
      "ManufacturerModelName": "Prisma",
      "Modality": "MR",
      "NumberOfAverages": 1.0,
      "NumberOfPhaseEncodingSteps": 100,
      "PercentPhaseFieldOfView": 100.0,
      "PercentSampling": 100.0,
      "PerformedProcedureStepStartTime": "113148.864000",
      "PhotometricInterpretation": "MONOCHROME2",
      "PixelBandwidth": 2380.0,
      "PixelRepresentation": 0,
      "PixelSpacing": [2.0, 2.0],
      "ProtocolName": "bold_100x100_s3_2x2x2_232",
      "RepetitionTime": 2000.0,
      "Rows": 900,
      "SAR": 0.06039477159091,
      "SamplesPerPixel": 1,
      "ScanOptions": "FS",
      "ScanningSequence": "EP",
      "SequenceName": "*epfid2d1_100",
      "SequenceVariant": "SK",
      "SeriesDescription": "bold_100x100_s3_2x2x2_232",
      "SeriesNumber": 3,
      "SeriesTime": "113540.734000",
      "SliceLocation": -69.695997590627,
      "SliceThickness": 2.0,
      "SmallestImagePixelValue": 0,
      "SoftwareVersions": "syngo MR E11",
      "SpacingBetweenSlices": 1.9999999162786,
      "SpecificCharacterSet": "ISO_IR 100",
      "StudyID": "1",
      "StudyTime": "113148.776000",
      "TransmitCoilName": "Body",
      "VariableFlipAngleFlag": "N",
      "WindowCenterWidthExplanation": "Algo1",
      "dBdt": 0.0},
    "slices": {}
  },
  "time": {
    "samples": {
      "AcquisitionNumber": [1, 2, 3, 4, 5, 6, 7, 8, 9, 10, 11, 12, 13, 14, 15, 16, 17, 18, 19, 20, 21, 22, 23, 24, 25, 26, 27, 28, 29, 30, 31, 32, 33, 34, 35, 36, 37, 38, 39, 40, 41, 42, 43, 44, 45, 46, 47, 48, 49, 50, 51, 52, 53, 54, 55, 56, 57, 58, 59, 60, 61, 62, 63, 64, 65, 66, 67, 68, 69, 70, 71, 72, 73, 74, 75, 76, 77, 78, 79, 80, 81, 82, 83, 84, 85, 86, 87, 88, 89, 90, 91, 92, 93, 94, 95, 96, 97, 98, 99, 100, 101, 102, 103, 104, 105, 106, 107, 108, 109, 110, 111, 112, 113, 114, 115, 116, 117, 118, 119, 120, 121, 122, 123, 124, 125, 126, 127, 128, 129, 130, 131, 132, 133, 134, 135, 136, 137, 138, 139, 140, 141, 142, 143, 144, 145, 146, 147, 148, 149, 150, 151, 152, 153, 154, 155, 156, 157, 158, 159, 160, 161, 162, 163, 164, 165, 166, 167, 168, 169, 170, 171, 172, 173, 174, 175, 176, 177, 178, 179, 180, 181, 182, 183, 184, 185, 186, 187, 188, 189, 190, 191, 192, 193, 194, 195, 196, 197, 198, 199, 200, 201, 202, 203, 204, 205, 206, 207, 208, 209, 210, 211, 212, 213, 214, 215, 216, 217, 218, 219, 220, 221, 222, 223, 224, 225, 226, 227, 228, 229, 230, 231, 232],
      "AcquisitionTime": ["113537.725000", "113539.725000", "113541.725000", "113543.725000", "113545.725000", "113547.725000", "113549.725000", "113551.725000", "113553.725000", "113555.725000", "113557.725000", "113559.725000", "113601.725000", "113603.725000", "113605.725000", "113607.725000", "113609.725000", "113611.725000", "113613.725000", "113615.725000", "113617.725000", "113619.725000", "113621.725000", "113623.725000", "113625.725000", "113627.725000", "113629.725000", "113631.725000", "113633.725000", "113635.725000", "113637.725000", "113639.725000", "113641.725000", "113643.725000", "113645.725000", "113647.725000", "113649.725000", "113651.725000", "113653.725000", "113655.725000", "113657.725000", "113659.725000", "113701.725000", "113703.725000", "113705.725000", "113707.725000", "113709.725000", "113711.725000", "113713.725000", "113715.725000", "113717.725000", "113719.725000", "113721.725000", "113723.725000", "113725.725000", "113727.725000", "113729.725000", "113731.725000", "113733.725000", "113735.725000", "113737.725000", "113739.725000", "113741.725000", "113743.725000", "113745.725000", "113747.725000", "113749.725000", "113751.725000", "113753.725000", "113755.725000", "113757.725000", "113759.725000", "113801.725000", "113803.725000", "113805.725000", "113807.725000", "113809.725000", "113811.725000", "113813.725000", "113815.725000", "113817.725000", "113819.725000", "113821.725000", "113823.725000", "113825.725000", "113827.725000", "113829.725000", "113831.725000", "113833.725000", "113835.725000", "113837.725000", "113839.725000", "113841.725000", "113843.725000", "113845.725000", "113847.725000", "113849.725000", "113851.725000", "113853.725000", "113855.725000", "113857.725000", "113859.725000", "113901.725000", "113903.725000", "113905.725000", "113907.725000", "113909.725000", "113911.725000", "113913.725000", "113915.725000", "113917.725000", "113919.725000", "113921.725000", "113923.725000", "113925.725000", "113927.725000", "113929.725000", "113931.725000", "113933.725000", "113935.725000", "113937.725000", "113939.725000", "113941.725000", "113943.725000", "113945.725000", "113947.725000", "113949.725000", "113951.725000", "113953.725000", "113955.725000", "113957.725000", "113959.725000", "114001.725000", "114003.725000", "114005.725000", "114007.725000", "114009.725000", "114011.725000", "114013.725000", "114015.725000", "114017.725000", "114019.725000", "114021.725000", "114023.725000", "114025.725000", "114027.725000", "114029.725000", "114031.725000", "114033.725000", "114035.725000", "114037.725000", "114039.725000", "114041.725000", "114043.725000", "114045.725000", "114047.725000", "114049.725000", "114051.725000", "114053.725000", "114055.725000", "114057.725000", "114059.725000", "114101.725000", "114103.725000", "114105.725000", "114107.725000", "114109.725000", "114111.725000", "114113.725000", "114115.725000", "114117.725000", "114119.725000", "114121.725000", "114123.725000", "114125.725000", "114127.725000", "114129.725000", "114131.725000", "114133.725000", "114135.725000", "114137.725000", "114139.725000", "114141.725000", "114143.725000", "114145.725000", "114147.725000", "114149.725000", "114151.725000", "114153.725000", "114155.725000", "114157.725000", "114159.725000", "114201.725000", "114203.725000", "114205.725000", "114207.725000", "114209.725000", "114211.725000", "114213.725000", "114215.725000", "114217.725000", "114219.725000", "114221.725000", "114223.725000", "114225.725000", "114227.725000", "114229.725000", "114231.725000", "114233.725000", "114235.725000", "114237.725000", "114239.725000", "114241.725000", "114243.725000", "114245.725000", "114247.725000", "114249.725000", "114251.725000", "114253.725000", "114255.725000", "114257.725000", "114259.725000", "114301.725000", "114303.725000", "114305.725000", "114307.725000", "114309.725000", "114311.725000", "114313.725000", "114315.725000", "114317.725000", "114319.725000"],
      "ContentTime": ["113540.738000", "113542.233000", "113544.234000", "113546.233000", "113548.233000", "113550.233000", "113552.232000", "113554.233000", "113556.233000", "113558.233000", "113600.233000", "113602.234000", "113604.234000", "113606.232000", "113608.232000", "113610.232000", "113612.232000", "113614.233000", "113616.233000", "113618.234000", "113620.234000", "113622.233000", "113624.232000", "113626.232000", "113628.232000", "113630.232000", "113632.234000", "113634.233000", "113636.233000", "113638.233000", "113640.234000", "113642.233000", "113644.233000", "113646.232000", "113648.232000", "113650.233000", "113652.234000", "113654.233000", "113656.233000", "113658.233000", "113700.232000", "113702.233000", "113704.232000", "113706.234000", "113708.233000", "113710.234000", "113712.233000", "113714.234000", "113716.232000", "113718.233000", "113720.232000", "113722.233000", "113724.233000", "113726.233000", "113728.234000", "113730.233000", "113732.233000", "113734.232000", "113736.233000", "113738.233000", "113740.233000", "113742.234000", "113744.234000", "113746.234000", "113748.233000", "113750.234000", "113752.232000", "113754.232000", "113756.232000", "113758.232000", "113800.234000", "113802.233000", "113804.233000", "113806.233000", "113808.233000", "113810.233000", "113812.233000", "113814.232000", "113816.234000", "113818.233000", "113820.233000", "113822.234000", "113824.234000", "113826.233000", "113828.232000", "113830.232000", "113832.232000", "113834.233000", "113836.233000", "113838.233000", "113840.233000", "113842.233000", "113844.232000", "113846.232000", "113848.232000", "113850.232000", "113852.233000", "113854.233000", "113856.233000", "113858.234000", "113900.233000", "113902.232000", "113904.233000", "113906.232000", "113908.232000", "113910.234000", "113912.234000", "113914.233000", "113916.234000", "113918.234000", "113920.232000", "113922.233000", "113924.232000", "113926.234000", "113928.234000", "113930.234000", "113932.234000", "113934.233000", "113936.232000", "113938.232000", "113940.232000", "113942.232000", "113944.234000", "113946.234000", "113948.234000", "113950.234000", "113952.234000", "113954.233000", "113956.233000", "113958.233000", "114000.233000", "114002.234000", "114004.234000", "114006.234000", "114008.233000", "114010.234000", "114012.232000", "114014.232000", "114016.233000", "114018.233000", "114020.233000", "114022.233000", "114024.234000", "114026.234000", "114028.234000", "114030.233000", "114032.232000", "114034.232000", "114036.233000", "114038.233000", "114040.233000", "114042.234000", "114044.234000", "114046.232000", "114048.232000", "114050.232000", "114052.233000", "114054.233000", "114056.233000", "114058.233000", "114100.234000", "114102.233000", "114104.232000", "114106.232000", "114108.232000", "114110.233000", "114112.233000", "114114.234000", "114116.234000", "114118.233000", "114120.233000", "114122.232000", "114124.232000", "114126.233000", "114128.234000", "114130.234000", "114132.233000", "114134.234000", "114136.234000", "114138.233000", "114140.233000", "114142.232000", "114144.232000", "114146.234000", "114148.233000", "114150.233000", "114152.234000", "114154.243000", "114156.232000", "114158.232000", "114200.233000", "114202.233000", "114204.233000", "114206.233000", "114208.234000", "114210.234000", "114212.233000", "114214.233000", "114216.233000", "114218.232000", "114220.233000", "114222.234000", "114224.234000", "114226.234000", "114228.234000", "114230.234000", "114232.233000", "114234.232000", "114236.233000", "114238.233000", "114240.234000", "114242.234000", "114244.233000", "114246.233000", "114248.233000", "114250.232000", "114252.233000", "114254.232000", "114256.234000", "114258.233000", "114300.234000", "114302.234000", "114304.234000", "114306.232000", "114308.233000", "114310.233000", "114312.233000", "114314.234000", "114316.234000", "114318.233000", "114320.234000", "114321.860000"],
      "InstanceCreationTime": ["113540.738000", "113542.233000", "113544.234000", "113546.233000", "113548.233000", "113550.233000", "113552.232000", "113554.233000", "113556.233000", "113558.233000", "113600.233000", "113602.234000", "113604.234000", "113606.232000", "113608.232000", "113610.232000", "113612.232000", "113614.233000", "113616.233000", "113618.234000", "113620.234000", "113622.233000", "113624.232000", "113626.232000", "113628.232000", "113630.232000", "113632.234000", "113634.233000", "113636.233000", "113638.233000", "113640.234000", "113642.233000", "113644.233000", "113646.232000", "113648.232000", "113650.233000", "113652.234000", "113654.233000", "113656.233000", "113658.233000", "113700.232000", "113702.233000", "113704.232000", "113706.234000", "113708.233000", "113710.234000", "113712.233000", "113714.234000", "113716.232000", "113718.233000", "113720.232000", "113722.233000", "113724.233000", "113726.233000", "113728.234000", "113730.233000", "113732.233000", "113734.232000", "113736.233000", "113738.233000", "113740.233000", "113742.234000", "113744.234000", "113746.234000", "113748.233000", "113750.234000", "113752.232000", "113754.232000", "113756.232000", "113758.232000", "113800.234000", "113802.233000", "113804.233000", "113806.233000", "113808.233000", "113810.233000", "113812.233000", "113814.232000", "113816.234000", "113818.233000", "113820.233000", "113822.234000", "113824.234000", "113826.233000", "113828.232000", "113830.232000", "113832.232000", "113834.233000", "113836.233000", "113838.233000", "113840.233000", "113842.233000", "113844.232000", "113846.232000", "113848.232000", "113850.232000", "113852.233000", "113854.233000", "113856.233000", "113858.234000", "113900.233000", "113902.232000", "113904.233000", "113906.232000", "113908.232000", "113910.234000", "113912.234000", "113914.233000", "113916.234000", "113918.234000", "113920.232000", "113922.233000", "113924.232000", "113926.234000", "113928.234000", "113930.234000", "113932.234000", "113934.233000", "113936.232000", "113938.232000", "113940.232000", "113942.232000", "113944.234000", "113946.234000", "113948.234000", "113950.234000", "113952.234000", "113954.233000", "113956.233000", "113958.233000", "114000.233000", "114002.234000", "114004.234000", "114006.234000", "114008.233000", "114010.234000", "114012.232000", "114014.232000", "114016.233000", "114018.233000", "114020.233000", "114022.233000", "114024.234000", "114026.234000", "114028.234000", "114030.233000", "114032.232000", "114034.232000", "114036.233000", "114038.233000", "114040.233000", "114042.234000", "114044.234000", "114046.232000", "114048.232000", "114050.232000", "114052.233000", "114054.233000", "114056.233000", "114058.233000", "114100.234000", "114102.233000", "114104.232000", "114106.232000", "114108.232000", "114110.233000", "114112.233000", "114114.234000", "114116.234000", "114118.233000", "114120.233000", "114122.232000", "114124.232000", "114126.233000", "114128.234000", "114130.234000", "114132.233000", "114134.234000", "114136.234000", "114138.233000", "114140.233000", "114142.232000", "114144.232000", "114146.234000", "114148.233000", "114150.233000", "114152.234000", "114154.243000", "114156.232000", "114158.232000", "114200.233000", "114202.233000", "114204.233000", "114206.233000", "114208.234000", "114210.234000", "114212.233000", "114214.233000", "114216.233000", "114218.232000", "114220.233000", "114222.234000", "114224.234000", "114226.234000", "114228.234000", "114230.234000", "114232.233000", "114234.232000", "114236.233000", "114238.233000", "114240.234000", "114242.234000", "114244.233000", "114246.233000", "114248.233000", "114250.232000", "114252.233000", "114254.232000", "114256.234000", "114258.233000", "114300.234000", "114302.234000", "114304.234000", "114306.232000", "114308.233000", "114310.233000", "114312.233000", "114314.234000", "114316.234000", "114318.233000", "114320.234000", "114321.860000"],
      "InstanceNumber": [1, 2, 3, 4, 5, 6, 7, 8, 9, 10, 11, 12, 13, 14, 15, 16, 17, 18, 19, 20, 21, 22, 23, 24, 25, 26, 27, 28, 29, 30, 31, 32, 33, 34, 35, 36, 37, 38, 39, 40, 41, 42, 43, 44, 45, 46, 47, 48, 49, 50, 51, 52, 53, 54, 55, 56, 57, 58, 59, 60, 61, 62, 63, 64, 65, 66, 67, 68, 69, 70, 71, 72, 73, 74, 75, 76, 77, 78, 79, 80, 81, 82, 83, 84, 85, 86, 87, 88, 89, 90, 91, 92, 93, 94, 95, 96, 97, 98, 99, 100, 101, 102, 103, 104, 105, 106, 107, 108, 109, 110, 111, 112, 113, 114, 115, 116, 117, 118, 119, 120, 121, 122, 123, 124, 125, 126, 127, 128, 129, 130, 131, 132, 133, 134, 135, 136, 137, 138, 139, 140, 141, 142, 143, 144, 145, 146, 147, 148, 149, 150, 151, 152, 153, 154, 155, 156, 157, 158, 159, 160, 161, 162, 163, 164, 165, 166, 167, 168, 169, 170, 171, 172, 173, 174, 175, 176, 177, 178, 179, 180, 181, 182, 183, 184, 185, 186, 187, 188, 189, 190, 191, 192, 193, 194, 195, 196, 197, 198, 199, 200, 201, 202, 203, 204, 205, 206, 207, 208, 209, 210, 211, 212, 213, 214, 215, 216, 217, 218, 219, 220, 221, 222, 223, 224, 225, 226, 227, 228, 229, 230, 231, 232],
      "LargestImagePixelValue": [3837, 3757, 3733, 3740, 3699, 3696, 3708, 3741, 3732, 3773, 3704, 3717, 3741, 3760, 3787, 3750, 3790, 3728, 3740, 3807, 3763, 3763, 3831, 3789, 3771, 3800, 3800, 3787, 3779, 3811, 3822, 3816, 3804, 3781, 3813, 3769, 3782, 3821, 3819, 3889, 3902, 3833, 3820, 3452, 3695, 3387, 3957, 3668, 3494, 3826, 3772, 3805, 3801, 3890, 3971, 3733, 3863, 3805, 3790, 3842, 3826, 3820, 3813, 3797, 3751, 3854, 3811, 3771, 3798, 3767, 3819, 3821, 3789, 3822, 3818, 3800, 3834, 3867, 3848, 3912, 3898, 3898, 3852, 3856, 3858, 3855, 3844, 3853, 3852, 3898, 3885, 3844, 3856, 3912, 3895, 3884, 3915, 3847, 3881, 3864, 3805, 3841, 3857, 3880, 3890, 3859, 3499, 4051, 3892, 3725, 3746, 3601, 3503, 3548, 3633, 3694, 3697, 3754, 3782, 3809, 3757, 3910, 3600, 3593, 3690, 3913, 3549, 3734, 3653, 3531, 3612, 3694, 3699, 3721, 3733, 3708, 3719, 3673, 3655, 3657, 3674, 3679, 3691, 3696, 3719, 3705, 3693, 3643, 3640, 3673, 3665, 3631, 3632, 3657, 3614, 3679, 3694, 3718, 3724, 3682, 3692, 3651, 3662, 3643, 3701, 3708, 3678, 3661, 3672, 3623, 3693, 3671, 3686, 3734, 3692, 3666, 3710, 3657, 3625, 3591, 3655, 3587, 3699, 3685, 3577, 3572, 3362, 3429, 4078, 3446, 3966, 3592, 3354, 3473, 3567, 3487, 3536, 3553, 3508, 3537, 3471, 3524, 3565, 3586, 3554, 3592, 3580, 3635, 3633, 3621, 3659, 3689, 3749, 3702, 3703, 3638, 3680, 3664, 3706, 3674, 3650, 3711, 3703, 3669, 3717, 3723, 3629, 3642, 3661, 3619, 3630, 3631],
      "WindowCenter": [758.0, 757.0, 756.0, 758.0, 757.0, 756.0, 755.0, 755.0, 756.0, 758.0, 760.0, 759.0, 758.0, 756.0, 755.0, 754.0, 754.0, 753.0, 756.0, 757.0, 755.0, 754.0, 752.0, 753.0, 754.0, 754.0, 756.0, 756.0, 754.0, 755.0, 755.0, 755.0, 755.0, 756.0, 757.0, 757.0, 756.0, 755.0, 754.0, 753.0, 754.0, 750.0, 753.0, 730.0, 745.0, 748.0, 758.0, 754.0, 746.0, 756.0, 757.0, 757.0, 757.0, 757.0, 754.0, 754.0, 755.0, 755.0, 755.0, 755.0, 755.0, 756.0, 757.0, 756.0, 756.0, 756.0, 757.0, 757.0, 756.0, 757.0, 756.0, 757.0, 757.0, 757.0, 758.0, 757.0, 757.0, 755.0, 755.0, 756.0, 756.0, 756.0, 757.0, 757.0, 758.0, 758.0, 759.0, 759.0, 758.0, 757.0, 756.0, 756.0, 755.0, 756.0, 756.0, 757.0, 757.0, 758.0, 758.0, 759.0, 758.0, 758.0, 757.0, 756.0, 755.0, 746.0, 743.0, 732.0, 754.0, 754.0, 749.0, 753.0, 753.0, 753.0, 756.0, 756.0, 757.0, 757.0, 756.0, 758.0, 756.0, 743.0, 753.0, 751.0, 745.0, 754.0, 754.0, 744.0, 753.0, 752.0, 754.0, 754.0, 755.0, 755.0, 755.0, 755.0, 755.0, 754.0, 756.0, 756.0, 756.0, 755.0, 755.0, 755.0, 756.0, 755.0, 755.0, 756.0, 755.0, 755.0, 755.0, 755.0, 755.0, 754.0, 753.0, 754.0, 754.0, 754.0, 754.0, 754.0, 754.0, 754.0, 755.0, 755.0, 755.0, 754.0, 755.0, 754.0, 756.0, 756.0, 757.0, 756.0, 754.0, 754.0, 755.0, 756.0, 757.0, 756.0, 755.0, 754.0, 755.0, 755.0, 755.0, 754.0, 753.0, 741.0, 736.0, 739.0, 754.0, 744.0, 736.0, 753.0, 751.0, 752.0, 753.0, 751.0, 755.0, 755.0, 754.0, 754.0, 752.0, 754.0, 753.0, 755.0, 754.0, 754.0, 753.0, 754.0, 754.0, 754.0, 754.0, 753.0, 754.0, 754.0, 755.0, 755.0, 756.0, 756.0, 757.0, 757.0, 756.0, 755.0, 755.0, 754.0, 755.0, 755.0, 754.0, 754.0, 753.0, 753.0, 752.0, 752.0],
      "WindowWidth": [1647.0, 1643.0, 1641.0, 1647.0, 1643.0, 1641.0, 1639.0, 1638.0, 1641.0, 1646.0, 1651.0, 1651.0, 1646.0, 1642.0, 1639.0, 1635.0, 1635.0, 1634.0, 1641.0, 1644.0, 1638.0, 1635.0, 1631.0, 1632.0, 1635.0, 1636.0, 1641.0, 1640.0, 1637.0, 1638.0, 1638.0, 1638.0, 1639.0, 1640.0, 1643.0, 1644.0, 1642.0, 1639.0, 1636.0, 1634.0, 1635.0, 1625.0, 1636.0, 1576.0, 1617.0, 1621.0, 1652.0, 1638.0, 1616.0, 1640.0, 1643.0, 1645.0, 1645.0, 1645.0, 1636.0, 1636.0, 1639.0, 1639.0, 1637.0, 1638.0, 1638.0, 1641.0, 1642.0, 1640.0, 1641.0, 1642.0, 1646.0, 1644.0, 1642.0, 1643.0, 1643.0, 1644.0, 1644.0, 1645.0, 1646.0, 1644.0, 1644.0, 1640.0, 1638.0, 1642.0, 1642.0, 1641.0, 1642.0, 1645.0, 1647.0, 1648.0, 1648.0, 1650.0, 1646.0, 1643.0, 1642.0, 1641.0, 1639.0, 1641.0, 1642.0, 1643.0, 1645.0, 1645.0, 1647.0, 1649.0, 1647.0, 1646.0, 1644.0, 1641.0, 1639.0, 1616.0, 1612.0, 1582.0, 1639.0, 1639.0, 1624.0, 1635.0, 1631.0, 1632.0, 1638.0, 1641.0, 1642.0, 1642.0, 1641.0, 1645.0, 1640.0, 1610.0, 1634.0, 1632.0, 1614.0, 1638.0, 1638.0, 1611.0, 1635.0, 1629.0, 1633.0, 1635.0, 1637.0, 1637.0, 1638.0, 1637.0, 1636.0, 1634.0, 1639.0, 1641.0, 1641.0, 1637.0, 1638.0, 1638.0, 1639.0, 1638.0, 1638.0, 1639.0, 1638.0, 1637.0, 1637.0, 1636.0, 1636.0, 1634.0, 1633.0, 1634.0, 1635.0, 1634.0, 1634.0, 1634.0, 1635.0, 1636.0, 1637.0, 1637.0, 1637.0, 1636.0, 1636.0, 1635.0, 1640.0, 1640.0, 1642.0, 1639.0, 1634.0, 1634.0, 1636.0, 1639.0, 1642.0, 1639.0, 1638.0, 1636.0, 1636.0, 1636.0, 1636.0, 1634.0, 1631.0, 1601.0, 1590.0, 1599.0, 1638.0, 1611.0, 1593.0, 1633.0, 1626.0, 1629.0, 1633.0, 1627.0, 1638.0, 1636.0, 1635.0, 1634.0, 1629.0, 1634.0, 1632.0, 1636.0, 1635.0, 1635.0, 1632.0, 1634.0, 1635.0, 1635.0, 1636.0, 1633.0, 1634.0, 1634.0, 1637.0, 1636.0, 1640.0, 1640.0, 1644.0, 1643.0, 1639.0, 1638.0, 1637.0, 1636.0, 1638.0, 1637.0, 1635.0, 1634.0, 1631.0, 1630.0, 1628.0, 1629.0]
    },
    "slices": {}
  }
}