{
  "AcquisitionMatrixPE": 100,
  "AcquisitionNumber": 1,
  "AcquisitionTime": "12:45:36.987500",
  "BandwidthPerPixelPhaseEncode": 18.519,
  "BaseResolution": 100,
  "BodyPartExamined": "BRAIN",
  "ConsistencyInfo": "N4_VE11C_LATEST_20160120",
  "ConversionSoftware": "dcm2niix",
  "ConversionSoftwareVersion": "v1.0.20180622 GCC4.9.2",
  "DerivedVendorReportedEchoSpacing": 0.000539986,
  "DeviceSerialNumber": "166078",
  "DwellTime": 2.1e-06,
  "EchoTime": 0.034,
  "EchoTrainLength": 100,
  "EffectiveEchoSpacing": 0.000539986,
  "FlipAngle": 90,
  "ImageOrientationPatientDICOM": [0.99914, 0.0114361, 0.0398486, 3.13087e-08, 0.9612, -0.275854],
  "ImageType": [
    "ORIGINAL",
    "PRIMARY",
    "M",
    "ND",
    "MOSAIC"
],
  "InPlanePhaseEncodingDirectionDICOM": "COL",
  "InstitutionAddress": "Street_StreetNo_Bei_Jing_District_CN_ZIP",
  "InstitutionName": "BeiJing_Normal_University",
  "InstitutionalDepartmentName": "Department",
  "MRAcquisitionType": "2D",
  "MagneticFieldStrength": 3,
  "Manufacturer": "Siemens",
  "ManufacturersModelName": "Prisma",
  "Modality": "MR",
  "MultibandAccelerationFactor": 3,
  "PartialFourier": 1,
  "PatientPosition": "HFS",
  "PercentPhaseFOV": 100,
  "PhaseEncodingDirection": "j-",
  "PhaseEncodingSteps": 100,
  "PhaseResolution": 1,
  "PixelBandwidth": 2380,
  "ProcedureStepDescription": "BNU_P2018_64CH_Liu.Jia",
  "ProtocolName": "bold_100x100_s3_2x2x2_232",
  "PulseSequenceDetails": "%SiemensSeq%_ep2d_bold",
  "ReceiveCoilActiveElements": "HC1-7;NC1",
  "ReceiveCoilName": "HeadNeck_64",
  "ReconMatrixPE": 100,
  "RepetitionTime": 2,
  "SAR": 0.064678,
  "ScanOptions": "FS",
  "ScanningSequence": "EP",
  "SequenceName": "_epfid2d1_100",
  "SequenceVariant": "SK",
  "SeriesDescription": "bold_100x100_s3_2x2x2_232",
  "SeriesNumber": 3,
  "ShimSetting": [-5438, -11472, -1304, 275, -113, -333, -118, -64],
  "SliceThickness": 2,
  "SliceTiming": [1.485, 0, 0.99, 0.0825, 1.0725, 0.165, 1.155, 0.2475, 1.2375, 0.33, 1.32, 0.4125, 1.4025, 0.5775, 1.5675, 0.66, 1.65, 0.7425, 1.7325, 0.825, 1.815, 0.9075, 1.8975, 0.495, 1.485, 0, 0.99, 0.0825, 1.0725, 0.165, 1.155, 0.2475, 1.2375, 0.33, 1.32, 0.4125, 1.4025, 0.5775, 1.5675, 0.66, 1.65, 0.7425, 1.7325, 0.825, 1.815, 0.9075, 1.8975, 0.495, 1.485, 0, 0.99, 0.0825, 1.0725, 0.165, 1.155, 0.2475, 1.2375, 0.33, 1.32, 0.4125, 1.4025, 0.5775, 1.5675, 0.66, 1.65, 0.7425, 1.7325, 0.825, 1.815, 0.9075, 1.8975, 0.495],
  "SoftwareVersions": "syngo_MR_E11",
  "SpacingBetweenSlices": 2,
  "StationName": "AWP166078",
  "TaskName": "motor",
  "TotalReadoutTime": 0.0534586,
  "TxRefAmp": 238.915,
  "dcmmeta_affine": [
    [-1.9982805252075195, 6.261741702928703e-08, 0.08291423320770264, 96.36469268798828],
    [-0.022872157394886017, 1.9223991632461548, -0.5512335300445557, -66.622314453125],
    [0.0796971470117569, 0.5517078638076782, 1.9207464456558228, -123.61256408691406],
    [0.0, 0.0, 0.0, 1.0]
],
  "dcmmeta_reorient_transform": [
    [0.0, -1.0, 0.0, 99.0],
    [1.0, 0.0, 0.0, 0.0],
    [0.0, 0.0, 1.0, 0.0],
    [0.0, 0.0, 0.0, 1.0]
],
  "dcmmeta_shape": [100, 100, 72, 232],
  "dcmmeta_slice_dim": 2,
  "dcmmeta_version": 0.6,
  "global": {
    "const": {
      "AcquisitionMatrix": [100, 0, 0, 100],
      "AngioFlag": "N",
      "BitsAllocated": 16,
      "BitsStored": 12,
      "BodyPartExamined": "BRAIN",
      "Columns": 900,
      "EchoNumbers": 1,
      "EchoTime": 34.0,
      "EchoTrainLength": 100,
      "FlipAngle": 90.0,
      "HighBit": 11,
      "ImageOrientationPatient": [0.99914028413742, 0.01143607912787, 0.03984857222019, 3.1308708e-08, 0.96119956558351, -0.2758539380217],
      "ImagePositionPatient": [-895.67695462066, -901.80371705055, 119.81080456315],
      "ImageType": [
        "ORIGINAL",
        "PRIMARY",
        "M",
        "ND",
        "MOSAIC"
],
      "ImagedNucleus": "1H",
      "ImagingFrequency": 123.257842,
      "InPlanePhaseEncodingDirection": "COL",
      "MRAcquisitionType": "2D",
      "MagneticFieldStrength": 3.0,
      "Manufacturer": "SIEMENS",
      "ManufacturerModelName": "Prisma",
      "Modality": "MR",
      "NumberOfAverages": 1.0,
      "NumberOfPhaseEncodingSteps": 100,
      "PercentPhaseFieldOfView": 100.0,
      "PercentSampling": 100.0,
      "PerformedProcedureStepStartTime": "124231.491000",
      "PhotometricInterpretation": "MONOCHROME2",
      "PixelBandwidth": 2380.0,
      "PixelRepresentation": 0,
      "PixelSpacing": [2.0, 2.0],
      "ProtocolName": "bold_100x100_s3_2x2x2_232",
      "RepetitionTime": 2000.0,
      "Rows": 900,
      "SAR": 0.06467795230575,
      "SamplesPerPixel": 1,
      "ScanOptions": "FS",
      "ScanningSequence": "EP",
      "SequenceName": "*epfid2d1_100",
      "SequenceVariant": "SK",
      "SeriesDescription": "bold_100x100_s3_2x2x2_232",
      "SeriesNumber": 3,
      "SeriesTime": "124539.095000",
      "SliceLocation": -96.356968059385,
      "SliceThickness": 2.0,
      "SmallestImagePixelValue": 0,
      "SoftwareVersions": "syngo MR E11",
      "SpacingBetweenSlices": 1.9999999727662,
      "SpecificCharacterSet": "ISO_IR 100",
      "StudyID": "1",
      "StudyTime": "124231.384000",
      "TransmitCoilName": "Body",
      "VariableFlipAngleFlag": "N",
      "WindowCenterWidthExplanation": "Algo1",
      "dBdt": 0.0},
    "slices": {}
  },
  "time": {
    "samples": {
      "AcquisitionNumber": [1, 2, 3, 4, 5, 6, 7, 8, 9, 10, 11, 12, 13, 14, 15, 16, 17, 18, 19, 20, 21, 22, 23, 24, 25, 26, 27, 28, 29, 30, 31, 32, 33, 34, 35, 36, 37, 38, 39, 40, 41, 42, 43, 44, 45, 46, 47, 48, 49, 50, 51, 52, 53, 54, 55, 56, 57, 58, 59, 60, 61, 62, 63, 64, 65, 66, 67, 68, 69, 70, 71, 72, 73, 74, 75, 76, 77, 78, 79, 80, 81, 82, 83, 84, 85, 86, 87, 88, 89, 90, 91, 92, 93, 94, 95, 96, 97, 98, 99, 100, 101, 102, 103, 104, 105, 106, 107, 108, 109, 110, 111, 112, 113, 114, 115, 116, 117, 118, 119, 120, 121, 122, 123, 124, 125, 126, 127, 128, 129, 130, 131, 132, 133, 134, 135, 136, 137, 138, 139, 140, 141, 142, 143, 144, 145, 146, 147, 148, 149, 150, 151, 152, 153, 154, 155, 156, 157, 158, 159, 160, 161, 162, 163, 164, 165, 166, 167, 168, 169, 170, 171, 172, 173, 174, 175, 176, 177, 178, 179, 180, 181, 182, 183, 184, 185, 186, 187, 188, 189, 190, 191, 192, 193, 194, 195, 196, 197, 198, 199, 200, 201, 202, 203, 204, 205, 206, 207, 208, 209, 210, 211, 212, 213, 214, 215, 216, 217, 218, 219, 220, 221, 222, 223, 224, 225, 226, 227, 228, 229, 230, 231, 232],
      "AcquisitionTime": ["124536.987500", "124538.987500", "124540.987500", "124542.987500", "124544.987500", "124546.987500", "124548.987500", "124550.987500", "124552.987500", "124554.987500", "124556.987500", "124558.987500", "124600.987500", "124602.987500", "124604.987500", "124606.987500", "124608.987500", "124610.987500", "124612.987500", "124614.987500", "124616.987500", "124618.987500", "124620.987500", "124622.987500", "124624.987500", "124626.987500", "124628.987500", "124630.987500", "124632.987500", "124634.987500", "124636.987500", "124638.987500", "124640.987500", "124642.987500", "124644.987500", "124646.987500", "124648.987500", "124650.987500", "124652.987500", "124654.987500", "124656.987500", "124658.987500", "124700.987500", "124702.987500", "124704.987500", "124706.987500", "124708.987500", "124710.987500", "124712.987500", "124714.987500", "124716.987500", "124718.987500", "124720.987500", "124722.987500", "124724.987500", "124726.987500", "124728.987500", "124730.987500", "124732.987500", "124734.987500", "124736.987500", "124738.987500", "124740.987500", "124742.987500", "124744.987500", "124746.987500", "124748.987500", "124750.987500", "124752.987500", "124754.987500", "124756.987500", "124758.987500", "124800.987500", "124802.987500", "124804.987500", "124806.987500", "124808.987500", "124810.987500", "124812.987500", "124814.987500", "124816.987500", "124818.987500", "124820.987500", "124822.987500", "124824.987500", "124826.987500", "124828.987500", "124830.987500", "124832.987500", "124834.987500", "124836.987500", "124838.987500", "124840.987500", "124842.987500", "124844.987500", "124846.987500", "124848.987500", "124850.987500", "124852.987500", "124854.987500", "124856.987500", "124858.987500", "124900.987500", "124902.987500", "124904.987500", "124906.987500", "124908.987500", "124910.987500", "124912.987500", "124914.987500", "124916.987500", "124918.987500", "124920.987500", "124922.987500", "124924.987500", "124926.987500", "124928.987500", "124930.987500", "124932.987500", "124934.987500", "124936.987500", "124938.987500", "124940.987500", "124942.987500", "124944.987500", "124946.987500", "124948.987500", "124950.987500", "124952.987500", "124954.987500", "124956.987500", "124958.987500", "125000.987500", "125002.987500", "125004.987500", "125006.987500", "125008.987500", "125010.987500", "125012.987500", "125014.987500", "125016.987500", "125018.987500", "125020.987500", "125022.987500", "125024.987500", "125026.987500", "125028.987500", "125030.987500", "125032.987500", "125034.987500", "125036.987500", "125038.987500", "125040.987500", "125042.987500", "125044.987500", "125046.987500", "125048.987500", "125050.987500", "125052.987500", "125054.987500", "125056.987500", "125058.987500", "125100.987500", "125102.987500", "125104.987500", "125106.987500", "125108.987500", "125110.987500", "125112.987500", "125114.987500", "125116.987500", "125118.987500", "125120.987500", "125122.987500", "125124.987500", "125126.987500", "125128.987500", "125130.987500", "125132.987500", "125134.987500", "125136.987500", "125138.987500", "125140.987500", "125142.987500", "125144.987500", "125146.987500", "125148.987500", "125150.987500", "125152.987500", "125154.987500", "125156.987500", "125158.987500", "125200.987500", "125202.987500", "125204.987500", "125206.987500", "125208.987500", "125210.987500", "125212.987500", "125214.987500", "125216.987500", "125218.987500", "125220.987500", "125222.987500", "125224.987500", "125226.987500", "125228.987500", "125230.987500", "125232.987500", "125234.987500", "125236.987500", "125238.987500", "125240.987500", "125242.987500", "125244.987500", "125246.987500", "125248.987500", "125250.987500", "125252.987500", "125254.987500", "125256.987500", "125258.987500", "125300.987500", "125302.987500", "125304.987500", "125306.987500", "125308.987500", "125310.987500", "125312.987500", "125314.987500", "125316.987500", "125318.987500"],
      "ContentTime": ["124539.098000", "124540.595000", "124542.593000", "124544.594000", "124546.595000", "124548.594000", "124550.594000", "124552.594000", "124554.594000", "124557.094000", "124559.093000", "124600.593000", "124602.593000", "124604.594000", "124606.594000", "124608.594000", "124610.594000", "124612.594000", "124614.594000", "124616.593000", "124618.594000", "124620.594000", "124622.594000", "124624.594000", "124626.594000", "124628.594000", "124630.594000", "124632.594000", "124634.593000", "124636.593000", "124638.594000", "124640.594000", "124642.595000", "124644.594000", "124646.594000", "124648.594000", "124650.594000", "124652.593000", "124654.593000", "124656.595000", "124658.594000", "124700.594000", "124702.594000", "124704.594000", "124706.594000", "124708.594000", "124710.593000", "124712.593000", "124714.594000", "124716.594000", "124718.595000", "124720.594000", "124722.594000", "124724.594000", "124726.593000", "124729.093000", "124730.594000", "124732.595000", "124734.594000", "124736.594000", "124739.094000", "124740.594000", "124742.594000", "124744.593000", "124746.593000", "124748.594000", "124750.594000", "124753.094000", "124754.594000", "124756.595000", "124758.594000", "124800.594000", "124803.093000", "124804.593000", "124806.594000", "124808.594000", "124810.594000", "124812.595000", "124814.594000", "124816.594000", "124818.593000", "124820.593000", "124822.594000", "124824.594000", "124826.594000", "124828.594000", "124830.594000", "124832.594000", "124834.594000", "124836.593000", "124838.593000", "124840.594000", "124843.095000", "124845.094000", "124846.594000", "124848.594000", "124850.594000", "124852.594000", "124854.593000", "124856.593000", "124858.594000", "124900.595000", "124902.594000", "124904.594000", "124906.594000", "124908.595000", "124910.594000", "124912.594000", "124914.594000", "124916.594000", "124918.594000", "124920.595000", "124922.594000", "124924.595000", "124926.594000", "124928.593000", "124930.593000", "124932.594000", "124934.595000", "124937.095000", "124938.594000", "124940.594000", "124942.594000", "124945.094000", "124946.593000", "124948.593000", "124950.594000", "124952.594000", "124954.595000", "124956.594000", "124958.595000", "125000.594000", "125002.594000", "125004.594000", "125006.594000", "125008.595000", "125010.594000", "125012.595000", "125014.594000", "125016.594000", "125018.594000", "125020.594000", "125022.593000", "125025.094000", "125026.594000", "125028.594000", "125030.594000", "125032.594000", "125034.594000", "125036.594000", "125038.593000", "125040.594000", "125042.594000", "125044.594000", "125046.594000", "125049.094000", "125050.594000", "125052.594000", "125054.594000", "125056.593000", "125058.593000", "125100.594000", "125102.595000", "125104.594000", "125106.594000", "125108.594000", "125110.594000", "125112.595000", "125114.593000", "125116.593000", "125118.594000", "125120.594000", "125122.595000", "125124.594000", "125126.594000", "125128.595000", "125130.594000", "125132.593000", "125134.594000", "125136.594000", "125138.594000", "125140.594000", "125142.594000", "125144.594000", "125146.594000", "125148.594000", "125150.593000", "125153.107000", "125154.594000", "125156.594000", "125159.095000", "125200.594000", "125202.594000", "125204.594000", "125206.593000", "125208.593000", "125210.595000", "125213.094000", "125214.594000", "125216.594000", "125219.094000", "125221.094000", "125222.594000", "125225.094000", "125226.593000", "125228.594000", "125230.595000", "125232.594000", "125234.595000", "125236.594000", "125238.595000", "125240.594000", "125242.593000", "125244.594000", "125247.094000", "125248.594000", "125250.594000", "125252.594000", "125254.595000", "125256.594000", "125258.594000", "125300.593000", "125303.094000", "125304.594000", "125306.594000", "125308.595000", "125311.094000", "125312.594000", "125314.594000", "125316.593000", "125318.593000", "125320.560000"],
      "InstanceCreationTime": ["124539.098000", "124540.595000", "124542.593000", "124544.594000", "124546.595000", "124548.594000", "124550.594000", "124552.594000", "124554.594000", "124557.094000", "124559.093000", "124600.593000", "124602.593000", "124604.594000", "124606.594000", "124608.594000", "124610.594000", "124612.594000", "124614.594000", "124616.593000", "124618.594000", "124620.594000", "124622.594000", "124624.594000", "124626.594000", "124628.594000", "124630.594000", "124632.594000", "124634.593000", "124636.593000", "124638.594000", "124640.594000", "124642.595000", "124644.594000", "124646.594000", "124648.594000", "124650.594000", "124652.593000", "124654.593000", "124656.595000", "124658.594000", "124700.594000", "124702.594000", "124704.594000", "124706.594000", "124708.594000", "124710.593000", "124712.593000", "124714.594000", "124716.594000", "124718.595000", "124720.594000", "124722.594000", "124724.594000", "124726.593000", "124729.093000", "124730.594000", "124732.595000", "124734.594000", "124736.594000", "124739.094000", "124740.594000", "124742.594000", "124744.593000", "124746.593000", "124748.594000", "124750.594000", "124753.094000", "124754.594000", "124756.595000", "124758.594000", "124800.594000", "124803.093000", "124804.593000", "124806.594000", "124808.594000", "124810.594000", "124812.595000", "124814.594000", "124816.594000", "124818.593000", "124820.593000", "124822.594000", "124824.594000", "124826.594000", "124828.594000", "124830.594000", "124832.594000", "124834.594000", "124836.593000", "124838.593000", "124840.594000", "124843.095000", "124845.094000", "124846.594000", "124848.594000", "124850.594000", "124852.594000", "124854.593000", "124856.593000", "124858.594000", "124900.595000", "124902.594000", "124904.594000", "124906.594000", "124908.595000", "124910.594000", "124912.594000", "124914.594000", "124916.594000", "124918.594000", "124920.595000", "124922.594000", "124924.595000", "124926.594000", "124928.593000", "124930.593000", "124932.594000", "124934.595000", "124937.095000", "124938.594000", "124940.594000", "124942.594000", "124945.094000", "124946.593000", "124948.593000", "124950.594000", "124952.594000", "124954.595000", "124956.594000", "124958.595000", "125000.594000", "125002.594000", "125004.594000", "125006.594000", "125008.595000", "125010.594000", "125012.595000", "125014.594000", "125016.594000", "125018.594000", "125020.594000", "125022.593000", "125025.094000", "125026.594000", "125028.594000", "125030.594000", "125032.594000", "125034.594000", "125036.594000", "125038.593000", "125040.594000", "125042.594000", "125044.594000", "125046.594000", "125049.094000", "125050.594000", "125052.594000", "125054.594000", "125056.593000", "125058.593000", "125100.594000", "125102.595000", "125104.594000", "125106.594000", "125108.594000", "125110.594000", "125112.595000", "125114.593000", "125116.593000", "125118.594000", "125120.594000", "125122.595000", "125124.594000", "125126.594000", "125128.595000", "125130.594000", "125132.593000", "125134.594000", "125136.594000", "125138.594000", "125140.594000", "125142.594000", "125144.594000", "125146.594000", "125148.594000", "125150.593000", "125153.107000", "125154.594000", "125156.594000", "125159.095000", "125200.594000", "125202.594000", "125204.594000", "125206.593000", "125208.593000", "125210.595000", "125213.094000", "125214.594000", "125216.594000", "125219.094000", "125221.094000", "125222.594000", "125225.094000", "125226.593000", "125228.594000", "125230.595000", "125232.594000", "125234.595000", "125236.594000", "125238.595000", "125240.594000", "125242.593000", "125244.594000", "125247.094000", "125248.594000", "125250.594000", "125252.594000", "125254.595000", "125256.594000", "125258.594000", "125300.593000", "125303.094000", "125304.594000", "125306.594000", "125308.595000", "125311.094000", "125312.594000", "125314.594000", "125316.593000", "125318.593000", "125320.560000"],
      "InstanceNumber": [1, 2, 3, 4, 5, 6, 7, 8, 9, 10, 11, 12, 13, 14, 15, 16, 17, 18, 19, 20, 21, 22, 23, 24, 25, 26, 27, 28, 29, 30, 31, 32, 33, 34, 35, 36, 37, 38, 39, 40, 41, 42, 43, 44, 45, 46, 47, 48, 49, 50, 51, 52, 53, 54, 55, 56, 57, 58, 59, 60, 61, 62, 63, 64, 65, 66, 67, 68, 69, 70, 71, 72, 73, 74, 75, 76, 77, 78, 79, 80, 81, 82, 83, 84, 85, 86, 87, 88, 89, 90, 91, 92, 93, 94, 95, 96, 97, 98, 99, 100, 101, 102, 103, 104, 105, 106, 107, 108, 109, 110, 111, 112, 113, 114, 115, 116, 117, 118, 119, 120, 121, 122, 123, 124, 125, 126, 127, 128, 129, 130, 131, 132, 133, 134, 135, 136, 137, 138, 139, 140, 141, 142, 143, 144, 145, 146, 147, 148, 149, 150, 151, 152, 153, 154, 155, 156, 157, 158, 159, 160, 161, 162, 163, 164, 165, 166, 167, 168, 169, 170, 171, 172, 173, 174, 175, 176, 177, 178, 179, 180, 181, 182, 183, 184, 185, 186, 187, 188, 189, 190, 191, 192, 193, 194, 195, 196, 197, 198, 199, 200, 201, 202, 203, 204, 205, 206, 207, 208, 209, 210, 211, 212, 213, 214, 215, 216, 217, 218, 219, 220, 221, 222, 223, 224, 225, 226, 227, 228, 229, 230, 231, 232],
      "LargestImagePixelValue": [2138, 2097, 2151, 2140, 2100, 2141, 2156, 2119, 2089, 2075, 2058, 2097, 2210, 2058, 2239, 2100, 2146, 2116, 2077, 2073, 2097, 2095, 2108, 2067, 2064, 2087, 2103, 2064, 2032, 2049, 2041, 2063, 2080, 2075, 2058, 2029, 2279, 2062, 2054, 2037, 2095, 2122, 2085, 2130, 2057, 2075, 2125, 2040, 2048, 2068, 2048, 2027, 2033, 2038, 2030, 2112, 2070, 2088, 2050, 2045, 2092, 2123, 2070, 2095, 2093, 2093, 2097, 2125, 2117, 2127, 2125, 2121, 2134, 2136, 2150, 2159, 2147, 2137, 2125, 2132, 2205, 2125, 2113, 2086, 2095, 2107, 2114, 2088, 2131, 2085, 2115, 2095, 2080, 2074, 2062, 2069, 2107, 2215, 2179, 2158, 2099, 2221, 2141, 2079, 2084, 2112, 2073, 2067, 2051, 2061, 2081, 2048, 2046, 2100, 2119, 2123, 2118, 2128, 2099, 2167, 2179, 2099, 2144, 2117, 2081, 2090, 2159, 2151, 2100, 2064, 2083, 2109, 2077, 2037, 2134, 2136, 2155, 2128, 2133, 2090, 2111, 2104, 2127, 2137, 2109, 2133, 2146, 2098, 2077, 2152, 2087, 2126, 2131, 2150, 2156, 2132, 2110, 2180, 2170, 2204, 2159, 2132, 2150, 2162, 2159, 2088, 2150, 2148, 2155, 2111, 2113, 2154, 2148, 2183, 2155, 2174, 2190, 2170, 2153, 2187, 2171, 2163, 2185, 2174, 2156, 2155, 2155, 2109, 2072, 2117, 2118, 2066, 2079, 2142, 2146, 2111, 2106, 2208, 2116, 2117, 2105, 2153, 2123, 2083, 2080, 2141, 2103, 2116, 2086, 2116, 2114, 2148, 2129, 2131, 2138, 2124, 2110, 2127, 2106, 2101, 2128, 2142, 2162, 2109, 2071, 2184, 2115, 2149, 2110, 2115, 2131, 2128],
      "WindowCenter": [651.0, 649.0, 649.0, 650.0, 651.0, 650.0, 649.0, 651.0, 649.0, 651.0, 651.0, 651.0, 653.0, 650.0, 652.0, 649.0, 651.0, 654.0, 655.0, 653.0, 652.0, 651.0, 651.0, 650.0, 650.0, 651.0, 654.0, 653.0, 651.0, 649.0, 649.0, 651.0, 650.0, 645.0, 650.0, 644.0, 657.0, 650.0, 649.0, 647.0, 649.0, 650.0, 655.0, 655.0, 653.0, 652.0, 653.0, 650.0, 651.0, 652.0, 653.0, 654.0, 652.0, 649.0, 652.0, 656.0, 652.0, 652.0, 652.0, 650.0, 651.0, 651.0, 650.0, 652.0, 652.0, 653.0, 654.0, 653.0, 652.0, 653.0, 653.0, 652.0, 651.0, 654.0, 655.0, 653.0, 652.0, 654.0, 652.0, 654.0, 656.0, 652.0, 651.0, 652.0, 651.0, 649.0, 650.0, 651.0, 651.0, 650.0, 653.0, 652.0, 650.0, 650.0, 651.0, 649.0, 644.0, 647.0, 653.0, 654.0, 647.0, 656.0, 652.0, 649.0, 650.0, 652.0, 652.0, 651.0, 649.0, 648.0, 650.0, 649.0, 648.0, 651.0, 653.0, 653.0, 653.0, 651.0, 648.0, 652.0, 653.0, 650.0, 651.0, 651.0, 648.0, 647.0, 651.0, 652.0, 649.0, 646.0, 646.0, 652.0, 650.0, 648.0, 652.0, 652.0, 652.0, 651.0, 652.0, 652.0, 651.0, 649.0, 650.0, 652.0, 651.0, 651.0, 650.0, 647.0, 650.0, 654.0, 651.0, 649.0, 648.0, 649.0, 650.0, 650.0, 650.0, 650.0, 651.0, 651.0, 650.0, 650.0, 653.0, 651.0, 649.0, 645.0, 647.0, 649.0, 651.0, 648.0, 648.0, 649.0, 649.0, 650.0, 648.0, 648.0, 651.0, 653.0, 650.0, 651.0, 651.0, 649.0, 649.0, 649.0, 651.0, 653.0, 651.0, 649.0, 648.0, 647.0, 648.0, 647.0, 646.0, 649.0, 651.0, 648.0, 648.0, 649.0, 648.0, 646.0, 645.0, 648.0, 651.0, 650.0, 649.0, 649.0, 646.0, 647.0, 647.0, 649.0, 650.0, 650.0, 650.0, 651.0, 649.0, 648.0, 648.0, 649.0, 649.0, 648.0, 648.0, 650.0, 649.0, 650.0, 648.0, 649.0, 648.0, 649.0, 647.0, 648.0, 648.0, 647.0],
      "WindowWidth": [1374.0, 1371.0, 1370.0, 1372.0, 1375.0, 1372.0, 1370.0, 1374.0, 1370.0, 1374.0, 1376.0, 1374.0, 1378.0, 1373.0, 1375.0, 1370.0, 1374.0, 1381.0, 1384.0, 1380.0, 1377.0, 1375.0, 1374.0, 1373.0, 1373.0, 1374.0, 1380.0, 1379.0, 1374.0, 1371.0, 1370.0, 1374.0, 1372.0, 1361.0, 1373.0, 1359.0, 1385.0, 1373.0, 1370.0, 1367.0, 1371.0, 1371.0, 1382.0, 1382.0, 1378.0, 1376.0, 1378.0, 1373.0, 1375.0, 1377.0, 1380.0, 1382.0, 1376.0, 1370.0, 1378.0, 1385.0, 1377.0, 1376.0, 1376.0, 1372.0, 1374.0, 1375.0, 1372.0, 1377.0, 1377.0, 1378.0, 1381.0, 1379.0, 1377.0, 1379.0, 1380.0, 1376.0, 1375.0, 1382.0, 1383.0, 1379.0, 1377.0, 1380.0, 1377.0, 1381.0, 1384.0, 1375.0, 1375.0, 1377.0, 1374.0, 1371.0, 1373.0, 1374.0, 1374.0, 1372.0, 1379.0, 1377.0, 1373.0, 1372.0, 1375.0, 1372.0, 1360.0, 1365.0, 1378.0, 1381.0, 1366.0, 1386.0, 1376.0, 1371.0, 1373.0, 1377.0, 1376.0, 1374.0, 1370.0, 1367.0, 1371.0, 1371.0, 1369.0, 1375.0, 1380.0, 1379.0, 1379.0, 1375.0, 1368.0, 1376.0, 1379.0, 1371.0, 1375.0, 1375.0, 1368.0, 1366.0, 1373.0, 1377.0, 1369.0, 1364.0, 1363.0, 1377.0, 1373.0, 1367.0, 1375.0, 1376.0, 1377.0, 1375.0, 1377.0, 1378.0, 1375.0, 1369.0, 1372.0, 1376.0, 1375.0, 1375.0, 1373.0, 1367.0, 1374.0, 1381.0, 1374.0, 1369.0, 1368.0, 1371.0, 1372.0, 1372.0, 1371.0, 1372.0, 1373.0, 1375.0, 1372.0, 1372.0, 1378.0, 1375.0, 1369.0, 1363.0, 1366.0, 1370.0, 1374.0, 1369.0, 1369.0, 1369.0, 1371.0, 1371.0, 1367.0, 1368.0, 1375.0, 1378.0, 1373.0, 1375.0, 1374.0, 1369.0, 1369.0, 1370.0, 1375.0, 1378.0, 1375.0, 1370.0, 1368.0, 1365.0, 1368.0, 1366.0, 1364.0, 1371.0, 1375.0, 1368.0, 1369.0, 1369.0, 1367.0, 1364.0, 1362.0, 1368.0, 1374.0, 1374.0, 1371.0, 1371.0, 1365.0, 1366.0, 1366.0, 1371.0, 1373.0, 1372.0, 1372.0, 1374.0, 1370.0, 1367.0, 1368.0, 1371.0, 1371.0, 1367.0, 1369.0, 1372.0, 1372.0, 1372.0, 1368.0, 1369.0, 1369.0, 1370.0, 1367.0, 1368.0, 1368.0, 1366.0]
    },
    "slices": {}
  }
}