{
  "AcquisitionMatrixPE": 100,
  "AcquisitionNumber": 1,
  "AcquisitionTime": "12:54:15.965000",
  "BandwidthPerPixelPhaseEncode": 18.519,
  "BaseResolution": 100,
  "BodyPartExamined": "BRAIN",
  "ConsistencyInfo": "N4_VE11C_LATEST_20160120",
  "ConversionSoftware": "dcm2niix",
  "ConversionSoftwareVersion": "v1.0.20180622 GCC4.9.2",
  "DerivedVendorReportedEchoSpacing": 0.000539986,
  "DeviceSerialNumber": "166078",
  "DwellTime": 2.1e-06,
  "EchoTime": 0.034,
  "EchoTrainLength": 100,
  "EffectiveEchoSpacing": 0.000539986,
  "FlipAngle": 90,
  "ImageOrientationPatientDICOM": [0.99914, 0.0114361, 0.0398486, 3.13087e-08, 0.9612, -0.275854],
  "ImageType": [
    "ORIGINAL",
    "PRIMARY",
    "M",
    "ND",
    "MOSAIC"
],
  "InPlanePhaseEncodingDirectionDICOM": "COL",
  "InstitutionAddress": "Street_StreetNo_Bei_Jing_District_CN_ZIP",
  "InstitutionName": "BeiJing_Normal_University",
  "InstitutionalDepartmentName": "Department",
  "MRAcquisitionType": "2D",
  "MagneticFieldStrength": 3,
  "Manufacturer": "Siemens",
  "ManufacturersModelName": "Prisma",
  "Modality": "MR",
  "MultibandAccelerationFactor": 3,
  "PartialFourier": 1,
  "PatientPosition": "HFS",
  "PercentPhaseFOV": 100,
  "PhaseEncodingDirection": "j-",
  "PhaseEncodingSteps": 100,
  "PhaseResolution": 1,
  "PixelBandwidth": 2380,
  "ProcedureStepDescription": "BNU_P2018_64CH_Liu.Jia",
  "ProtocolName": "bold_100x100_s3_2x2x2_232",
  "PulseSequenceDetails": "%SiemensSeq%_ep2d_bold",
  "ReceiveCoilActiveElements": "HC1-7;NC1",
  "ReceiveCoilName": "HeadNeck_64",
  "ReconMatrixPE": 100,
  "RepetitionTime": 2,
  "SAR": 0.064678,
  "ScanOptions": "FS",
  "ScanningSequence": "EP",
  "SequenceName": "_epfid2d1_100",
  "SequenceVariant": "SK",
  "SeriesDescription": "bold_100x100_s3_2x2x2_232",
  "SeriesNumber": 4,
  "ShimSetting": [-5438, -11472, -1304, 275, -113, -333, -118, -64],
  "SliceThickness": 2,
  "SliceTiming": [1.485, 0, 0.99, 0.0825, 1.0725, 0.165, 1.155, 0.2475, 1.2375, 0.33, 1.32, 0.4125, 1.4025, 0.5775, 1.5675, 0.66, 1.65, 0.7425, 1.7325, 0.825, 1.815, 0.9075, 1.8975, 0.495, 1.485, 0, 0.99, 0.0825, 1.0725, 0.165, 1.155, 0.2475, 1.2375, 0.33, 1.32, 0.4125, 1.4025, 0.5775, 1.5675, 0.66, 1.65, 0.7425, 1.7325, 0.825, 1.815, 0.9075, 1.8975, 0.495, 1.485, 0, 0.99, 0.0825, 1.0725, 0.165, 1.155, 0.2475, 1.2375, 0.33, 1.32, 0.4125, 1.4025, 0.5775, 1.5675, 0.66, 1.65, 0.7425, 1.7325, 0.825, 1.815, 0.9075, 1.8975, 0.495],
  "SoftwareVersions": "syngo_MR_E11",
  "SpacingBetweenSlices": 2,
  "StationName": "AWP166078",
  "TaskName": "motor",
  "TotalReadoutTime": 0.0534586,
  "TxRefAmp": 238.915,
  "dcmmeta_affine": [
    [-1.9982805252075195, 6.261741702928703e-08, 0.08291423320770264, 96.36469268798828],
    [-0.022872157394886017, 1.9223991632461548, -0.5512335300445557, -66.622314453125],
    [0.0796971470117569, 0.5517078638076782, 1.9207464456558228, -123.61256408691406],
    [0.0, 0.0, 0.0, 1.0]
],
  "dcmmeta_reorient_transform": [
    [0.0, -1.0, 0.0, 99.0],
    [1.0, 0.0, 0.0, 0.0],
    [0.0, 0.0, 1.0, 0.0],
    [0.0, 0.0, 0.0, 1.0]
],
  "dcmmeta_shape": [100, 100, 72, 232],
  "dcmmeta_slice_dim": 2,
  "dcmmeta_version": 0.6,
  "global": {
    "const": {
      "AcquisitionMatrix": [100, 0, 0, 100],
      "AngioFlag": "N",
      "BitsAllocated": 16,
      "BitsStored": 12,
      "BodyPartExamined": "BRAIN",
      "Columns": 900,
      "EchoNumbers": 1,
      "EchoTime": 34.0,
      "EchoTrainLength": 100,
      "FlipAngle": 90.0,
      "HighBit": 11,
      "ImageOrientationPatient": [0.99914028413742, 0.01143607912787, 0.03984857222019, 3.1308708e-08, 0.96119956558351, -0.2758539380217],
      "ImagePositionPatient": [-895.67695462066, -901.80371705055, 119.81080456315],
      "ImageType": [
        "ORIGINAL",
        "PRIMARY",
        "M",
        "ND",
        "MOSAIC"
],
      "ImagedNucleus": "1H",
      "ImagingFrequency": 123.257852,
      "InPlanePhaseEncodingDirection": "COL",
      "MRAcquisitionType": "2D",
      "MagneticFieldStrength": 3.0,
      "Manufacturer": "SIEMENS",
      "ManufacturerModelName": "Prisma",
      "Modality": "MR",
      "NumberOfAverages": 1.0,
      "NumberOfPhaseEncodingSteps": 100,
      "PercentPhaseFieldOfView": 100.0,
      "PercentSampling": 100.0,
      "PerformedProcedureStepStartTime": "124231.491000",
      "PhotometricInterpretation": "MONOCHROME2",
      "PixelBandwidth": 2380.0,
      "PixelRepresentation": 0,
      "PixelSpacing": [2.0, 2.0],
      "ProtocolName": "bold_100x100_s3_2x2x2_232",
      "RepetitionTime": 2000.0,
      "Rows": 900,
      "SAR": 0.06467795230575,
      "SamplesPerPixel": 1,
      "ScanOptions": "FS",
      "ScanningSequence": "EP",
      "SequenceName": "*epfid2d1_100",
      "SequenceVariant": "SK",
      "SeriesDescription": "bold_100x100_s3_2x2x2_232",
      "SeriesNumber": 4,
      "SeriesTime": "125418.258000",
      "SliceLocation": -96.356968059385,
      "SliceThickness": 2.0,
      "SmallestImagePixelValue": 0,
      "SoftwareVersions": "syngo MR E11",
      "SpacingBetweenSlices": 1.9999999727662,
      "SpecificCharacterSet": "ISO_IR 100",
      "StudyID": "1",
      "StudyTime": "124231.384000",
      "TransmitCoilName": "Body",
      "VariableFlipAngleFlag": "N",
      "WindowCenterWidthExplanation": "Algo1",
      "dBdt": 0.0},
    "slices": {}
  },
  "time": {
    "samples": {
      "AcquisitionNumber": [1, 2, 3, 4, 5, 6, 7, 8, 9, 10, 11, 12, 13, 14, 15, 16, 17, 18, 19, 20, 21, 22, 23, 24, 25, 26, 27, 28, 29, 30, 31, 32, 33, 34, 35, 36, 37, 38, 39, 40, 41, 42, 43, 44, 45, 46, 47, 48, 49, 50, 51, 52, 53, 54, 55, 56, 57, 58, 59, 60, 61, 62, 63, 64, 65, 66, 67, 68, 69, 70, 71, 72, 73, 74, 75, 76, 77, 78, 79, 80, 81, 82, 83, 84, 85, 86, 87, 88, 89, 90, 91, 92, 93, 94, 95, 96, 97, 98, 99, 100, 101, 102, 103, 104, 105, 106, 107, 108, 109, 110, 111, 112, 113, 114, 115, 116, 117, 118, 119, 120, 121, 122, 123, 124, 125, 126, 127, 128, 129, 130, 131, 132, 133, 134, 135, 136, 137, 138, 139, 140, 141, 142, 143, 144, 145, 146, 147, 148, 149, 150, 151, 152, 153, 154, 155, 156, 157, 158, 159, 160, 161, 162, 163, 164, 165, 166, 167, 168, 169, 170, 171, 172, 173, 174, 175, 176, 177, 178, 179, 180, 181, 182, 183, 184, 185, 186, 187, 188, 189, 190, 191, 192, 193, 194, 195, 196, 197, 198, 199, 200, 201, 202, 203, 204, 205, 206, 207, 208, 209, 210, 211, 212, 213, 214, 215, 216, 217, 218, 219, 220, 221, 222, 223, 224, 225, 226, 227, 228, 229, 230, 231, 232],
      "AcquisitionTime": ["125415.965000", "125417.965000", "125419.965000", "125421.965000", "125423.965000", "125425.965000", "125427.965000", "125429.965000", "125431.965000", "125433.965000", "125435.965000", "125437.965000", "125439.965000", "125441.965000", "125443.965000", "125445.965000", "125447.965000", "125449.965000", "125451.965000", "125453.965000", "125455.965000", "125457.965000", "125459.965000", "125501.965000", "125503.965000", "125505.965000", "125507.965000", "125509.965000", "125511.965000", "125513.965000", "125515.965000", "125517.965000", "125519.965000", "125521.965000", "125523.965000", "125525.965000", "125527.965000", "125529.965000", "125531.965000", "125533.965000", "125535.965000", "125537.965000", "125539.965000", "125541.965000", "125543.965000", "125545.965000", "125547.965000", "125549.965000", "125551.965000", "125553.965000", "125555.965000", "125557.965000", "125559.965000", "125601.965000", "125603.965000", "125605.965000", "125607.965000", "125609.965000", "125611.965000", "125613.965000", "125615.965000", "125617.965000", "125619.965000", "125621.965000", "125623.965000", "125625.965000", "125627.965000", "125629.965000", "125631.965000", "125633.965000", "125635.965000", "125637.965000", "125639.965000", "125641.965000", "125643.965000", "125645.965000", "125647.965000", "125649.965000", "125651.965000", "125653.965000", "125655.965000", "125657.965000", "125659.965000", "125701.965000", "125703.965000", "125705.965000", "125707.965000", "125709.965000", "125711.965000", "125713.965000", "125715.965000", "125717.965000", "125719.965000", "125721.965000", "125723.965000", "125725.965000", "125727.965000", "125729.965000", "125731.965000", "125733.965000", "125735.965000", "125737.965000", "125739.965000", "125741.965000", "125743.965000", "125745.965000", "125747.965000", "125749.965000", "125751.965000", "125753.965000", "125755.965000", "125757.965000", "125759.965000", "125801.965000", "125803.965000", "125805.965000", "125807.965000", "125809.965000", "125811.965000", "125813.965000", "125815.965000", "125817.965000", "125819.965000", "125821.965000", "125823.965000", "125825.965000", "125827.965000", "125829.965000", "125831.965000", "125833.965000", "125835.965000", "125837.965000", "125839.965000", "125841.965000", "125843.965000", "125845.965000", "125847.965000", "125849.965000", "125851.965000", "125853.965000", "125855.965000", "125857.965000", "125859.965000", "125901.965000", "125903.965000", "125905.965000", "125907.965000", "125909.965000", "125911.965000", "125913.965000", "125915.965000", "125917.965000", "125919.965000", "125921.965000", "125923.965000", "125925.965000", "125927.965000", "125929.965000", "125931.965000", "125933.965000", "125935.965000", "125937.965000", "125939.965000", "125941.965000", "125943.965000", "125945.965000", "125947.965000", "125949.965000", "125951.965000", "125953.965000", "125955.965000", "125957.965000", "125959.965000", "130001.965000", "130003.965000", "130005.965000", "130007.965000", "130009.965000", "130011.965000", "130013.965000", "130015.965000", "130017.965000", "130019.965000", "130021.965000", "130023.965000", "130025.965000", "130027.965000", "130029.965000", "130031.965000", "130033.965000", "130035.965000", "130037.965000", "130039.965000", "130041.965000", "130043.965000", "130045.965000", "130047.965000", "130049.965000", "130051.965000", "130053.965000", "130055.965000", "130057.965000", "130059.965000", "130101.965000", "130103.965000", "130105.965000", "130107.965000", "130109.965000", "130111.965000", "130113.965000", "130115.965000", "130117.965000", "130119.965000", "130121.965000", "130123.965000", "130125.965000", "130127.965000", "130129.965000", "130131.965000", "130133.965000", "130135.965000", "130137.965000", "130139.965000", "130141.965000", "130143.965000", "130145.965000", "130147.965000", "130149.965000", "130151.965000", "130153.965000", "130155.965000", "130157.965000"],
      "ContentTime": ["125418.262000", "125420.257000", "125422.258000", "125424.257000", "125425.757000", "125427.757000", "125429.758000", "125431.758000", "125433.757000", "125435.757000", "125437.757000", "125439.757000", "125442.258000", "125443.757000", "125445.757000", "125447.758000", "125449.757000", "125452.257000", "125453.757000", "125455.757000", "125457.757000", "125459.757000", "125501.757000", "125503.758000", "125506.258000", "125507.757000", "125509.757000", "125511.757000", "125513.757000", "125515.757000", "125517.758000", "125519.757000", "125521.757000", "125523.758000", "125525.757000", "125527.757000", "125529.757000", "125531.757000", "125534.257000", "125535.757000", "125538.257000", "125539.759000", "125541.757000", "125543.758000", "125545.757000", "125547.757000", "125550.257000", "125551.757000", "125553.758000", "125555.757000", "125558.258000", "125559.757000", "125601.757000", "125603.757000", "125605.758000", "125607.757000", "125609.757000", "125611.757000", "125613.757000", "125615.758000", "125617.758000", "125620.258000", "125621.757000", "125623.758000", "125625.758000", "125627.757000", "125629.757000", "125631.757000", "125633.759000", "125635.757000", "125637.757000", "125640.258000", "125641.757000", "125643.757000", "125646.257000", "125647.757000", "125649.758000", "125651.757000", "125653.757000", "125655.757000", "125657.758000", "125659.757000", "125701.757000", "125703.757000", "125705.758000", "125707.758000", "125709.758000", "125711.757000", "125714.257000", "125715.757000", "125717.757000", "125719.757000", "125721.757000", "125724.257000", "125725.758000", "125728.258000", "125729.757000", "125731.757000", "125733.757000", "125735.757000", "125737.757000", "125739.757000", "125741.757000", "125744.257000", "125745.757000", "125747.757000", "125749.757000", "125751.757000", "125753.758000", "125755.757000", "125757.757000", "125759.758000", "125801.757000", "125803.757000", "125805.757000", "125807.757000", "125810.258000", "125812.258000", "125813.758000", "125815.758000", "125818.259000", "125819.757000", "125822.257000", "125823.757000", "125825.758000", "125828.257000", "125829.757000", "125831.758000", "125833.757000", "125836.259000", "125837.757000", "125839.757000", "125841.757000", "125843.757000", "125845.757000", "125848.258000", "125850.258000", "125851.757000", "125854.258000", "125855.757000", "125857.757000", "125900.258000", "125902.258000", "125903.757000", "125905.758000", "125907.758000", "125909.758000", "125912.257000", "125913.757000", "125915.758000", "125918.257000", "125920.257000", "125922.257000", "125923.757000", "125926.257000", "125927.759000", "125929.757000", "125931.757000", "125933.757000", "125935.758000", "125938.258000", "125939.757000", "125941.757000", "125943.758000", "125945.758000", "125947.757000", "125949.757000", "125951.757000", "125953.757000", "125955.757000", "125957.757000", "125959.757000", "130001.757000", "130003.758000", "130006.258000", "130007.757000", "130009.757000", "130011.757000", "130013.757000", "130015.757000", "130017.757000", "130019.758000", "130021.757000", "130023.757000", "130026.257000", "130027.758000", "130029.757000", "130031.758000", "130033.757000", "130036.257000", "130038.258000", "130039.758000", "130041.758000", "130043.757000", "130045.758000", "130047.757000", "130050.258000", "130051.757000", "130053.757000", "130055.758000", "130058.257000", "130059.757000", "130102.257000", "130103.758000", "130105.757000", "130108.258000", "130109.757000", "130112.258000", "130113.758000", "130116.257000", "130117.758000", "130120.257000", "130121.757000", "130123.757000", "130125.758000", "130127.757000", "130129.759000", "130132.257000", "130133.757000", "130135.757000", "130137.758000", "130140.258000", "130142.257000", "130143.758000", "130145.757000", "130147.758000", "130149.757000", "130151.757000", "130153.758000", "130155.757000", "130158.258000", "130159.703000"],
      "InstanceCreationTime": ["125418.262000", "125420.257000", "125422.258000", "125424.257000", "125425.757000", "125427.757000", "125429.758000", "125431.758000", "125433.757000", "125435.757000", "125437.757000", "125439.757000", "125442.258000", "125443.757000", "125445.757000", "125447.758000", "125449.757000", "125452.257000", "125453.757000", "125455.757000", "125457.757000", "125459.757000", "125501.757000", "125503.758000", "125506.258000", "125507.757000", "125509.757000", "125511.757000", "125513.757000", "125515.757000", "125517.758000", "125519.757000", "125521.757000", "125523.758000", "125525.757000", "125527.757000", "125529.757000", "125531.757000", "125534.257000", "125535.757000", "125538.257000", "125539.759000", "125541.757000", "125543.758000", "125545.757000", "125547.757000", "125550.257000", "125551.757000", "125553.758000", "125555.757000", "125558.258000", "125559.757000", "125601.757000", "125603.757000", "125605.758000", "125607.757000", "125609.757000", "125611.757000", "125613.757000", "125615.758000", "125617.758000", "125620.258000", "125621.757000", "125623.758000", "125625.758000", "125627.757000", "125629.757000", "125631.757000", "125633.759000", "125635.757000", "125637.757000", "125640.258000", "125641.757000", "125643.757000", "125646.257000", "125647.757000", "125649.758000", "125651.757000", "125653.757000", "125655.757000", "125657.758000", "125659.757000", "125701.757000", "125703.757000", "125705.758000", "125707.758000", "125709.758000", "125711.757000", "125714.257000", "125715.757000", "125717.757000", "125719.757000", "125721.757000", "125724.257000", "125725.758000", "125728.258000", "125729.757000", "125731.757000", "125733.757000", "125735.757000", "125737.757000", "125739.757000", "125741.757000", "125744.257000", "125745.757000", "125747.757000", "125749.757000", "125751.757000", "125753.758000", "125755.757000", "125757.757000", "125759.758000", "125801.757000", "125803.757000", "125805.757000", "125807.757000", "125810.258000", "125812.258000", "125813.758000", "125815.758000", "125818.259000", "125819.757000", "125822.257000", "125823.757000", "125825.758000", "125828.257000", "125829.757000", "125831.758000", "125833.757000", "125836.259000", "125837.757000", "125839.757000", "125841.757000", "125843.757000", "125845.757000", "125848.258000", "125850.258000", "125851.757000", "125854.258000", "125855.757000", "125857.757000", "125900.258000", "125902.258000", "125903.757000", "125905.758000", "125907.758000", "125909.758000", "125912.257000", "125913.757000", "125915.758000", "125918.257000", "125920.257000", "125922.257000", "125923.757000", "125926.257000", "125927.759000", "125929.757000", "125931.757000", "125933.757000", "125935.758000", "125938.258000", "125939.757000", "125941.757000", "125943.758000", "125945.758000", "125947.757000", "125949.757000", "125951.757000", "125953.757000", "125955.757000", "125957.757000", "125959.757000", "130001.757000", "130003.758000", "130006.258000", "130007.757000", "130009.757000", "130011.757000", "130013.757000", "130015.757000", "130017.757000", "130019.758000", "130021.757000", "130023.757000", "130026.257000", "130027.758000", "130029.757000", "130031.758000", "130033.757000", "130036.257000", "130038.258000", "130039.758000", "130041.758000", "130043.757000", "130045.758000", "130047.757000", "130050.258000", "130051.757000", "130053.757000", "130055.758000", "130058.257000", "130059.757000", "130102.257000", "130103.758000", "130105.757000", "130108.258000", "130109.757000", "130112.258000", "130113.758000", "130116.257000", "130117.758000", "130120.257000", "130121.757000", "130123.757000", "130125.758000", "130127.757000", "130129.759000", "130132.257000", "130133.757000", "130135.757000", "130137.758000", "130140.258000", "130142.257000", "130143.758000", "130145.757000", "130147.758000", "130149.757000", "130151.757000", "130153.758000", "130155.757000", "130158.258000", "130159.703000"],
      "InstanceNumber": [1, 2, 3, 4, 5, 6, 7, 8, 9, 10, 11, 12, 13, 14, 15, 16, 17, 18, 19, 20, 21, 22, 23, 24, 25, 26, 27, 28, 29, 30, 31, 32, 33, 34, 35, 36, 37, 38, 39, 40, 41, 42, 43, 44, 45, 46, 47, 48, 49, 50, 51, 52, 53, 54, 55, 56, 57, 58, 59, 60, 61, 62, 63, 64, 65, 66, 67, 68, 69, 70, 71, 72, 73, 74, 75, 76, 77, 78, 79, 80, 81, 82, 83, 84, 85, 86, 87, 88, 89, 90, 91, 92, 93, 94, 95, 96, 97, 98, 99, 100, 101, 102, 103, 104, 105, 106, 107, 108, 109, 110, 111, 112, 113, 114, 115, 116, 117, 118, 119, 120, 121, 122, 123, 124, 125, 126, 127, 128, 129, 130, 131, 132, 133, 134, 135, 136, 137, 138, 139, 140, 141, 142, 143, 144, 145, 146, 147, 148, 149, 150, 151, 152, 153, 154, 155, 156, 157, 158, 159, 160, 161, 162, 163, 164, 165, 166, 167, 168, 169, 170, 171, 172, 173, 174, 175, 176, 177, 178, 179, 180, 181, 182, 183, 184, 185, 186, 187, 188, 189, 190, 191, 192, 193, 194, 195, 196, 197, 198, 199, 200, 201, 202, 203, 204, 205, 206, 207, 208, 209, 210, 211, 212, 213, 214, 215, 216, 217, 218, 219, 220, 221, 222, 223, 224, 225, 226, 227, 228, 229, 230, 231, 232],
      "LargestImagePixelValue": [2151, 2150, 2126, 2127, 2111, 2143, 2132, 2116, 2087, 2105, 2156, 2154, 2167, 2130, 2172, 2180, 2147, 2147, 2171, 2151, 2176, 2134, 2192, 2163, 2198, 2204, 2144, 2157, 2139, 2157, 2141, 2198, 2128, 2168, 2159, 2173, 2161, 2191, 2178, 2158, 2168, 2117, 2268, 2174, 2210, 2182, 2097, 2177, 2122, 2137, 2150, 2115, 2141, 2142, 2167, 2118, 2134, 2141, 2123, 2147, 2108, 2154, 2121, 2139, 2127, 2125, 2129, 2128, 2147, 2171, 2172, 2134, 2166, 2174, 2170, 2162, 2148, 2138, 2151, 2159, 2145, 2164, 2166, 2154, 2178, 2158, 2184, 2153, 2178, 2156, 2154, 2139, 2178, 2134, 2152, 2120, 2146, 2140, 2145, 2131, 2102, 2108, 2075, 2071, 2094, 2099, 2086, 2125, 2089, 2095, 2110, 2087, 2148, 2134, 2084, 2166, 2124, 2154, 2132, 2141, 2169, 2178, 2091, 2168, 2214, 2159, 2195, 2184, 2174, 2220, 2077, 2176, 2070, 2124, 2081, 2124, 2127, 2168, 2176, 2115, 2158, 2141, 2176, 2179, 2139, 2165, 2170, 2188, 2187, 2170, 2192, 2149, 2139, 2154, 2159, 2175, 2158, 2157, 2133, 2151, 2168, 2186, 2144, 2207, 2192, 2143, 2162, 2163, 2186, 2167, 2189, 2171, 2177, 2232, 2209, 2216, 2235, 2236, 2213, 2207, 2226, 2188, 2205, 2205, 2199, 2186, 2194, 2248, 2198, 2211, 2269, 2214, 2199, 2218, 2251, 2230, 2228, 2228, 2210, 2214, 2207, 2216, 2186, 2196, 2202, 2218, 2214, 2201, 2179, 2214, 2229, 2228, 2188, 2188, 2210, 2223, 2197, 2181, 2183, 2202, 2208, 2195, 2196, 2189, 2187, 2205, 2203, 2175, 2139, 2166, 2130, 2168],
      "WindowCenter": [653.0, 655.0, 652.0, 651.0, 650.0, 652.0, 653.0, 651.0, 649.0, 648.0, 652.0, 653.0, 650.0, 649.0, 649.0, 650.0, 652.0, 651.0, 652.0, 653.0, 652.0, 650.0, 652.0, 653.0, 654.0, 653.0, 654.0, 654.0, 652.0, 651.0, 651.0, 654.0, 653.0, 653.0, 653.0, 653.0, 652.0, 653.0, 653.0, 653.0, 652.0, 647.0, 657.0, 653.0, 653.0, 653.0, 649.0, 652.0, 650.0, 652.0, 653.0, 653.0, 653.0, 652.0, 654.0, 654.0, 653.0, 653.0, 653.0, 652.0, 650.0, 651.0, 651.0, 652.0, 652.0, 653.0, 652.0, 651.0, 651.0, 652.0, 652.0, 651.0, 654.0, 653.0, 653.0, 652.0, 651.0, 651.0, 652.0, 652.0, 651.0, 654.0, 654.0, 653.0, 653.0, 652.0, 653.0, 652.0, 653.0, 653.0, 653.0, 652.0, 653.0, 652.0, 652.0, 651.0, 652.0, 653.0, 654.0, 653.0, 651.0, 653.0, 650.0, 650.0, 652.0, 655.0, 654.0, 653.0, 651.0, 652.0, 652.0, 651.0, 652.0, 653.0, 652.0, 654.0, 653.0, 654.0, 653.0, 653.0, 653.0, 653.0, 653.0, 653.0, 656.0, 655.0, 654.0, 655.0, 655.0, 655.0, 652.0, 656.0, 652.0, 654.0, 652.0, 653.0, 651.0, 652.0, 654.0, 653.0, 653.0, 652.0, 654.0, 653.0, 652.0, 652.0, 654.0, 652.0, 651.0, 652.0, 653.0, 654.0, 654.0, 654.0, 653.0, 653.0, 653.0, 653.0, 651.0, 652.0, 655.0, 655.0, 653.0, 656.0, 656.0, 652.0, 652.0, 652.0, 653.0, 655.0, 655.0, 654.0, 652.0, 654.0, 655.0, 655.0, 654.0, 654.0, 654.0, 654.0, 654.0, 653.0, 652.0, 654.0, 655.0, 654.0, 655.0, 655.0, 654.0, 655.0, 655.0, 654.0, 654.0, 657.0, 658.0, 659.0, 659.0, 658.0, 657.0, 657.0, 655.0, 655.0, 655.0, 656.0, 655.0, 655.0, 656.0, 655.0, 654.0, 656.0, 657.0, 656.0, 654.0, 654.0, 655.0, 656.0, 657.0, 656.0, 655.0, 654.0, 655.0, 655.0, 654.0, 655.0, 654.0, 655.0, 656.0, 656.0, 654.0, 655.0, 653.0, 653.0],
      "WindowWidth": [1379.0, 1383.0, 1378.0, 1375.0, 1373.0, 1377.0, 1379.0, 1374.0, 1370.0, 1369.0, 1378.0, 1380.0, 1372.0, 1369.0, 1370.0, 1374.0, 1377.0, 1374.0, 1377.0, 1378.0, 1377.0, 1373.0, 1376.0, 1379.0, 1381.0, 1380.0, 1382.0, 1381.0, 1377.0, 1375.0, 1375.0, 1381.0, 1381.0, 1379.0, 1379.0, 1379.0, 1376.0, 1379.0, 1379.0, 1378.0, 1377.0, 1368.0, 1387.0, 1380.0, 1378.0, 1379.0, 1370.0, 1376.0, 1374.0, 1376.0, 1379.0, 1379.0, 1378.0, 1377.0, 1381.0, 1381.0, 1379.0, 1379.0, 1381.0, 1377.0, 1372.0, 1374.0, 1374.0, 1377.0, 1377.0, 1379.0, 1377.0, 1375.0, 1375.0, 1377.0, 1376.0, 1375.0, 1381.0, 1380.0, 1379.0, 1378.0, 1376.0, 1376.0, 1378.0, 1377.0, 1375.0, 1383.0, 1383.0, 1381.0, 1379.0, 1377.0, 1378.0, 1377.0, 1379.0, 1379.0, 1379.0, 1378.0, 1379.0, 1376.0, 1376.0, 1376.0, 1377.0, 1381.0, 1382.0, 1379.0, 1376.0, 1379.0, 1374.0, 1373.0, 1377.0, 1383.0, 1381.0, 1379.0, 1376.0, 1377.0, 1376.0, 1375.0, 1376.0, 1379.0, 1379.0, 1380.0, 1379.0, 1380.0, 1379.0, 1379.0, 1379.0, 1379.0, 1380.0, 1380.0, 1385.0, 1383.0, 1380.0, 1384.0, 1384.0, 1383.0, 1379.0, 1385.0, 1379.0, 1381.0, 1378.0, 1380.0, 1375.0, 1376.0, 1381.0, 1380.0, 1379.0, 1376.0, 1380.0, 1379.0, 1376.0, 1378.0, 1380.0, 1376.0, 1375.0, 1376.0, 1379.0, 1381.0, 1381.0, 1381.0, 1379.0, 1379.0, 1379.0, 1378.0, 1375.0, 1377.0, 1383.0, 1383.0, 1380.0, 1385.0, 1386.0, 1377.0, 1376.0, 1376.0, 1378.0, 1384.0, 1384.0, 1380.0, 1377.0, 1380.0, 1383.0, 1383.0, 1381.0, 1381.0, 1381.0, 1381.0, 1380.0, 1378.0, 1377.0, 1382.0, 1383.0, 1381.0, 1384.0, 1382.0, 1382.0, 1382.0, 1383.0, 1382.0, 1382.0, 1388.0, 1390.0, 1393.0, 1392.0, 1389.0, 1387.0, 1388.0, 1384.0, 1384.0, 1384.0, 1385.0, 1384.0, 1384.0, 1386.0, 1384.0, 1382.0, 1386.0, 1389.0, 1386.0, 1382.0, 1381.0, 1382.0, 1385.0, 1387.0, 1385.0, 1383.0, 1382.0, 1384.0, 1384.0, 1382.0, 1382.0, 1382.0, 1383.0, 1387.0, 1386.0, 1382.0, 1383.0, 1380.0, 1380.0]
    },
    "slices": {}
  }
}