{
  "AcquisitionMatrixPE": 100,
  "AcquisitionNumber": 1,
  "AcquisitionTime": "13:02:49.080000",
  "BandwidthPerPixelPhaseEncode": 18.519,
  "BaseResolution": 100,
  "BodyPartExamined": "BRAIN",
  "ConsistencyInfo": "N4_VE11C_LATEST_20160120",
  "ConversionSoftware": "dcm2niix",
  "ConversionSoftwareVersion": "v1.0.20180622 GCC4.9.2",
  "DerivedVendorReportedEchoSpacing": 0.000539986,
  "DeviceSerialNumber": "166078",
  "DwellTime": 2.1e-06,
  "EchoTime": 0.034,
  "EchoTrainLength": 100,
  "EffectiveEchoSpacing": 0.000539986,
  "FlipAngle": 90,
  "ImageOrientationPatientDICOM": [0.99914, 0.0114361, 0.0398486, 3.13087e-08, 0.9612, -0.275854],
  "ImageType": [
    "ORIGINAL",
    "PRIMARY",
    "M",
    "ND",
    "MOSAIC"
],
  "InPlanePhaseEncodingDirectionDICOM": "COL",
  "InstitutionAddress": "Street_StreetNo_Bei_Jing_District_CN_ZIP",
  "InstitutionName": "BeiJing_Normal_University",
  "InstitutionalDepartmentName": "Department",
  "MRAcquisitionType": "2D",
  "MagneticFieldStrength": 3,
  "Manufacturer": "Siemens",
  "ManufacturersModelName": "Prisma",
  "Modality": "MR",
  "MultibandAccelerationFactor": 3,
  "PartialFourier": 1,
  "PatientPosition": "HFS",
  "PercentPhaseFOV": 100,
  "PhaseEncodingDirection": "j-",
  "PhaseEncodingSteps": 100,
  "PhaseResolution": 1,
  "PixelBandwidth": 2380,
  "ProcedureStepDescription": "BNU_P2018_64CH_Liu.Jia",
  "ProtocolName": "bold_100x100_s3_2x2x2_232",
  "PulseSequenceDetails": "%SiemensSeq%_ep2d_bold",
  "ReceiveCoilActiveElements": "HC1-7;NC1",
  "ReceiveCoilName": "HeadNeck_64",
  "ReconMatrixPE": 100,
  "RepetitionTime": 2,
  "SAR": 0.064678,
  "ScanOptions": "FS",
  "ScanningSequence": "EP",
  "SequenceName": "_epfid2d1_100",
  "SequenceVariant": "SK",
  "SeriesDescription": "bold_100x100_s3_2x2x2_232",
  "SeriesNumber": 5,
  "ShimSetting": [-5438, -11472, -1304, 275, -113, -333, -118, -64],
  "SliceThickness": 2,
  "SliceTiming": [1.485, 0, 0.99, 0.0825, 1.0725, 0.165, 1.155, 0.2475, 1.2375, 0.33, 1.32, 0.4125, 1.4025, 0.5775, 1.5675, 0.66, 1.65, 0.7425, 1.7325, 0.825, 1.815, 0.9075, 1.8975, 0.495, 1.485, 0, 0.99, 0.0825, 1.0725, 0.165, 1.155, 0.2475, 1.2375, 0.33, 1.32, 0.4125, 1.4025, 0.5775, 1.5675, 0.66, 1.65, 0.7425, 1.7325, 0.825, 1.815, 0.9075, 1.8975, 0.495, 1.485, 0, 0.99, 0.0825, 1.0725, 0.165, 1.155, 0.2475, 1.2375, 0.33, 1.32, 0.4125, 1.4025, 0.5775, 1.5675, 0.66, 1.65, 0.7425, 1.7325, 0.825, 1.815, 0.9075, 1.8975, 0.495],
  "SoftwareVersions": "syngo_MR_E11",
  "SpacingBetweenSlices": 2,
  "StationName": "AWP166078",
  "TaskName": "motor",
  "TotalReadoutTime": 0.0534586,
  "TxRefAmp": 238.915,
  "dcmmeta_affine": [
    [-1.9982805252075195, 6.261741702928703e-08, 0.08291423320770264, 96.36469268798828],
    [-0.022872157394886017, 1.9223991632461548, -0.5512335300445557, -66.622314453125],
    [0.0796971470117569, 0.5517078638076782, 1.9207464456558228, -123.61256408691406],
    [0.0, 0.0, 0.0, 1.0]
],
  "dcmmeta_reorient_transform": [
    [0.0, -1.0, 0.0, 99.0],
    [1.0, 0.0, 0.0, 0.0],
    [0.0, 0.0, 1.0, 0.0],
    [0.0, 0.0, 0.0, 1.0]
],
  "dcmmeta_shape": [100, 100, 72, 232],
  "dcmmeta_slice_dim": 2,
  "dcmmeta_version": 0.6,
  "global": {
    "const": {
      "AcquisitionMatrix": [100, 0, 0, 100],
      "AngioFlag": "N",
      "BitsAllocated": 16,
      "BitsStored": 12,
      "BodyPartExamined": "BRAIN",
      "Columns": 900,
      "EchoNumbers": 1,
      "EchoTime": 34.0,
      "EchoTrainLength": 100,
      "FlipAngle": 90.0,
      "HighBit": 11,
      "ImageOrientationPatient": [0.99914028413742, 0.01143607912787, 0.03984857222019, 3.1308708e-08, 0.96119956558351, -0.2758539380217],
      "ImagePositionPatient": [-895.67695462066, -901.80371705055, 119.81080456315],
      "ImageType": [
        "ORIGINAL",
        "PRIMARY",
        "M",
        "ND",
        "MOSAIC"
],
      "ImagedNucleus": "1H",
      "ImagingFrequency": 123.257854,
      "InPlanePhaseEncodingDirection": "COL",
      "MRAcquisitionType": "2D",
      "MagneticFieldStrength": 3.0,
      "Manufacturer": "SIEMENS",
      "ManufacturerModelName": "Prisma",
      "Modality": "MR",
      "NumberOfAverages": 1.0,
      "NumberOfPhaseEncodingSteps": 100,
      "PercentPhaseFieldOfView": 100.0,
      "PercentSampling": 100.0,
      "PerformedProcedureStepStartTime": "124231.491000",
      "PhotometricInterpretation": "MONOCHROME2",
      "PixelBandwidth": 2380.0,
      "PixelRepresentation": 0,
      "PixelSpacing": [2.0, 2.0],
      "ProtocolName": "bold_100x100_s3_2x2x2_232",
      "RepetitionTime": 2000.0,
      "Rows": 900,
      "SAR": 0.06467795230575,
      "SamplesPerPixel": 1,
      "ScanOptions": "FS",
      "ScanningSequence": "EP",
      "SequenceName": "*epfid2d1_100",
      "SequenceVariant": "SK",
      "SeriesDescription": "bold_100x100_s3_2x2x2_232",
      "SeriesNumber": 5,
      "SeriesTime": "130251.965000",
      "SliceLocation": -96.356968059385,
      "SliceThickness": 2.0,
      "SmallestImagePixelValue": 0,
      "SoftwareVersions": "syngo MR E11",
      "SpacingBetweenSlices": 1.9999999727662,
      "SpecificCharacterSet": "ISO_IR 100",
      "StudyID": "1",
      "StudyTime": "124231.384000",
      "TransmitCoilName": "Body",
      "VariableFlipAngleFlag": "N",
      "WindowCenterWidthExplanation": "Algo1",
      "dBdt": 0.0},
    "slices": {}
  },
  "time": {
    "samples": {
      "AcquisitionNumber": [1, 2, 3, 4, 5, 6, 7, 8, 9, 10, 11, 12, 13, 14, 15, 16, 17, 18, 19, 20, 21, 22, 23, 24, 25, 26, 27, 28, 29, 30, 31, 32, 33, 34, 35, 36, 37, 38, 39, 40, 41, 42, 43, 44, 45, 46, 47, 48, 49, 50, 51, 52, 53, 54, 55, 56, 57, 58, 59, 60, 61, 62, 63, 64, 65, 66, 67, 68, 69, 70, 71, 72, 73, 74, 75, 76, 77, 78, 79, 80, 81, 82, 83, 84, 85, 86, 87, 88, 89, 90, 91, 92, 93, 94, 95, 96, 97, 98, 99, 100, 101, 102, 103, 104, 105, 106, 107, 108, 109, 110, 111, 112, 113, 114, 115, 116, 117, 118, 119, 120, 121, 122, 123, 124, 125, 126, 127, 128, 129, 130, 131, 132, 133, 134, 135, 136, 137, 138, 139, 140, 141, 142, 143, 144, 145, 146, 147, 148, 149, 150, 151, 152, 153, 154, 155, 156, 157, 158, 159, 160, 161, 162, 163, 164, 165, 166, 167, 168, 169, 170, 171, 172, 173, 174, 175, 176, 177, 178, 179, 180, 181, 182, 183, 184, 185, 186, 187, 188, 189, 190, 191, 192, 193, 194, 195, 196, 197, 198, 199, 200, 201, 202, 203, 204, 205, 206, 207, 208, 209, 210, 211, 212, 213, 214, 215, 216, 217, 218, 219, 220, 221, 222, 223, 224, 225, 226, 227, 228, 229, 230, 231, 232],
      "AcquisitionTime": ["130249.080000", "130251.080000", "130253.080000", "130255.080000", "130257.080000", "130259.080000", "130301.080000", "130303.080000", "130305.080000", "130307.080000", "130309.080000", "130311.080000", "130313.080000", "130315.080000", "130317.080000", "130319.080000", "130321.080000", "130323.080000", "130325.080000", "130327.080000", "130329.080000", "130331.080000", "130333.080000", "130335.080000", "130337.080000", "130339.080000", "130341.080000", "130343.080000", "130345.080000", "130347.080000", "130349.080000", "130351.080000", "130353.080000", "130355.080000", "130357.080000", "130359.080000", "130401.080000", "130403.080000", "130405.080000", "130407.080000", "130409.080000", "130411.080000", "130413.080000", "130415.080000", "130417.080000", "130419.080000", "130421.080000", "130423.080000", "130425.080000", "130427.080000", "130429.080000", "130431.080000", "130433.080000", "130435.080000", "130437.080000", "130439.080000", "130441.080000", "130443.080000", "130445.080000", "130447.080000", "130449.080000", "130451.080000", "130453.080000", "130455.080000", "130457.080000", "130459.080000", "130501.080000", "130503.080000", "130505.080000", "130507.080000", "130509.080000", "130511.080000", "130513.080000", "130515.080000", "130517.080000", "130519.080000", "130521.080000", "130523.080000", "130525.080000", "130527.080000", "130529.080000", "130531.080000", "130533.080000", "130535.080000", "130537.080000", "130539.080000", "130541.080000", "130543.080000", "130545.080000", "130547.080000", "130549.080000", "130551.080000", "130553.080000", "130555.080000", "130557.080000", "130559.080000", "130601.080000", "130603.080000", "130605.080000", "130607.080000", "130609.080000", "130611.080000", "130613.080000", "130615.080000", "130617.080000", "130619.080000", "130621.080000", "130623.080000", "130625.080000", "130627.080000", "130629.080000", "130631.080000", "130633.080000", "130635.080000", "130637.080000", "130639.080000", "130641.080000", "130643.080000", "130645.080000", "130647.080000", "130649.080000", "130651.080000", "130653.080000", "130655.080000", "130657.080000", "130659.080000", "130701.080000", "130703.080000", "130705.080000", "130707.080000", "130709.080000", "130711.080000", "130713.080000", "130715.080000", "130717.080000", "130719.080000", "130721.080000", "130723.080000", "130725.080000", "130727.080000", "130729.080000", "130731.080000", "130733.080000", "130735.080000", "130737.080000", "130739.080000", "130741.080000", "130743.080000", "130745.080000", "130747.080000", "130749.080000", "130751.080000", "130753.080000", "130755.080000", "130757.080000", "130759.080000", "130801.080000", "130803.080000", "130805.080000", "130807.080000", "130809.080000", "130811.080000", "130813.080000", "130815.080000", "130817.080000", "130819.080000", "130821.080000", "130823.080000", "130825.080000", "130827.080000", "130829.080000", "130831.080000", "130833.080000", "130835.080000", "130837.080000", "130839.080000", "130841.080000", "130843.080000", "130845.080000", "130847.080000", "130849.080000", "130851.080000", "130853.080000", "130855.080000", "130857.080000", "130859.080000", "130901.080000", "130903.080000", "130905.080000", "130907.080000", "130909.080000", "130911.080000", "130913.080000", "130915.080000", "130917.080000", "130919.080000", "130921.080000", "130923.080000", "130925.080000", "130927.080000", "130929.080000", "130931.080000", "130933.080000", "130935.080000", "130937.080000", "130939.080000", "130941.080000", "130943.080000", "130945.080000", "130947.080000", "130949.080000", "130951.080000", "130953.080000", "130955.080000", "130957.080000", "130959.080000", "131001.080000", "131003.080000", "131005.080000", "131007.080000", "131009.080000", "131011.080000", "131013.080000", "131015.080000", "131017.080000", "131019.080000", "131021.080000", "131023.080000", "131025.080000", "131027.080000", "131029.080000", "131031.080000"],
      "ContentTime": ["130251.968000", "130253.464000", "130255.463000", "130257.464000", "130259.465000", "130301.464000", "130303.464000", "130305.464000", "130307.465000", "130309.464000", "130311.463000", "130313.463000", "130315.465000", "130317.465000", "130319.464000", "130321.464000", "130323.464000", "130325.464000", "130327.464000", "130329.464000", "130331.463000", "130333.464000", "130335.464000", "130337.464000", "130339.464000", "130341.464000", "130343.464000", "130345.465000", "130347.463000", "130349.464000", "130351.464000", "130353.464000", "130355.464000", "130357.464000", "130359.464000", "130401.464000", "130403.464000", "130405.463000", "130407.464000", "130409.464000", "130411.464000", "130413.464000", "130415.464000", "130417.464000", "130419.464000", "130421.463000", "130423.464000", "130425.465000", "130427.465000", "130429.464000", "130431.464000", "130433.464000", "130435.464000", "130437.464000", "130439.464000", "130441.463000", "130443.464000", "130445.464000", "130447.464000", "130449.465000", "130451.464000", "130453.464000", "130455.465000", "130457.463000", "130459.465000", "130501.464000", "130503.464000", "130505.464000", "130507.465000", "130509.464000", "130511.465000", "130513.463000", "130515.463000", "130517.464000", "130519.465000", "130521.464000", "130523.464000", "130525.465000", "130527.464000", "130529.464000", "130531.463000", "130533.463000", "130535.464000", "130537.464000", "130539.465000", "130541.464000", "130543.464000", "130545.465000", "130547.464000", "130549.464000", "130551.463000", "130553.465000", "130555.465000", "130557.464000", "130559.465000", "130601.464000", "130603.465000", "130605.465000", "130607.463000", "130609.465000", "130611.464000", "130613.464000", "130615.464000", "130617.465000", "130619.464000", "130621.465000", "130623.464000", "130625.464000", "130627.465000", "130629.465000", "130631.465000", "130633.465000", "130635.464000", "130637.465000", "130639.464000", "130641.463000", "130643.463000", "130645.465000", "130647.464000", "130649.464000", "130651.464000", "130653.465000", "130655.465000", "130657.464000", "130659.463000", "130701.464000", "130703.465000", "130705.464000", "130707.464000", "130709.464000", "130711.465000", "130713.464000", "130715.464000", "130717.463000", "130719.465000", "130721.465000", "130723.464000", "130725.464000", "130727.465000", "130729.464000", "130731.465000", "130733.463000", "130735.464000", "130737.464000", "130739.465000", "130741.464000", "130743.464000", "130745.464000", "130747.464000", "130749.464000", "130751.463000", "130753.464000", "130755.464000", "130757.464000", "130759.465000", "130801.464000", "130803.465000", "130805.464000", "130807.464000", "130809.463000", "130811.464000", "130813.464000", "130815.465000", "130817.465000", "130819.464000", "130821.464000", "130823.464000", "130825.464000", "130827.463000", "130829.464000", "130831.465000", "130833.464000", "130835.464000", "130837.465000", "130839.464000", "130841.464000", "130843.464000", "130845.464000", "130847.465000", "130849.464000", "130851.464000", "130853.464000", "130855.464000", "130857.464000", "130859.464000", "130901.463000", "130903.464000", "130905.465000", "130907.464000", "130909.465000", "130911.464000", "130913.464000", "130915.465000", "130917.464000", "130919.464000", "130921.464000", "130923.465000", "130925.464000", "130927.465000", "130929.465000", "130931.465000", "130933.464000", "130935.465000", "130937.464000", "130939.465000", "130941.464000", "130943.464000", "130945.464000", "130947.464000", "130949.464000", "130951.464000", "130953.464000", "130955.463000", "130957.465000", "130959.464000", "131001.465000", "131003.464000", "131005.464000", "131007.465000", "131009.464000", "131011.463000", "131013.464000", "131015.465000", "131017.464000", "131019.465000", "131021.464000", "131023.464000", "131025.465000", "131027.464000", "131029.463000", "131031.464000", "131032.986000"],
      "InstanceCreationTime": ["130251.968000", "130253.464000", "130255.463000", "130257.464000", "130259.465000", "130301.464000", "130303.464000", "130305.464000", "130307.465000", "130309.464000", "130311.463000", "130313.463000", "130315.465000", "130317.465000", "130319.464000", "130321.464000", "130323.464000", "130325.464000", "130327.464000", "130329.464000", "130331.463000", "130333.464000", "130335.464000", "130337.464000", "130339.464000", "130341.464000", "130343.464000", "130345.465000", "130347.463000", "130349.464000", "130351.464000", "130353.464000", "130355.464000", "130357.464000", "130359.464000", "130401.464000", "130403.464000", "130405.463000", "130407.464000", "130409.464000", "130411.464000", "130413.464000", "130415.464000", "130417.464000", "130419.464000", "130421.463000", "130423.464000", "130425.465000", "130427.465000", "130429.464000", "130431.464000", "130433.464000", "130435.464000", "130437.464000", "130439.464000", "130441.463000", "130443.464000", "130445.464000", "130447.464000", "130449.465000", "130451.464000", "130453.464000", "130455.465000", "130457.463000", "130459.465000", "130501.464000", "130503.464000", "130505.464000", "130507.465000", "130509.464000", "130511.465000", "130513.463000", "130515.463000", "130517.464000", "130519.465000", "130521.464000", "130523.464000", "130525.465000", "130527.464000", "130529.464000", "130531.463000", "130533.463000", "130535.464000", "130537.464000", "130539.465000", "130541.464000", "130543.464000", "130545.465000", "130547.464000", "130549.464000", "130551.463000", "130553.465000", "130555.465000", "130557.464000", "130559.465000", "130601.464000", "130603.465000", "130605.465000", "130607.463000", "130609.465000", "130611.464000", "130613.464000", "130615.464000", "130617.465000", "130619.464000", "130621.465000", "130623.464000", "130625.464000", "130627.465000", "130629.465000", "130631.465000", "130633.465000", "130635.464000", "130637.465000", "130639.464000", "130641.463000", "130643.463000", "130645.465000", "130647.464000", "130649.464000", "130651.464000", "130653.465000", "130655.465000", "130657.464000", "130659.463000", "130701.464000", "130703.465000", "130705.464000", "130707.464000", "130709.464000", "130711.465000", "130713.464000", "130715.464000", "130717.463000", "130719.465000", "130721.465000", "130723.464000", "130725.464000", "130727.465000", "130729.464000", "130731.465000", "130733.463000", "130735.464000", "130737.464000", "130739.465000", "130741.464000", "130743.464000", "130745.464000", "130747.464000", "130749.464000", "130751.463000", "130753.464000", "130755.464000", "130757.464000", "130759.465000", "130801.464000", "130803.465000", "130805.464000", "130807.464000", "130809.463000", "130811.464000", "130813.464000", "130815.465000", "130817.465000", "130819.464000", "130821.464000", "130823.464000", "130825.464000", "130827.463000", "130829.464000", "130831.465000", "130833.464000", "130835.464000", "130837.465000", "130839.464000", "130841.464000", "130843.464000", "130845.464000", "130847.465000", "130849.464000", "130851.464000", "130853.464000", "130855.464000", "130857.464000", "130859.464000", "130901.463000", "130903.464000", "130905.465000", "130907.464000", "130909.465000", "130911.464000", "130913.464000", "130915.465000", "130917.464000", "130919.464000", "130921.464000", "130923.465000", "130925.464000", "130927.465000", "130929.465000", "130931.465000", "130933.464000", "130935.465000", "130937.464000", "130939.465000", "130941.464000", "130943.464000", "130945.464000", "130947.464000", "130949.464000", "130951.464000", "130953.464000", "130955.463000", "130957.465000", "130959.464000", "131001.465000", "131003.464000", "131005.464000", "131007.465000", "131009.464000", "131011.463000", "131013.464000", "131015.465000", "131017.464000", "131019.465000", "131021.464000", "131023.464000", "131025.465000", "131027.464000", "131029.463000", "131031.464000", "131032.986000"],
      "InstanceNumber": [1, 2, 3, 4, 5, 6, 7, 8, 9, 10, 11, 12, 13, 14, 15, 16, 17, 18, 19, 20, 21, 22, 23, 24, 25, 26, 27, 28, 29, 30, 31, 32, 33, 34, 35, 36, 37, 38, 39, 40, 41, 42, 43, 44, 45, 46, 47, 48, 49, 50, 51, 52, 53, 54, 55, 56, 57, 58, 59, 60, 61, 62, 63, 64, 65, 66, 67, 68, 69, 70, 71, 72, 73, 74, 75, 76, 77, 78, 79, 80, 81, 82, 83, 84, 85, 86, 87, 88, 89, 90, 91, 92, 93, 94, 95, 96, 97, 98, 99, 100, 101, 102, 103, 104, 105, 106, 107, 108, 109, 110, 111, 112, 113, 114, 115, 116, 117, 118, 119, 120, 121, 122, 123, 124, 125, 126, 127, 128, 129, 130, 131, 132, 133, 134, 135, 136, 137, 138, 139, 140, 141, 142, 143, 144, 145, 146, 147, 148, 149, 150, 151, 152, 153, 154, 155, 156, 157, 158, 159, 160, 161, 162, 163, 164, 165, 166, 167, 168, 169, 170, 171, 172, 173, 174, 175, 176, 177, 178, 179, 180, 181, 182, 183, 184, 185, 186, 187, 188, 189, 190, 191, 192, 193, 194, 195, 196, 197, 198, 199, 200, 201, 202, 203, 204, 205, 206, 207, 208, 209, 210, 211, 212, 213, 214, 215, 216, 217, 218, 219, 220, 221, 222, 223, 224, 225, 226, 227, 228, 229, 230, 231, 232],
      "LargestImagePixelValue": [2194, 2195, 2188, 2182, 2195, 2205, 2217, 2188, 2210, 2195, 2167, 2207, 2212, 2181, 2194, 2193, 2218, 2196, 2226, 2231, 2211, 2225, 2203, 2229, 2187, 2190, 2168, 2202, 2196, 2171, 2166, 2155, 2184, 2186, 2185, 2175, 2295, 2193, 2198, 2215, 2181, 2179, 2238, 2227, 2169, 2200, 2173, 2201, 2202, 2189, 2195, 2199, 2207, 2205, 2214, 2228, 2213, 2210, 2213, 2177, 2209, 2204, 2203, 2211, 2187, 2192, 2175, 2187, 2145, 2186, 2210, 2184, 2366, 2208, 2215, 2170, 2219, 2237, 2191, 2217, 2203, 2184, 2186, 2179, 2186, 2190, 2174, 2225, 2199, 2151, 2206, 2203, 2190, 2147, 2166, 2142, 2151, 2249, 2161, 2223, 2171, 2181, 2188, 2164, 2153, 2164, 2164, 2184, 2195, 2164, 2145, 2167, 2171, 2189, 2179, 2164, 2137, 2165, 2186, 2249, 2219, 2228, 2159, 2171, 2160, 2197, 2211, 2171, 2207, 2172, 2242, 2227, 2205, 2222, 2220, 2193, 2219, 2183, 2179, 2237, 2165, 2169, 2188, 2197, 2216, 2191, 2204, 2195, 2189, 2151, 2163, 2192, 2169, 2196, 2208, 2191, 2151, 2164, 2188, 2174, 2156, 2182, 2177, 2098, 2159, 2155, 2147, 2171, 2218, 2156, 2186, 2133, 2156, 2173, 2171, 2147, 2186, 2176, 2221, 2185, 2165, 2142, 2180, 2150, 2157, 2207, 2157, 2146, 2139, 2161, 2156, 2186, 2153, 2164, 2173, 2187, 2172, 2164, 2164, 2146, 2195, 2131, 2140, 2158, 2142, 2176, 2152, 2189, 2170, 2190, 2178, 2170, 2166, 2155, 2208, 2169, 2172, 2131, 2145, 2177, 2168, 2168, 2170, 2167, 2173, 2155, 2169, 2120, 2176, 2149, 2220, 2168],
      "WindowCenter": [658.0, 657.0, 656.0, 656.0, 657.0, 657.0, 658.0, 657.0, 658.0, 657.0, 656.0, 658.0, 657.0, 657.0, 657.0, 657.0, 658.0, 660.0, 661.0, 661.0, 660.0, 659.0, 658.0, 658.0, 658.0, 659.0, 657.0, 657.0, 657.0, 657.0, 656.0, 654.0, 655.0, 655.0, 657.0, 656.0, 659.0, 658.0, 657.0, 657.0, 657.0, 656.0, 658.0, 659.0, 657.0, 658.0, 657.0, 657.0, 659.0, 658.0, 658.0, 658.0, 657.0, 657.0, 657.0, 657.0, 658.0, 658.0, 658.0, 656.0, 656.0, 657.0, 657.0, 658.0, 656.0, 655.0, 657.0, 656.0, 654.0, 655.0, 655.0, 655.0, 658.0, 655.0, 656.0, 657.0, 659.0, 659.0, 657.0, 658.0, 658.0, 657.0, 658.0, 656.0, 654.0, 657.0, 656.0, 658.0, 657.0, 650.0, 657.0, 656.0, 657.0, 655.0, 656.0, 656.0, 658.0, 659.0, 657.0, 659.0, 660.0, 659.0, 659.0, 659.0, 659.0, 658.0, 658.0, 660.0, 660.0, 658.0, 656.0, 656.0, 657.0, 661.0, 660.0, 658.0, 656.0, 657.0, 659.0, 658.0, 656.0, 655.0, 653.0, 654.0, 652.0, 652.0, 655.0, 654.0, 655.0, 656.0, 657.0, 656.0, 656.0, 658.0, 658.0, 660.0, 661.0, 659.0, 654.0, 658.0, 659.0, 657.0, 658.0, 659.0, 659.0, 661.0, 661.0, 660.0, 659.0, 659.0, 657.0, 659.0, 657.0, 659.0, 659.0, 659.0, 657.0, 655.0, 657.0, 656.0, 655.0, 657.0, 658.0, 655.0, 656.0, 655.0, 654.0, 656.0, 657.0, 657.0, 657.0, 658.0, 660.0, 659.0, 656.0, 655.0, 657.0, 655.0, 655.0, 657.0, 656.0, 655.0, 655.0, 654.0, 655.0, 658.0, 658.0, 659.0, 658.0, 658.0, 658.0, 659.0, 659.0, 659.0, 659.0, 658.0, 658.0, 658.0, 658.0, 659.0, 662.0, 659.0, 657.0, 658.0, 659.0, 659.0, 657.0, 657.0, 656.0, 657.0, 656.0, 657.0, 658.0, 657.0, 658.0, 659.0, 658.0, 656.0, 656.0, 656.0, 654.0, 654.0, 654.0, 654.0, 656.0, 658.0, 659.0, 657.0, 660.0, 659.0, 660.0, 660.0],
      "WindowWidth": [1389.0, 1387.0, 1387.0, 1387.0, 1388.0, 1389.0, 1390.0, 1388.0, 1389.0, 1387.0, 1386.0, 1390.0, 1388.0, 1388.0, 1388.0, 1387.0, 1390.0, 1395.0, 1396.0, 1396.0, 1394.0, 1392.0, 1390.0, 1390.0, 1390.0, 1392.0, 1389.0, 1388.0, 1387.0, 1388.0, 1387.0, 1382.0, 1383.0, 1383.0, 1387.0, 1386.0, 1392.0, 1390.0, 1387.0, 1388.0, 1387.0, 1387.0, 1389.0, 1393.0, 1389.0, 1389.0, 1388.0, 1388.0, 1391.0, 1390.0, 1390.0, 1390.0, 1388.0, 1387.0, 1387.0, 1387.0, 1389.0, 1390.0, 1390.0, 1387.0, 1386.0, 1387.0, 1389.0, 1389.0, 1386.0, 1385.0, 1388.0, 1386.0, 1383.0, 1383.0, 1384.0, 1383.0, 1389.0, 1384.0, 1386.0, 1388.0, 1393.0, 1393.0, 1387.0, 1390.0, 1389.0, 1387.0, 1389.0, 1385.0, 1382.0, 1387.0, 1387.0, 1390.0, 1389.0, 1373.0, 1388.0, 1385.0, 1387.0, 1384.0, 1385.0, 1387.0, 1391.0, 1391.0, 1389.0, 1394.0, 1396.0, 1394.0, 1392.0, 1394.0, 1393.0, 1391.0, 1392.0, 1395.0, 1395.0, 1390.0, 1386.0, 1385.0, 1389.0, 1398.0, 1396.0, 1390.0, 1386.0, 1389.0, 1393.0, 1389.0, 1385.0, 1382.0, 1380.0, 1382.0, 1377.0, 1378.0, 1384.0, 1382.0, 1383.0, 1386.0, 1388.0, 1385.0, 1386.0, 1390.0, 1392.0, 1394.0, 1396.0, 1393.0, 1382.0, 1391.0, 1393.0, 1389.0, 1391.0, 1392.0, 1393.0, 1396.0, 1397.0, 1396.0, 1393.0, 1393.0, 1389.0, 1392.0, 1389.0, 1393.0, 1393.0, 1393.0, 1388.0, 1384.0, 1387.0, 1385.0, 1384.0, 1388.0, 1391.0, 1385.0, 1385.0, 1383.0, 1383.0, 1385.0, 1389.0, 1388.0, 1389.0, 1392.0, 1394.0, 1391.0, 1385.0, 1384.0, 1387.0, 1384.0, 1384.0, 1389.0, 1387.0, 1383.0, 1382.0, 1381.0, 1385.0, 1390.0, 1391.0, 1392.0, 1390.0, 1390.0, 1390.0, 1393.0, 1393.0, 1393.0, 1391.0, 1390.0, 1390.0, 1389.0, 1391.0, 1393.0, 1400.0, 1393.0, 1389.0, 1390.0, 1393.0, 1393.0, 1387.0, 1387.0, 1386.0, 1387.0, 1386.0, 1387.0, 1391.0, 1389.0, 1391.0, 1393.0, 1391.0, 1387.0, 1386.0, 1385.0, 1380.0, 1381.0, 1382.0, 1381.0, 1385.0, 1390.0, 1393.0, 1389.0, 1394.0, 1393.0, 1395.0, 1396.0]
    },
    "slices": {}
  }
}