{
  "AcquisitionMatrixPE": 100,
  "AcquisitionNumber": 1,
  "AcquisitionTime": "13:14:22.155000",
  "BandwidthPerPixelPhaseEncode": 18.519,
  "BaseResolution": 100,
  "BodyPartExamined": "BRAIN",
  "ConsistencyInfo": "N4_VE11C_LATEST_20160120",
  "ConversionSoftware": "dcm2niix",
  "ConversionSoftwareVersion": "v1.0.20180622 GCC4.9.2",
  "DerivedVendorReportedEchoSpacing": 0.000539986,
  "DeviceSerialNumber": "166078",
  "DwellTime": 2.1e-06,
  "EchoTime": 0.034,
  "EchoTrainLength": 100,
  "EffectiveEchoSpacing": 0.000539986,
  "FlipAngle": 90,
  "ImageOrientationPatientDICOM": [0.99914, 0.0114361, 0.0398486, 3.13087e-08, 0.9612, -0.275854],
  "ImageType": [
    "ORIGINAL",
    "PRIMARY",
    "M",
    "ND",
    "MOSAIC"
],
  "InPlanePhaseEncodingDirectionDICOM": "COL",
  "InstitutionAddress": "Street_StreetNo_Bei_Jing_District_CN_ZIP",
  "InstitutionName": "BeiJing_Normal_University",
  "InstitutionalDepartmentName": "Department",
  "MRAcquisitionType": "2D",
  "MagneticFieldStrength": 3,
  "Manufacturer": "Siemens",
  "ManufacturersModelName": "Prisma",
  "Modality": "MR",
  "MultibandAccelerationFactor": 3,
  "PartialFourier": 1,
  "PatientPosition": "HFS",
  "PercentPhaseFOV": 100,
  "PhaseEncodingDirection": "j-",
  "PhaseEncodingSteps": 100,
  "PhaseResolution": 1,
  "PixelBandwidth": 2380,
  "ProcedureStepDescription": "BNU_P2018_64CH_Liu.Jia",
  "ProtocolName": "bold_100x100_s3_2x2x2_232",
  "PulseSequenceDetails": "%SiemensSeq%_ep2d_bold",
  "ReceiveCoilActiveElements": "HC1-7;NC1",
  "ReceiveCoilName": "HeadNeck_64",
  "ReconMatrixPE": 100,
  "RepetitionTime": 2,
  "SAR": 0.064678,
  "ScanOptions": "FS",
  "ScanningSequence": "EP",
  "SequenceName": "_epfid2d1_100",
  "SequenceVariant": "SK",
  "SeriesDescription": "bold_100x100_s3_2x2x2_232",
  "SeriesNumber": 8,
  "ShimSetting": [-5438, -11472, -1304, 275, -113, -333, -118, -64],
  "SliceThickness": 2,
  "SliceTiming": [1.485, 0, 0.99, 0.0825, 1.0725, 0.165, 1.155, 0.2475, 1.2375, 0.33, 1.32, 0.4125, 1.4025, 0.5775, 1.5675, 0.66, 1.65, 0.7425, 1.7325, 0.825, 1.815, 0.9075, 1.8975, 0.495, 1.485, 0, 0.99, 0.0825, 1.0725, 0.165, 1.155, 0.2475, 1.2375, 0.33, 1.32, 0.4125, 1.4025, 0.5775, 1.5675, 0.66, 1.65, 0.7425, 1.7325, 0.825, 1.815, 0.9075, 1.8975, 0.495, 1.485, 0, 0.99, 0.0825, 1.0725, 0.165, 1.155, 0.2475, 1.2375, 0.33, 1.32, 0.4125, 1.4025, 0.5775, 1.5675, 0.66, 1.65, 0.7425, 1.7325, 0.825, 1.815, 0.9075, 1.8975, 0.495],
  "SoftwareVersions": "syngo_MR_E11",
  "SpacingBetweenSlices": 2,
  "StationName": "AWP166078",
  "TaskName": "motor",
  "TotalReadoutTime": 0.0534586,
  "TxRefAmp": 238.915,
  "dcmmeta_affine": [
    [-1.9982805252075195, 6.261741702928703e-08, 0.08291423320770264, 96.36469268798828],
    [-0.022872157394886017, 1.9223991632461548, -0.5512335300445557, -66.622314453125],
    [0.0796971470117569, 0.5517078638076782, 1.9207464456558228, -123.61256408691406],
    [0.0, 0.0, 0.0, 1.0]
],
  "dcmmeta_reorient_transform": [
    [0.0, -1.0, 0.0, 99.0],
    [1.0, 0.0, 0.0, 0.0],
    [0.0, 0.0, 1.0, 0.0],
    [0.0, 0.0, 0.0, 1.0]
],
  "dcmmeta_shape": [100, 100, 72, 232],
  "dcmmeta_slice_dim": 2,
  "dcmmeta_version": 0.6,
  "global": {
    "const": {
      "AcquisitionMatrix": [100, 0, 0, 100],
      "AngioFlag": "N",
      "BitsAllocated": 16,
      "BitsStored": 12,
      "BodyPartExamined": "BRAIN",
      "Columns": 900,
      "EchoNumbers": 1,
      "EchoTime": 34.0,
      "EchoTrainLength": 100,
      "FlipAngle": 90.0,
      "HighBit": 11,
      "ImageOrientationPatient": [0.99914028413742, 0.01143607912787, 0.03984857222019, 3.1308708e-08, 0.96119956558351, -0.2758539380217],
      "ImagePositionPatient": [-895.67695462066, -901.80371705055, 119.81080456315],
      "ImageType": [
        "ORIGINAL",
        "PRIMARY",
        "M",
        "ND",
        "MOSAIC"
],
      "ImagedNucleus": "1H",
      "ImagingFrequency": 123.257851,
      "InPlanePhaseEncodingDirection": "COL",
      "MRAcquisitionType": "2D",
      "MagneticFieldStrength": 3.0,
      "Manufacturer": "SIEMENS",
      "ManufacturerModelName": "Prisma",
      "Modality": "MR",
      "NumberOfAverages": 1.0,
      "NumberOfPhaseEncodingSteps": 100,
      "PercentPhaseFieldOfView": 100.0,
      "PercentSampling": 100.0,
      "PerformedProcedureStepStartTime": "124231.491000",
      "PhotometricInterpretation": "MONOCHROME2",
      "PixelBandwidth": 2380.0,
      "PixelRepresentation": 0,
      "PixelSpacing": [2.0, 2.0],
      "ProtocolName": "bold_100x100_s3_2x2x2_232",
      "RepetitionTime": 2000.0,
      "Rows": 900,
      "SAR": 0.06467795230575,
      "SamplesPerPixel": 1,
      "ScanOptions": "FS",
      "ScanningSequence": "EP",
      "SequenceName": "*epfid2d1_100",
      "SequenceVariant": "SK",
      "SeriesDescription": "bold_100x100_s3_2x2x2_232",
      "SeriesNumber": 8,
      "SeriesTime": "131424.716000",
      "SliceLocation": -96.356968059385,
      "SliceThickness": 2.0,
      "SmallestImagePixelValue": 0,
      "SoftwareVersions": "syngo MR E11",
      "SpacingBetweenSlices": 1.9999999727662,
      "SpecificCharacterSet": "ISO_IR 100",
      "StudyID": "1",
      "StudyTime": "124231.384000",
      "TransmitCoilName": "Body",
      "VariableFlipAngleFlag": "N",
      "WindowCenterWidthExplanation": "Algo1",
      "dBdt": 0.0},
    "slices": {}
  },
  "time": {
    "samples": {
      "AcquisitionNumber": [1, 2, 3, 4, 5, 6, 7, 8, 9, 10, 11, 12, 13, 14, 15, 16, 17, 18, 19, 20, 21, 22, 23, 24, 25, 26, 27, 28, 29, 30, 31, 32, 33, 34, 35, 36, 37, 38, 39, 40, 41, 42, 43, 44, 45, 46, 47, 48, 49, 50, 51, 52, 53, 54, 55, 56, 57, 58, 59, 60, 61, 62, 63, 64, 65, 66, 67, 68, 69, 70, 71, 72, 73, 74, 75, 76, 77, 78, 79, 80, 81, 82, 83, 84, 85, 86, 87, 88, 89, 90, 91, 92, 93, 94, 95, 96, 97, 98, 99, 100, 101, 102, 103, 104, 105, 106, 107, 108, 109, 110, 111, 112, 113, 114, 115, 116, 117, 118, 119, 120, 121, 122, 123, 124, 125, 126, 127, 128, 129, 130, 131, 132, 133, 134, 135, 136, 137, 138, 139, 140, 141, 142, 143, 144, 145, 146, 147, 148, 149, 150, 151, 152, 153, 154, 155, 156, 157, 158, 159, 160, 161, 162, 163, 164, 165, 166, 167, 168, 169, 170, 171, 172, 173, 174, 175, 176, 177, 178, 179, 180, 181, 182, 183, 184, 185, 186, 187, 188, 189, 190, 191, 192, 193, 194, 195, 196, 197, 198, 199, 200, 201, 202, 203, 204, 205, 206, 207, 208, 209, 210, 211, 212, 213, 214, 215, 216, 217, 218, 219, 220, 221, 222, 223, 224, 225, 226, 227, 228, 229, 230, 231, 232],
      "AcquisitionTime": ["131422.155000", "131424.155000", "131426.155000", "131428.155000", "131430.155000", "131432.155000", "131434.155000", "131436.155000", "131438.155000", "131440.155000", "131442.155000", "131444.155000", "131446.155000", "131448.155000", "131450.155000", "131452.155000", "131454.155000", "131456.155000", "131458.155000", "131500.155000", "131502.155000", "131504.155000", "131506.155000", "131508.155000", "131510.155000", "131512.155000", "131514.155000", "131516.155000", "131518.155000", "131520.155000", "131522.155000", "131524.155000", "131526.155000", "131528.155000", "131530.155000", "131532.155000", "131534.155000", "131536.155000", "131538.155000", "131540.155000", "131542.155000", "131544.155000", "131546.155000", "131548.155000", "131550.155000", "131552.155000", "131554.155000", "131556.155000", "131558.155000", "131600.155000", "131602.155000", "131604.155000", "131606.155000", "131608.155000", "131610.155000", "131612.155000", "131614.155000", "131616.155000", "131618.155000", "131620.155000", "131622.155000", "131624.155000", "131626.155000", "131628.155000", "131630.155000", "131632.155000", "131634.155000", "131636.155000", "131638.155000", "131640.155000", "131642.155000", "131644.155000", "131646.155000", "131648.155000", "131650.155000", "131652.155000", "131654.155000", "131656.155000", "131658.155000", "131700.155000", "131702.155000", "131704.155000", "131706.155000", "131708.155000", "131710.155000", "131712.155000", "131714.155000", "131716.155000", "131718.155000", "131720.155000", "131722.155000", "131724.155000", "131726.155000", "131728.155000", "131730.155000", "131732.155000", "131734.155000", "131736.155000", "131738.155000", "131740.155000", "131742.155000", "131744.155000", "131746.155000", "131748.155000", "131750.155000", "131752.155000", "131754.155000", "131756.155000", "131758.155000", "131800.155000", "131802.155000", "131804.155000", "131806.155000", "131808.155000", "131810.155000", "131812.155000", "131814.155000", "131816.155000", "131818.155000", "131820.155000", "131822.155000", "131824.155000", "131826.155000", "131828.155000", "131830.155000", "131832.155000", "131834.155000", "131836.155000", "131838.155000", "131840.155000", "131842.155000", "131844.155000", "131846.155000", "131848.155000", "131850.155000", "131852.155000", "131854.155000", "131856.155000", "131858.155000", "131900.155000", "131902.155000", "131904.155000", "131906.155000", "131908.155000", "131910.155000", "131912.155000", "131914.155000", "131916.155000", "131918.155000", "131920.155000", "131922.155000", "131924.155000", "131926.155000", "131928.155000", "131930.155000", "131932.155000", "131934.155000", "131936.155000", "131938.155000", "131940.155000", "131942.155000", "131944.155000", "131946.155000", "131948.155000", "131950.155000", "131952.155000", "131954.155000", "131956.155000", "131958.155000", "132000.155000", "132002.155000", "132004.155000", "132006.155000", "132008.155000", "132010.155000", "132012.155000", "132014.155000", "132016.155000", "132018.155000", "132020.155000", "132022.155000", "132024.155000", "132026.155000", "132028.155000", "132030.155000", "132032.155000", "132034.155000", "132036.155000", "132038.155000", "132040.155000", "132042.155000", "132044.155000", "132046.155000", "132048.155000", "132050.155000", "132052.155000", "132054.155000", "132056.155000", "132058.155000", "132100.155000", "132102.155000", "132104.155000", "132106.155000", "132108.155000", "132110.155000", "132112.155000", "132114.155000", "132116.155000", "132118.155000", "132120.155000", "132122.155000", "132124.155000", "132126.155000", "132128.155000", "132130.155000", "132132.155000", "132134.155000", "132136.155000", "132138.155000", "132140.155000", "132142.155000", "132144.155000", "132146.155000", "132148.155000", "132150.155000", "132152.155000", "132154.155000", "132156.155000", "132158.155000", "132200.155000", "132202.155000", "132204.155000"],
      "ContentTime": ["131424.720000", "131426.215000", "131428.215000", "131430.214000", "131432.215000", "131434.215000", "131436.216000", "131438.215000", "131440.215000", "131442.215000", "131444.215000", "131446.215000", "131448.214000", "131450.214000", "131452.215000", "131454.215000", "131456.215000", "131458.215000", "131500.215000", "131502.215000", "131504.215000", "131506.214000", "131508.214000", "131510.215000", "131512.215000", "131514.215000", "131516.216000", "131518.215000", "131520.216000", "131522.215000", "131524.215000", "131526.215000", "131528.214000", "131530.215000", "131532.216000", "131534.215000", "131536.216000", "131538.215000", "131540.215000", "131542.215000", "131544.214000", "131546.215000", "131548.216000", "131550.215000", "131552.216000", "131554.216000", "131556.215000", "131558.214000", "131600.215000", "131602.214000", "131604.215000", "131606.215000", "131608.215000", "131610.216000", "131612.216000", "131614.215000", "131616.215000", "131618.214000", "131620.214000", "131622.216000", "131624.216000", "131626.216000", "131628.215000", "131630.215000", "131632.215000", "131634.214000", "131636.215000", "131638.214000", "131640.216000", "131642.216000", "131644.216000", "131646.215000", "131648.216000", "131650.215000", "131652.214000", "131654.214000", "131656.215000", "131658.215000", "131700.216000", "131702.216000", "131704.216000", "131706.215000", "131708.214000", "131710.214000", "131712.215000", "131714.216000", "131716.215000", "131718.215000", "131720.216000", "131722.215000", "131724.215000", "131726.215000", "131728.215000", "131730.214000", "131732.215000", "131734.216000", "131736.215000", "131738.215000", "131740.215000", "131742.214000", "131744.214000", "131746.215000", "131748.214000", "131750.215000", "131752.216000", "131754.215000", "131756.216000", "131758.215000", "131800.214000", "131802.215000", "131804.214000", "131806.215000", "131808.216000", "131810.215000", "131812.215000", "131814.216000", "131816.215000", "131818.215000", "131820.214000", "131822.214000", "131824.215000", "131826.216000", "131828.215000", "131830.215000", "131832.215000", "131834.215000", "131836.214000", "131838.214000", "131840.214000", "131842.216000", "131844.216000", "131846.216000", "131848.215000", "131850.216000", "131852.215000", "131854.215000", "131856.214000", "131858.214000", "131900.215000", "131902.215000", "131904.215000", "131906.216000", "131908.216000", "131910.214000", "131912.214000", "131914.214000", "131916.216000", "131918.216000", "131920.215000", "131922.216000", "131924.215000", "131926.216000", "131928.215000", "131930.215000", "131932.214000", "131934.215000", "131936.215000", "131938.216000", "131940.216000", "131942.216000", "131944.214000", "131946.214000", "131948.214000", "131950.214000", "131952.215000", "131954.216000", "131956.216000", "131958.216000", "132000.216000", "132002.215000", "132004.215000", "132006.215000", "132008.214000", "132010.216000", "132012.215000", "132014.216000", "132016.216000", "132018.215000", "132020.214000", "132022.214000", "132024.215000", "132026.216000", "132028.216000", "132030.216000", "132032.215000", "132034.215000", "132036.216000", "132038.215000", "132040.214000", "132042.214000", "132044.216000", "132046.215000", "132048.216000", "132050.215000", "132052.215000", "132054.214000", "132056.215000", "132058.214000", "132100.236000", "132102.216000", "132104.216000", "132106.215000", "132108.215000", "132110.216000", "132112.215000", "132114.215000", "132116.215000", "132118.216000", "132120.216000", "132122.215000", "132124.216000", "132126.215000", "132128.216000", "132130.214000", "132132.215000", "132134.215000", "132136.215000", "132138.216000", "132140.215000", "132142.216000", "132144.216000", "132146.216000", "132148.215000", "132150.215000", "132152.215000", "132154.216000", "132156.215000", "132158.215000", "132200.215000", "132202.215000", "132204.215000", "132205.864000"],
      "InstanceCreationTime": ["131424.720000", "131426.215000", "131428.215000", "131430.214000", "131432.215000", "131434.215000", "131436.216000", "131438.215000", "131440.215000", "131442.215000", "131444.215000", "131446.215000", "131448.214000", "131450.214000", "131452.215000", "131454.215000", "131456.215000", "131458.215000", "131500.215000", "131502.215000", "131504.215000", "131506.214000", "131508.214000", "131510.215000", "131512.215000", "131514.215000", "131516.216000", "131518.215000", "131520.216000", "131522.215000", "131524.215000", "131526.215000", "131528.214000", "131530.215000", "131532.216000", "131534.215000", "131536.216000", "131538.215000", "131540.215000", "131542.215000", "131544.214000", "131546.215000", "131548.216000", "131550.215000", "131552.216000", "131554.216000", "131556.215000", "131558.214000", "131600.215000", "131602.214000", "131604.215000", "131606.215000", "131608.215000", "131610.216000", "131612.216000", "131614.215000", "131616.215000", "131618.214000", "131620.214000", "131622.216000", "131624.216000", "131626.216000", "131628.215000", "131630.215000", "131632.215000", "131634.214000", "131636.215000", "131638.214000", "131640.216000", "131642.216000", "131644.216000", "131646.215000", "131648.216000", "131650.215000", "131652.214000", "131654.214000", "131656.215000", "131658.215000", "131700.216000", "131702.216000", "131704.216000", "131706.215000", "131708.214000", "131710.214000", "131712.215000", "131714.216000", "131716.215000", "131718.215000", "131720.216000", "131722.215000", "131724.215000", "131726.215000", "131728.215000", "131730.214000", "131732.215000", "131734.216000", "131736.215000", "131738.215000", "131740.215000", "131742.214000", "131744.214000", "131746.215000", "131748.214000", "131750.215000", "131752.216000", "131754.215000", "131756.216000", "131758.215000", "131800.214000", "131802.215000", "131804.214000", "131806.215000", "131808.216000", "131810.215000", "131812.215000", "131814.216000", "131816.215000", "131818.215000", "131820.214000", "131822.214000", "131824.215000", "131826.216000", "131828.215000", "131830.215000", "131832.215000", "131834.215000", "131836.214000", "131838.214000", "131840.214000", "131842.216000", "131844.216000", "131846.216000", "131848.215000", "131850.216000", "131852.215000", "131854.215000", "131856.214000", "131858.214000", "131900.215000", "131902.215000", "131904.215000", "131906.216000", "131908.216000", "131910.214000", "131912.214000", "131914.214000", "131916.216000", "131918.216000", "131920.215000", "131922.216000", "131924.215000", "131926.216000", "131928.215000", "131930.215000", "131932.214000", "131934.215000", "131936.215000", "131938.216000", "131940.216000", "131942.216000", "131944.214000", "131946.214000", "131948.214000", "131950.214000", "131952.215000", "131954.216000", "131956.216000", "131958.216000", "132000.216000", "132002.215000", "132004.215000", "132006.215000", "132008.214000", "132010.216000", "132012.215000", "132014.216000", "132016.216000", "132018.215000", "132020.214000", "132022.214000", "132024.215000", "132026.216000", "132028.216000", "132030.216000", "132032.215000", "132034.215000", "132036.216000", "132038.215000", "132040.214000", "132042.214000", "132044.216000", "132046.215000", "132048.216000", "132050.215000", "132052.215000", "132054.214000", "132056.215000", "132058.214000", "132100.236000", "132102.216000", "132104.216000", "132106.215000", "132108.215000", "132110.216000", "132112.215000", "132114.215000", "132116.215000", "132118.216000", "132120.216000", "132122.215000", "132124.216000", "132126.215000", "132128.216000", "132130.214000", "132132.215000", "132134.215000", "132136.215000", "132138.216000", "132140.215000", "132142.216000", "132144.216000", "132146.216000", "132148.215000", "132150.215000", "132152.215000", "132154.216000", "132156.215000", "132158.215000", "132200.215000", "132202.215000", "132204.215000", "132205.864000"],
      "InstanceNumber": [1, 2, 3, 4, 5, 6, 7, 8, 9, 10, 11, 12, 13, 14, 15, 16, 17, 18, 19, 20, 21, 22, 23, 24, 25, 26, 27, 28, 29, 30, 31, 32, 33, 34, 35, 36, 37, 38, 39, 40, 41, 42, 43, 44, 45, 46, 47, 48, 49, 50, 51, 52, 53, 54, 55, 56, 57, 58, 59, 60, 61, 62, 63, 64, 65, 66, 67, 68, 69, 70, 71, 72, 73, 74, 75, 76, 77, 78, 79, 80, 81, 82, 83, 84, 85, 86, 87, 88, 89, 90, 91, 92, 93, 94, 95, 96, 97, 98, 99, 100, 101, 102, 103, 104, 105, 106, 107, 108, 109, 110, 111, 112, 113, 114, 115, 116, 117, 118, 119, 120, 121, 122, 123, 124, 125, 126, 127, 128, 129, 130, 131, 132, 133, 134, 135, 136, 137, 138, 139, 140, 141, 142, 143, 144, 145, 146, 147, 148, 149, 150, 151, 152, 153, 154, 155, 156, 157, 158, 159, 160, 161, 162, 163, 164, 165, 166, 167, 168, 169, 170, 171, 172, 173, 174, 175, 176, 177, 178, 179, 180, 181, 182, 183, 184, 185, 186, 187, 188, 189, 190, 191, 192, 193, 194, 195, 196, 197, 198, 199, 200, 201, 202, 203, 204, 205, 206, 207, 208, 209, 210, 211, 212, 213, 214, 215, 216, 217, 218, 219, 220, 221, 222, 223, 224, 225, 226, 227, 228, 229, 230, 231, 232],
      "LargestImagePixelValue": [2186, 2191, 2171, 2183, 2202, 2208, 2228, 2222, 2314, 2192, 2188, 2170, 2202, 2200, 2203, 2236, 2157, 2203, 2240, 2212, 2209, 2194, 2189, 2179, 2201, 2109, 2206, 2187, 2151, 2189, 2194, 2102, 2183, 2156, 2183, 2135, 2200, 2160, 2171, 2175, 2201, 2187, 2176, 2164, 2154, 2112, 2140, 2133, 2173, 2161, 2163, 2161, 2127, 2138, 2140, 2172, 2146, 2218, 2211, 2148, 2121, 2125, 2180, 2131, 2122, 2156, 2168, 2146, 2152, 2151, 2176, 2136, 2166, 2148, 2114, 2130, 2121, 2191, 2154, 2155, 2125, 2193, 2147, 2139, 2163, 2169, 2242, 2180, 2191, 2139, 2162, 2131, 2121, 2090, 2101, 2101, 2304, 2110, 2140, 2127, 2082, 2104, 2100, 2129, 2106, 2125, 2088, 2101, 2103, 2248, 2139, 2125, 2151, 2135, 2135, 2129, 2110, 2145, 2090, 2127, 2118, 2148, 2108, 2113, 2118, 2695, 2105, 2118, 2141, 2120, 2114, 2125, 2094, 2121, 2138, 2130, 2101, 2131, 2143, 2133, 2113, 2102, 2116, 2101, 2130, 2110, 2096, 2096, 2106, 2098, 2118, 2106, 2295, 2122, 2127, 2129, 2136, 2122, 2116, 2084, 2112, 2126, 2116, 2079, 2104, 2115, 2089, 2141, 2118, 2119, 2084, 2128, 2066, 2128, 2159, 2143, 2163, 2132, 2073, 2096, 2118, 2097, 2122, 2108, 2133, 2173, 2144, 2150, 2130, 2145, 2149, 2143, 2174, 2181, 2181, 2152, 2141, 2167, 2169, 2154, 2140, 2204, 2153, 2161, 2165, 2133, 2133, 2351, 2166, 2178, 2127, 2119, 2091, 2121, 2129, 2125, 2127, 2156, 2140, 2133, 2126, 2119, 2131, 2115, 2102, 2125, 2138, 2145, 2163, 2139, 2172, 2153],
      "WindowCenter": [654.0, 654.0, 653.0, 653.0, 656.0, 655.0, 654.0, 654.0, 656.0, 653.0, 652.0, 652.0, 652.0, 653.0, 654.0, 655.0, 654.0, 654.0, 655.0, 655.0, 654.0, 655.0, 656.0, 657.0, 656.0, 652.0, 657.0, 657.0, 655.0, 654.0, 656.0, 655.0, 657.0, 658.0, 658.0, 654.0, 653.0, 651.0, 654.0, 657.0, 656.0, 654.0, 654.0, 653.0, 652.0, 652.0, 653.0, 652.0, 654.0, 654.0, 656.0, 657.0, 654.0, 653.0, 655.0, 656.0, 655.0, 656.0, 659.0, 659.0, 655.0, 652.0, 653.0, 652.0, 649.0, 649.0, 650.0, 652.0, 654.0, 654.0, 654.0, 653.0, 656.0, 657.0, 656.0, 654.0, 652.0, 654.0, 655.0, 655.0, 651.0, 657.0, 656.0, 656.0, 655.0, 656.0, 658.0, 654.0, 656.0, 657.0, 658.0, 655.0, 652.0, 651.0, 652.0, 651.0, 654.0, 651.0, 654.0, 655.0, 651.0, 649.0, 650.0, 649.0, 648.0, 648.0, 648.0, 650.0, 650.0, 652.0, 650.0, 651.0, 654.0, 655.0, 654.0, 654.0, 654.0, 655.0, 653.0, 652.0, 651.0, 653.0, 654.0, 652.0, 652.0, 663.0, 652.0, 652.0, 652.0, 651.0, 652.0, 653.0, 652.0, 653.0, 654.0, 653.0, 651.0, 653.0, 654.0, 654.0, 652.0, 651.0, 651.0, 652.0, 654.0, 654.0, 653.0, 652.0, 651.0, 652.0, 654.0, 653.0, 656.0, 652.0, 655.0, 654.0, 653.0, 653.0, 651.0, 651.0, 652.0, 654.0, 655.0, 653.0, 654.0, 654.0, 652.0, 654.0, 654.0, 655.0, 654.0, 652.0, 651.0, 654.0, 654.0, 653.0, 654.0, 654.0, 651.0, 652.0, 651.0, 649.0, 650.0, 650.0, 652.0, 652.0, 651.0, 653.0, 653.0, 653.0, 652.0, 651.0, 657.0, 656.0, 657.0, 658.0, 655.0, 656.0, 657.0, 657.0, 655.0, 655.0, 656.0, 657.0, 657.0, 656.0, 654.0, 660.0, 655.0, 657.0, 657.0, 655.0, 653.0, 653.0, 653.0, 654.0, 655.0, 654.0, 654.0, 655.0, 653.0, 654.0, 654.0, 653.0, 653.0, 654.0, 656.0, 656.0, 654.0, 652.0, 653.0, 653.0],
      "WindowWidth": [1381.0, 1379.0, 1378.0, 1379.0, 1385.0, 1383.0, 1380.0, 1379.0, 1384.0, 1378.0, 1376.0, 1375.0, 1376.0, 1378.0, 1381.0, 1382.0, 1380.0, 1380.0, 1382.0, 1383.0, 1380.0, 1383.0, 1386.0, 1386.0, 1385.0, 1377.0, 1387.0, 1387.0, 1383.0, 1380.0, 1385.0, 1384.0, 1387.0, 1389.0, 1390.0, 1382.0, 1377.0, 1374.0, 1381.0, 1387.0, 1384.0, 1380.0, 1380.0, 1377.0, 1376.0, 1377.0, 1377.0, 1377.0, 1381.0, 1381.0, 1385.0, 1387.0, 1382.0, 1379.0, 1382.0, 1385.0, 1382.0, 1385.0, 1392.0, 1391.0, 1384.0, 1377.0, 1377.0, 1376.0, 1370.0, 1370.0, 1372.0, 1375.0, 1380.0, 1380.0, 1381.0, 1379.0, 1385.0, 1387.0, 1384.0, 1381.0, 1377.0, 1379.0, 1383.0, 1383.0, 1374.0, 1386.0, 1386.0, 1386.0, 1383.0, 1384.0, 1390.0, 1381.0, 1386.0, 1389.0, 1390.0, 1382.0, 1377.0, 1373.0, 1375.0, 1374.0, 1378.0, 1375.0, 1380.0, 1382.0, 1374.0, 1371.0, 1371.0, 1370.0, 1368.0, 1368.0, 1368.0, 1372.0, 1372.0, 1374.0, 1370.0, 1373.0, 1381.0, 1383.0, 1381.0, 1381.0, 1381.0, 1382.0, 1378.0, 1375.0, 1374.0, 1379.0, 1381.0, 1377.0, 1375.0, 1395.0, 1377.0, 1375.0, 1375.0, 1375.0, 1376.0, 1378.0, 1377.0, 1378.0, 1380.0, 1379.0, 1375.0, 1378.0, 1381.0, 1379.0, 1375.0, 1374.0, 1374.0, 1376.0, 1381.0, 1381.0, 1378.0, 1377.0, 1375.0, 1377.0, 1380.0, 1378.0, 1384.0, 1377.0, 1383.0, 1381.0, 1378.0, 1377.0, 1374.0, 1373.0, 1375.0, 1380.0, 1381.0, 1379.0, 1381.0, 1381.0, 1377.0, 1379.0, 1381.0, 1383.0, 1380.0, 1377.0, 1376.0, 1381.0, 1381.0, 1377.0, 1380.0, 1381.0, 1375.0, 1376.0, 1372.0, 1369.0, 1371.0, 1372.0, 1376.0, 1375.0, 1373.0, 1377.0, 1378.0, 1378.0, 1376.0, 1374.0, 1386.0, 1383.0, 1388.0, 1388.0, 1383.0, 1385.0, 1388.0, 1386.0, 1382.0, 1382.0, 1385.0, 1388.0, 1387.0, 1384.0, 1381.0, 1390.0, 1383.0, 1386.0, 1387.0, 1383.0, 1379.0, 1379.0, 1377.0, 1380.0, 1382.0, 1380.0, 1380.0, 1383.0, 1379.0, 1379.0, 1379.0, 1378.0, 1379.0, 1380.0, 1385.0, 1383.0, 1379.0, 1375.0, 1376.0, 1377.0]
    },
    "slices": {}
  }
}