{
  "AcquisitionMatrixPE": 100,
  "AcquisitionNumber": 1,
  "AcquisitionTime": "14:52:6.605000",
  "BandwidthPerPixelPhaseEncode": 18.519,
  "BaseResolution": 100,
  "BodyPartExamined": "BRAIN",
  "ConsistencyInfo": "N4_VE11C_LATEST_20160120",
  "ConversionSoftware": "dcm2niix",
  "ConversionSoftwareVersion": "v1.0.20180622 GCC4.9.2",
  "DerivedVendorReportedEchoSpacing": 0.000539986,
  "DeviceSerialNumber": "166078",
  "DwellTime": 2.1e-06,
  "EchoTime": 0.034,
  "EchoTrainLength": 100,
  "EffectiveEchoSpacing": 0.000539986,
  "FlipAngle": 90,
  "ImageOrientationPatientDICOM": [0.999386, 0.0350392, -0.000137643, -0.0348994, 0.995734, 0.0854168],
  "ImageType": [
    "ORIGINAL",
    "PRIMARY",
    "M",
    "ND",
    "MOSAIC"
],
  "InPlanePhaseEncodingDirectionDICOM": "COL",
  "InstitutionAddress": "Street_StreetNo_Bei_Jing_District_CN_ZIP",
  "InstitutionName": "BeiJing_Normal_University",
  "InstitutionalDepartmentName": "Department",
  "MRAcquisitionType": "2D",
  "MagneticFieldStrength": 3,
  "Manufacturer": "Siemens",
  "ManufacturersModelName": "Prisma",
  "Modality": "MR",
  "MultibandAccelerationFactor": 3,
  "PartialFourier": 1,
  "PatientPosition": "HFS",
  "PercentPhaseFOV": 100,
  "PhaseEncodingDirection": "j-",
  "PhaseEncodingSteps": 100,
  "PhaseResolution": 1,
  "PixelBandwidth": 2380,
  "ProcedureStepDescription": "BNU_P2018_64CH_Liu.Jia",
  "ProtocolName": "bold_100x100_s3_2x2x2_232",
  "PulseSequenceDetails": "%SiemensSeq%_ep2d_bold",
  "ReceiveCoilActiveElements": "HC1-7;NC1",
  "ReceiveCoilName": "HeadNeck_64",
  "ReconMatrixPE": 100,
  "RepetitionTime": 2,
  "SAR": 0.0635105,
  "ScanOptions": "FS",
  "ScanningSequence": "EP",
  "SequenceName": "_epfid2d1_100",
  "SequenceVariant": "SK",
  "SeriesDescription": "bold_100x100_s3_2x2x2_232",
  "SeriesNumber": 10,
  "ShimSetting": [-5472, -11473, -1296, 453, -75, -219, -105, 79],
  "SliceThickness": 2,
  "SliceTiming": [1.485, 0, 0.99, 0.0825, 1.0725, 0.165, 1.155, 0.2475, 1.2375, 0.33, 1.32, 0.4125, 1.4025, 0.5775, 1.5675, 0.66, 1.65, 0.7425, 1.7325, 0.825, 1.815, 0.9075, 1.8975, 0.495, 1.485, 0, 0.99, 0.0825, 1.0725, 0.165, 1.155, 0.2475, 1.2375, 0.33, 1.32, 0.4125, 1.4025, 0.5775, 1.5675, 0.66, 1.65, 0.7425, 1.7325, 0.825, 1.815, 0.9075, 1.8975, 0.495, 1.485, 0, 0.99, 0.0825, 1.0725, 0.165, 1.155, 0.2475, 1.2375, 0.33, 1.32, 0.4125, 1.4025, 0.5775, 1.5675, 0.66, 1.65, 0.7425, 1.7325, 0.825, 1.815, 0.9075, 1.8975, 0.495],
  "SoftwareVersions": "syngo_MR_E11",
  "SpacingBetweenSlices": 2,
  "StationName": "AWP166078",
  "TaskName": "motor",
  "TotalReadoutTime": 0.0534586,
  "TxRefAmp": 209.933,
  "dcmmeta_affine": [
    [-1.9987719058990479, -0.0697987899184227, -0.006259985268115997, 103.73918914794922],
    [-0.07007840275764465, 1.991467833518982, 0.17071910202503204, -96.47779846191406],
    [-0.00027528603095561266, -0.17083361744880676, 1.9926905632019043, -61.73902893066406],
    [0.0, 0.0, 0.0, 1.0]
],
  "dcmmeta_reorient_transform": [
    [0.0, -1.0, 0.0, 99.0],
    [1.0, 0.0, 0.0, 0.0],
    [0.0, 0.0, 1.0, 0.0],
    [0.0, 0.0, 0.0, 1.0]
],
  "dcmmeta_shape": [100, 100, 72, 232],
  "dcmmeta_slice_dim": 2,
  "dcmmeta_version": 0.6,
  "global": {
    "const": {
      "AcquisitionMatrix": [100, 0, 0, 100],
      "AngioFlag": "N",
      "BitsAllocated": 16,
      "BitsStored": 12,
      "BodyPartExamined": "BRAIN",
      "Columns": 900,
      "EchoNumbers": 1,
      "EchoTime": 34.0,
      "EchoTrainLength": 100,
      "FlipAngle": 90.0,
      "HighBit": 11,
      "ImageOrientationPatient": [0.99938592911293, 0.03503920298006, -0.0001376430171, -0.0348993959253, 0.99573390039182, 0.08541681201352],
      "ImagePositionPatient": [-868.41833911793, -925.29599583354, -146.87489406454],
      "ImageType": [
        "ORIGINAL",
        "PRIMARY",
        "M",
        "ND",
        "MOSAIC"
],
      "ImagedNucleus": "1H",
      "ImagingFrequency": 123.257873,
      "InPlanePhaseEncodingDirection": "COL",
      "MRAcquisitionType": "2D",
      "MagneticFieldStrength": 3.0,
      "Manufacturer": "SIEMENS",
      "ManufacturerModelName": "Prisma",
      "Modality": "MR",
      "NumberOfAverages": 1.0,
      "NumberOfPhaseEncodingSteps": 100,
      "PercentPhaseFieldOfView": 100.0,
      "PercentSampling": 100.0,
      "PerformedProcedureStepStartTime": "140101.484000",
      "PhotometricInterpretation": "MONOCHROME2",
      "PixelBandwidth": 2380.0,
      "PixelRepresentation": 0,
      "PixelSpacing": [2.0, 2.0],
      "ProtocolName": "bold_100x100_s3_2x2x2_232",
      "RepetitionTime": 2000.0,
      "Rows": 900,
      "SAR": 0.06351053867547,
      "SamplesPerPixel": 1,
      "ScanOptions": "FS",
      "ScanningSequence": "EP",
      "SequenceName": "*epfid2d1_100",
      "SequenceVariant": "SK",
      "SeriesDescription": "bold_100x100_s3_2x2x2_232",
      "SeriesNumber": 10,
      "SeriesTime": "145209.083000",
      "SliceLocation": -70.073397286917,
      "SliceThickness": 2.0,
      "SmallestImagePixelValue": 0,
      "SoftwareVersions": "syngo MR E11",
      "SpacingBetweenSlices": 1.9999999109636,
      "SpecificCharacterSet": "ISO_IR 100",
      "StudyID": "1",
      "StudyTime": "140101.393000",
      "TransmitCoilName": "Body",
      "VariableFlipAngleFlag": "N",
      "WindowCenterWidthExplanation": "Algo1",
      "dBdt": 0.0},
    "slices": {}
  },
  "time": {
    "samples": {
      "AcquisitionNumber": [1, 2, 3, 4, 5, 6, 7, 8, 9, 10, 11, 12, 13, 14, 15, 16, 17, 18, 19, 20, 21, 22, 23, 24, 25, 26, 27, 28, 29, 30, 31, 32, 33, 34, 35, 36, 37, 38, 39, 40, 41, 42, 43, 44, 45, 46, 47, 48, 49, 50, 51, 52, 53, 54, 55, 56, 57, 58, 59, 60, 61, 62, 63, 64, 65, 66, 67, 68, 69, 70, 71, 72, 73, 74, 75, 76, 77, 78, 79, 80, 81, 82, 83, 84, 85, 86, 87, 88, 89, 90, 91, 92, 93, 94, 95, 96, 97, 98, 99, 100, 101, 102, 103, 104, 105, 106, 107, 108, 109, 110, 111, 112, 113, 114, 115, 116, 117, 118, 119, 120, 121, 122, 123, 124, 125, 126, 127, 128, 129, 130, 131, 132, 133, 134, 135, 136, 137, 138, 139, 140, 141, 142, 143, 144, 145, 146, 147, 148, 149, 150, 151, 152, 153, 154, 155, 156, 157, 158, 159, 160, 161, 162, 163, 164, 165, 166, 167, 168, 169, 170, 171, 172, 173, 174, 175, 176, 177, 178, 179, 180, 181, 182, 183, 184, 185, 186, 187, 188, 189, 190, 191, 192, 193, 194, 195, 196, 197, 198, 199, 200, 201, 202, 203, 204, 205, 206, 207, 208, 209, 210, 211, 212, 213, 214, 215, 216, 217, 218, 219, 220, 221, 222, 223, 224, 225, 226, 227, 228, 229, 230, 231, 232],
      "AcquisitionTime": ["145206.605000", "145208.605000", "145210.605000", "145212.605000", "145214.605000", "145216.605000", "145218.605000", "145220.605000", "145222.605000", "145224.605000", "145226.605000", "145228.605000", "145230.605000", "145232.605000", "145234.605000", "145236.605000", "145238.605000", "145240.605000", "145242.605000", "145244.605000", "145246.605000", "145248.605000", "145250.605000", "145252.605000", "145254.605000", "145256.605000", "145258.605000", "145300.605000", "145302.605000", "145304.605000", "145306.605000", "145308.605000", "145310.605000", "145312.605000", "145314.605000", "145316.605000", "145318.605000", "145320.605000", "145322.605000", "145324.605000", "145326.605000", "145328.605000", "145330.605000", "145332.605000", "145334.605000", "145336.605000", "145338.605000", "145340.605000", "145342.605000", "145344.605000", "145346.605000", "145348.605000", "145350.605000", "145352.605000", "145354.605000", "145356.605000", "145358.605000", "145400.605000", "145402.605000", "145404.605000", "145406.605000", "145408.605000", "145410.605000", "145412.605000", "145414.605000", "145416.605000", "145418.605000", "145420.605000", "145422.605000", "145424.605000", "145426.605000", "145428.605000", "145430.605000", "145432.605000", "145434.605000", "145436.605000", "145438.605000", "145440.605000", "145442.605000", "145444.605000", "145446.605000", "145448.605000", "145450.605000", "145452.605000", "145454.605000", "145456.605000", "145458.605000", "145500.605000", "145502.605000", "145504.605000", "145506.605000", "145508.605000", "145510.605000", "145512.605000", "145514.605000", "145516.605000", "145518.605000", "145520.605000", "145522.605000", "145524.605000", "145526.605000", "145528.605000", "145530.605000", "145532.605000", "145534.605000", "145536.605000", "145538.605000", "145540.605000", "145542.605000", "145544.605000", "145546.605000", "145548.605000", "145550.605000", "145552.605000", "145554.605000", "145556.605000", "145558.605000", "145600.605000", "145602.605000", "145604.605000", "145606.605000", "145608.605000", "145610.605000", "145612.605000", "145614.605000", "145616.605000", "145618.605000", "145620.605000", "145622.605000", "145624.605000", "145626.605000", "145628.605000", "145630.605000", "145632.605000", "145634.605000", "145636.605000", "145638.605000", "145640.605000", "145642.605000", "145644.605000", "145646.605000", "145648.605000", "145650.605000", "145652.605000", "145654.605000", "145656.605000", "145658.605000", "145700.605000", "145702.605000", "145704.605000", "145706.605000", "145708.605000", "145710.605000", "145712.605000", "145714.605000", "145716.605000", "145718.605000", "145720.605000", "145722.605000", "145724.605000", "145726.605000", "145728.605000", "145730.605000", "145732.605000", "145734.605000", "145736.605000", "145738.605000", "145740.605000", "145742.605000", "145744.605000", "145746.605000", "145748.605000", "145750.605000", "145752.605000", "145754.605000", "145756.605000", "145758.605000", "145800.605000", "145802.605000", "145804.605000", "145806.605000", "145808.605000", "145810.605000", "145812.605000", "145814.605000", "145816.605000", "145818.605000", "145820.605000", "145822.605000", "145824.605000", "145826.605000", "145828.605000", "145830.605000", "145832.605000", "145834.605000", "145836.605000", "145838.605000", "145840.605000", "145842.605000", "145844.605000", "145846.605000", "145848.605000", "145850.605000", "145852.605000", "145854.605000", "145856.605000", "145858.605000", "145900.605000", "145902.605000", "145904.605000", "145906.605000", "145908.605000", "145910.605000", "145912.605000", "145914.605000", "145916.605000", "145918.605000", "145920.605000", "145922.605000", "145924.605000", "145926.605000", "145928.605000", "145930.605000", "145932.605000", "145934.605000", "145936.605000", "145938.605000", "145940.605000", "145942.605000", "145944.605000", "145946.605000", "145948.605000"],
      "ContentTime": ["145209.086000", "145210.582000", "145212.582000", "145214.583000", "145216.583000", "145218.583000", "145220.583000", "145222.583000", "145224.582000", "145226.582000", "145228.582000", "145230.583000", "145232.584000", "145234.583000", "145236.583000", "145238.583000", "145240.582000", "145242.582000", "145244.583000", "145246.583000", "145248.582000", "145250.584000", "145252.583000", "145254.583000", "145256.583000", "145258.583000", "145300.582000", "145302.582000", "145304.582000", "145306.582000", "145308.583000", "145310.583000", "145312.583000", "145314.584000", "145316.583000", "145318.583000", "145320.582000", "145322.582000", "145324.584000", "145326.583000", "145328.584000", "145330.583000", "145332.584000", "145334.583000", "145336.582000", "145338.582000", "145340.583000", "145342.583000", "145344.583000", "145346.583000", "145348.583000", "145350.583000", "145352.582000", "145354.583000", "145356.582000", "145358.582000", "145400.583000", "145402.583000", "145404.583000", "145406.583000", "145408.583000", "145410.583000", "145412.582000", "145414.582000", "145416.582000", "145418.583000", "145420.584000", "145422.583000", "145424.583000", "145426.583000", "145428.582000", "145430.582000", "145432.583000", "145434.583000", "145436.584000", "145438.584000", "145440.583000", "145442.583000", "145444.583000", "145446.583000", "145448.583000", "145450.582000", "145452.583000", "145454.583000", "145456.583000", "145458.583000", "145500.583000", "145502.583000", "145504.582000", "145506.583000", "145508.582000", "145510.583000", "145512.583000", "145514.583000", "145516.583000", "145518.583000", "145520.583000", "145522.583000", "145524.582000", "145526.582000", "145528.583000", "145530.583000", "145532.583000", "145534.583000", "145536.583000", "145538.582000", "145540.582000", "145542.582000", "145544.583000", "145546.583000", "145548.583000", "145550.583000", "145552.583000", "145554.582000", "145556.582000", "145558.583000", "145600.582000", "145602.584000", "145604.583000", "145606.584000", "145608.583000", "145610.582000", "145612.582000", "145614.583000", "145616.582000", "145618.583000", "145620.584000", "145622.584000", "145624.583000", "145626.583000", "145628.583000", "145630.583000", "145632.583000", "145634.582000", "145636.582000", "145638.583000", "145640.584000", "145642.583000", "145644.583000", "145646.582000", "145648.582000", "145650.583000", "145652.583000", "145654.584000", "145656.583000", "145658.583000", "145700.583000", "145702.583000", "145704.582000", "145706.582000", "145708.582000", "145710.582000", "145712.583000", "145714.584000", "145716.583000", "145718.583000", "145720.583000", "145722.582000", "145724.583000", "145726.582000", "145728.582000", "145730.584000", "145732.583000", "145734.584000", "145736.583000", "145738.582000", "145740.582000", "145742.583000", "145744.582000", "145746.582000", "145748.584000", "145750.583000", "145752.583000", "145754.583000", "145756.582000", "145758.582000", "145800.582000", "145802.582000", "145804.583000", "145806.584000", "145808.583000", "145810.584000", "145812.583000", "145814.582000", "145816.582000", "145818.582000", "145820.582000", "145822.584000", "145824.583000", "145826.583000", "145828.583000", "145830.583000", "145832.582000", "145834.582000", "145836.583000", "145838.582000", "145840.583000", "145842.583000", "145844.584000", "145846.583000", "145848.582000", "145850.582000", "145852.583000", "145854.582000", "145856.584000", "145858.583000", "145900.583000", "145902.583000", "145904.584000", "145906.593000", "145908.583000", "145910.582000", "145912.582000", "145914.584000", "145916.584000", "145918.583000", "145920.583000", "145922.584000", "145924.582000", "145926.582000", "145928.583000", "145930.583000", "145932.583000", "145934.583000", "145936.583000", "145938.583000", "145940.582000", "145942.583000", "145944.582000", "145946.582000", "145948.583000", "145950.128000"],
      "InstanceCreationTime": ["145209.086000", "145210.582000", "145212.582000", "145214.583000", "145216.583000", "145218.583000", "145220.583000", "145222.583000", "145224.582000", "145226.582000", "145228.582000", "145230.583000", "145232.584000", "145234.583000", "145236.583000", "145238.583000", "145240.582000", "145242.582000", "145244.583000", "145246.583000", "145248.582000", "145250.584000", "145252.583000", "145254.583000", "145256.583000", "145258.583000", "145300.582000", "145302.582000", "145304.582000", "145306.582000", "145308.583000", "145310.583000", "145312.583000", "145314.584000", "145316.583000", "145318.583000", "145320.582000", "145322.582000", "145324.584000", "145326.583000", "145328.584000", "145330.583000", "145332.584000", "145334.583000", "145336.582000", "145338.582000", "145340.583000", "145342.583000", "145344.583000", "145346.583000", "145348.583000", "145350.583000", "145352.582000", "145354.583000", "145356.582000", "145358.582000", "145400.583000", "145402.583000", "145404.583000", "145406.583000", "145408.583000", "145410.583000", "145412.582000", "145414.582000", "145416.582000", "145418.583000", "145420.584000", "145422.583000", "145424.583000", "145426.583000", "145428.582000", "145430.582000", "145432.583000", "145434.583000", "145436.584000", "145438.584000", "145440.583000", "145442.583000", "145444.583000", "145446.583000", "145448.583000", "145450.582000", "145452.583000", "145454.583000", "145456.583000", "145458.583000", "145500.583000", "145502.583000", "145504.582000", "145506.583000", "145508.582000", "145510.583000", "145512.583000", "145514.583000", "145516.583000", "145518.583000", "145520.583000", "145522.583000", "145524.582000", "145526.582000", "145528.583000", "145530.583000", "145532.583000", "145534.583000", "145536.583000", "145538.582000", "145540.582000", "145542.582000", "145544.583000", "145546.583000", "145548.583000", "145550.583000", "145552.583000", "145554.582000", "145556.582000", "145558.583000", "145600.582000", "145602.584000", "145604.583000", "145606.584000", "145608.583000", "145610.582000", "145612.582000", "145614.583000", "145616.582000", "145618.583000", "145620.584000", "145622.584000", "145624.583000", "145626.583000", "145628.583000", "145630.583000", "145632.583000", "145634.582000", "145636.582000", "145638.583000", "145640.584000", "145642.583000", "145644.583000", "145646.582000", "145648.582000", "145650.583000", "145652.583000", "145654.584000", "145656.583000", "145658.583000", "145700.583000", "145702.583000", "145704.582000", "145706.582000", "145708.582000", "145710.582000", "145712.583000", "145714.584000", "145716.583000", "145718.583000", "145720.583000", "145722.582000", "145724.583000", "145726.582000", "145728.582000", "145730.584000", "145732.583000", "145734.584000", "145736.583000", "145738.582000", "145740.582000", "145742.583000", "145744.582000", "145746.582000", "145748.584000", "145750.583000", "145752.583000", "145754.583000", "145756.582000", "145758.582000", "145800.582000", "145802.582000", "145804.583000", "145806.584000", "145808.583000", "145810.584000", "145812.583000", "145814.582000", "145816.582000", "145818.582000", "145820.582000", "145822.584000", "145824.583000", "145826.583000", "145828.583000", "145830.583000", "145832.582000", "145834.582000", "145836.583000", "145838.582000", "145840.583000", "145842.583000", "145844.584000", "145846.583000", "145848.582000", "145850.582000", "145852.583000", "145854.582000", "145856.584000", "145858.583000", "145900.583000", "145902.583000", "145904.584000", "145906.593000", "145908.583000", "145910.582000", "145912.582000", "145914.584000", "145916.584000", "145918.583000", "145920.583000", "145922.584000", "145924.582000", "145926.582000", "145928.583000", "145930.583000", "145932.583000", "145934.583000", "145936.583000", "145938.583000", "145940.582000", "145942.583000", "145944.582000", "145946.582000", "145948.583000", "145950.128000"],
      "InstanceNumber": [1, 2, 3, 4, 5, 6, 7, 8, 9, 10, 11, 12, 13, 14, 15, 16, 17, 18, 19, 20, 21, 22, 23, 24, 25, 26, 27, 28, 29, 30, 31, 32, 33, 34, 35, 36, 37, 38, 39, 40, 41, 42, 43, 44, 45, 46, 47, 48, 49, 50, 51, 52, 53, 54, 55, 56, 57, 58, 59, 60, 61, 62, 63, 64, 65, 66, 67, 68, 69, 70, 71, 72, 73, 74, 75, 76, 77, 78, 79, 80, 81, 82, 83, 84, 85, 86, 87, 88, 89, 90, 91, 92, 93, 94, 95, 96, 97, 98, 99, 100, 101, 102, 103, 104, 105, 106, 107, 108, 109, 110, 111, 112, 113, 114, 115, 116, 117, 118, 119, 120, 121, 122, 123, 124, 125, 126, 127, 128, 129, 130, 131, 132, 133, 134, 135, 136, 137, 138, 139, 140, 141, 142, 143, 144, 145, 146, 147, 148, 149, 150, 151, 152, 153, 154, 155, 156, 157, 158, 159, 160, 161, 162, 163, 164, 165, 166, 167, 168, 169, 170, 171, 172, 173, 174, 175, 176, 177, 178, 179, 180, 181, 182, 183, 184, 185, 186, 187, 188, 189, 190, 191, 192, 193, 194, 195, 196, 197, 198, 199, 200, 201, 202, 203, 204, 205, 206, 207, 208, 209, 210, 211, 212, 213, 214, 215, 216, 217, 218, 219, 220, 221, 222, 223, 224, 225, 226, 227, 228, 229, 230, 231, 232],
      "LargestImagePixelValue": [3412, 3236, 3265, 3281, 3218, 3294, 3260, 3219, 3270, 3239, 3246, 3268, 3249, 3168, 3267, 3242, 3207, 3228, 3277, 3294, 3303, 3239, 3229, 3264, 3264, 3198, 3226, 3216, 3287, 3337, 3274, 3202, 3170, 3131, 3187, 3199, 3687, 3171, 3168, 3146, 3182, 3189, 3253, 3279, 3168, 3218, 3239, 3213, 3217, 3147, 3248, 3136, 3182, 3246, 3202, 3196, 3231, 3221, 3195, 3152, 3208, 3135, 3121, 3205, 3178, 3090, 3126, 3168, 3208, 3169, 3112, 3179, 3144, 3102, 3187, 3244, 3168, 3145, 3148, 3212, 3083, 3114, 3264, 3218, 3130, 3158, 3130, 3209, 3293, 3166, 3200, 3077, 3157, 3027, 3272, 3362, 3201, 3049, 3166, 3238, 3186, 3111, 3283, 3338, 3143, 3424, 3260, 3133, 3306, 3288, 3222, 3276, 3206, 3274, 3256, 3284, 3188, 3153, 3187, 3147, 3119, 3111, 3216, 3159, 3183, 3222, 3103, 3122, 3136, 3207, 3169, 3163, 3176, 3181, 3225, 3374, 3166, 3199, 3168, 3108, 3163, 3109, 3181, 3132, 3218, 3137, 3173, 3096, 3191, 3124, 3171, 3097, 3146, 3155, 3155, 3193, 3392, 3189, 3158, 3129, 3151, 3137, 3147, 3117, 3159, 3249, 3193, 3144, 3143, 3178, 3261, 3182, 3212, 3132, 3202, 3224, 3200, 3235, 3166, 3271, 3245, 3291, 3235, 3164, 3225, 3108, 3215, 3199, 3096, 3163, 3172, 3205, 3203, 3172, 3185, 3131, 3182, 3090, 3303, 3125, 3234, 3187, 3154, 3077, 3165, 3102, 3124, 3093, 3118, 3194, 3201, 3087, 3219, 3205, 3275, 3234, 3223, 3216, 3200, 3324, 3183, 3218, 3174, 3158, 3124, 3286, 3229, 3293, 3312, 3239, 3207, 3209],
      "WindowCenter": [748.0, 744.0, 745.0, 744.0, 743.0, 745.0, 744.0, 744.0, 745.0, 744.0, 745.0, 745.0, 744.0, 743.0, 745.0, 744.0, 744.0, 746.0, 746.0, 745.0, 745.0, 745.0, 745.0, 744.0, 743.0, 742.0, 745.0, 742.0, 741.0, 744.0, 742.0, 742.0, 745.0, 743.0, 745.0, 745.0, 747.0, 744.0, 743.0, 743.0, 744.0, 744.0, 746.0, 744.0, 743.0, 744.0, 743.0, 743.0, 743.0, 743.0, 746.0, 745.0, 746.0, 745.0, 744.0, 744.0, 745.0, 743.0, 743.0, 743.0, 743.0, 742.0, 743.0, 745.0, 743.0, 743.0, 744.0, 744.0, 744.0, 744.0, 744.0, 744.0, 743.0, 745.0, 748.0, 746.0, 744.0, 744.0, 744.0, 742.0, 741.0, 744.0, 744.0, 743.0, 743.0, 743.0, 743.0, 745.0, 744.0, 745.0, 743.0, 742.0, 743.0, 742.0, 744.0, 745.0, 742.0, 745.0, 746.0, 745.0, 745.0, 745.0, 747.0, 746.0, 745.0, 746.0, 745.0, 746.0, 748.0, 746.0, 746.0, 744.0, 744.0, 746.0, 745.0, 746.0, 743.0, 743.0, 743.0, 742.0, 741.0, 743.0, 745.0, 744.0, 743.0, 742.0, 742.0, 741.0, 741.0, 743.0, 743.0, 744.0, 743.0, 744.0, 744.0, 745.0, 744.0, 744.0, 742.0, 742.0, 741.0, 742.0, 743.0, 743.0, 743.0, 743.0, 744.0, 742.0, 743.0, 741.0, 743.0, 743.0, 744.0, 744.0, 745.0, 746.0, 745.0, 742.0, 743.0, 741.0, 741.0, 743.0, 743.0, 743.0, 743.0, 743.0, 744.0, 743.0, 743.0, 745.0, 745.0, 745.0, 745.0, 743.0, 745.0, 744.0, 745.0, 745.0, 744.0, 747.0, 746.0, 747.0, 744.0, 744.0, 745.0, 745.0, 747.0, 744.0, 743.0, 746.0, 745.0, 746.0, 744.0, 745.0, 745.0, 745.0, 745.0, 744.0, 745.0, 745.0, 746.0, 746.0, 744.0, 742.0, 744.0, 741.0, 743.0, 743.0, 742.0, 746.0, 745.0, 743.0, 745.0, 744.0, 745.0, 744.0, 744.0, 745.0, 746.0, 745.0, 743.0, 743.0, 741.0, 740.0, 740.0, 743.0, 744.0, 745.0, 745.0, 745.0, 744.0, 743.0],
      "WindowWidth": [1623.0, 1613.0, 1616.0, 1611.0, 1611.0, 1616.0, 1612.0, 1612.0, 1615.0, 1613.0, 1616.0, 1615.0, 1611.0, 1611.0, 1616.0, 1613.0, 1613.0, 1617.0, 1617.0, 1614.0, 1616.0, 1614.0, 1615.0, 1614.0, 1609.0, 1608.0, 1615.0, 1608.0, 1606.0, 1614.0, 1608.0, 1609.0, 1615.0, 1610.0, 1615.0, 1615.0, 1620.0, 1612.0, 1611.0, 1610.0, 1612.0, 1613.0, 1618.0, 1612.0, 1610.0, 1613.0, 1609.0, 1609.0, 1608.0, 1611.0, 1617.0, 1614.0, 1617.0, 1614.0, 1611.0, 1613.0, 1615.0, 1610.0, 1610.0, 1611.0, 1611.0, 1608.0, 1611.0, 1616.0, 1611.0, 1611.0, 1614.0, 1613.0, 1614.0, 1611.0, 1612.0, 1613.0, 1610.0, 1615.0, 1622.0, 1618.0, 1613.0, 1612.0, 1612.0, 1608.0, 1605.0, 1612.0, 1613.0, 1610.0, 1610.0, 1609.0, 1611.0, 1614.0, 1613.0, 1617.0, 1611.0, 1609.0, 1610.0, 1607.0, 1613.0, 1617.0, 1608.0, 1614.0, 1618.0, 1615.0, 1616.0, 1615.0, 1620.0, 1618.0, 1615.0, 1617.0, 1614.0, 1618.0, 1622.0, 1619.0, 1617.0, 1614.0, 1611.0, 1617.0, 1614.0, 1617.0, 1610.0, 1610.0, 1610.0, 1608.0, 1605.0, 1611.0, 1617.0, 1612.0, 1610.0, 1606.0, 1606.0, 1605.0, 1605.0, 1609.0, 1608.0, 1612.0, 1611.0, 1613.0, 1613.0, 1616.0, 1613.0, 1612.0, 1607.0, 1607.0, 1604.0, 1608.0, 1609.0, 1611.0, 1610.0, 1610.0, 1613.0, 1609.0, 1609.0, 1605.0, 1609.0, 1608.0, 1612.0, 1613.0, 1615.0, 1617.0, 1614.0, 1608.0, 1609.0, 1605.0, 1605.0, 1610.0, 1609.0, 1610.0, 1610.0, 1611.0, 1613.0, 1610.0, 1609.0, 1614.0, 1614.0, 1614.0, 1615.0, 1611.0, 1615.0, 1614.0, 1614.0, 1616.0, 1614.0, 1621.0, 1617.0, 1620.0, 1613.0, 1612.0, 1616.0, 1614.0, 1619.0, 1612.0, 1611.0, 1617.0, 1616.0, 1617.0, 1611.0, 1614.0, 1615.0, 1615.0, 1614.0, 1611.0, 1614.0, 1616.0, 1617.0, 1619.0, 1612.0, 1606.0, 1611.0, 1604.0, 1610.0, 1610.0, 1608.0, 1618.0, 1615.0, 1610.0, 1615.0, 1611.0, 1614.0, 1614.0, 1613.0, 1616.0, 1617.0, 1614.0, 1609.0, 1608.0, 1604.0, 1602.0, 1600.0, 1608.0, 1613.0, 1616.0, 1616.0, 1616.0, 1612.0, 1610.0]
    },
    "slices": {}
  }
}