{
  "AcquisitionMatrixPE": 100,
  "AcquisitionNumber": 1,
  "AcquisitionTime": "14:22:57.755000",
  "BandwidthPerPixelPhaseEncode": 18.519,
  "BaseResolution": 100,
  "BodyPartExamined": "BRAIN",
  "ConsistencyInfo": "N4_VE11C_LATEST_20160120",
  "ConversionSoftware": "dcm2niix",
  "ConversionSoftwareVersion": "v1.0.20180622 GCC4.9.2",
  "DerivedVendorReportedEchoSpacing": 0.000539986,
  "DeviceSerialNumber": "166078",
  "DwellTime": 2.1e-06,
  "EchoTime": 0.034,
  "EchoTrainLength": 100,
  "EffectiveEchoSpacing": 0.000539986,
  "FlipAngle": 90,
  "ImageOrientationPatientDICOM": [0.999386, 0.0350392, -0.000137643, -0.0348994, 0.995734, 0.0854168],
  "ImageType": [
    "ORIGINAL",
    "PRIMARY",
    "M",
    "ND",
    "MOSAIC"
],
  "InPlanePhaseEncodingDirectionDICOM": "COL",
  "InstitutionAddress": "Street_StreetNo_Bei_Jing_District_CN_ZIP",
  "InstitutionName": "BeiJing_Normal_University",
  "InstitutionalDepartmentName": "Department",
  "MRAcquisitionType": "2D",
  "MagneticFieldStrength": 3,
  "Manufacturer": "Siemens",
  "ManufacturersModelName": "Prisma",
  "Modality": "MR",
  "MultibandAccelerationFactor": 3,
  "PartialFourier": 1,
  "PatientPosition": "HFS",
  "PercentPhaseFOV": 100,
  "PhaseEncodingDirection": "j-",
  "PhaseEncodingSteps": 100,
  "PhaseResolution": 1,
  "PixelBandwidth": 2380,
  "ProcedureStepDescription": "BNU_P2018_64CH_Liu.Jia",
  "ProtocolName": "bold_100x100_s3_2x2x2_232",
  "PulseSequenceDetails": "%SiemensSeq%_ep2d_bold",
  "ReceiveCoilActiveElements": "HC1-7;NC1",
  "ReceiveCoilName": "HeadNeck_64",
  "ReconMatrixPE": 100,
  "RepetitionTime": 2,
  "SAR": 0.0635105,
  "ScanOptions": "FS",
  "ScanningSequence": "EP",
  "SequenceName": "_epfid2d1_100",
  "SequenceVariant": "SK",
  "SeriesDescription": "bold_100x100_s3_2x2x2_232",
  "SeriesNumber": 5,
  "ShimSetting": [-5472, -11473, -1296, 453, -75, -219, -105, 79],
  "SliceThickness": 2,
  "SliceTiming": [1.485, 0, 0.99, 0.0825, 1.0725, 0.165, 1.155, 0.2475, 1.2375, 0.33, 1.32, 0.4125, 1.4025, 0.5775, 1.5675, 0.66, 1.65, 0.7425, 1.7325, 0.825, 1.815, 0.9075, 1.8975, 0.495, 1.485, 0, 0.99, 0.0825, 1.0725, 0.165, 1.155, 0.2475, 1.2375, 0.33, 1.32, 0.4125, 1.4025, 0.5775, 1.5675, 0.66, 1.65, 0.7425, 1.7325, 0.825, 1.815, 0.9075, 1.8975, 0.495, 1.485, 0, 0.99, 0.0825, 1.0725, 0.165, 1.155, 0.2475, 1.2375, 0.33, 1.32, 0.4125, 1.4025, 0.5775, 1.5675, 0.66, 1.65, 0.7425, 1.7325, 0.825, 1.815, 0.9075, 1.8975, 0.495],
  "SoftwareVersions": "syngo_MR_E11",
  "SpacingBetweenSlices": 2,
  "StationName": "AWP166078",
  "TaskName": "motor",
  "TotalReadoutTime": 0.0534586,
  "TxRefAmp": 209.933,
  "dcmmeta_affine": [
    [-1.9987719058990479, -0.0697987899184227, -0.006259985268115997, 103.73918914794922],
    [-0.07007840275764465, 1.991467833518982, 0.17071910202503204, -96.47779846191406],
    [-0.00027528603095561266, -0.17083361744880676, 1.9926905632019043, -61.73902893066406],
    [0.0, 0.0, 0.0, 1.0]
],
  "dcmmeta_reorient_transform": [
    [0.0, -1.0, 0.0, 99.0],
    [1.0, 0.0, 0.0, 0.0],
    [0.0, 0.0, 1.0, 0.0],
    [0.0, 0.0, 0.0, 1.0]
],
  "dcmmeta_shape": [100, 100, 72, 232],
  "dcmmeta_slice_dim": 2,
  "dcmmeta_version": 0.6,
  "global": {
    "const": {
      "AcquisitionMatrix": [100, 0, 0, 100],
      "AngioFlag": "N",
      "BitsAllocated": 16,
      "BitsStored": 12,
      "BodyPartExamined": "BRAIN",
      "Columns": 900,
      "EchoNumbers": 1,
      "EchoTime": 34.0,
      "EchoTrainLength": 100,
      "FlipAngle": 90.0,
      "HighBit": 11,
      "ImageOrientationPatient": [0.99938592911293, 0.03503920298006, -0.0001376430171, -0.0348993959253, 0.99573390039182, 0.08541681201352],
      "ImagePositionPatient": [-868.41833911793, -925.29599583354, -146.87489406454],
      "ImageType": [
        "ORIGINAL",
        "PRIMARY",
        "M",
        "ND",
        "MOSAIC"
],
      "ImagedNucleus": "1H",
      "ImagingFrequency": 123.257866,
      "InPlanePhaseEncodingDirection": "COL",
      "MRAcquisitionType": "2D",
      "MagneticFieldStrength": 3.0,
      "Manufacturer": "SIEMENS",
      "ManufacturerModelName": "Prisma",
      "Modality": "MR",
      "NumberOfAverages": 1.0,
      "NumberOfPhaseEncodingSteps": 100,
      "PercentPhaseFieldOfView": 100.0,
      "PercentSampling": 100.0,
      "PerformedProcedureStepStartTime": "140101.484000",
      "PhotometricInterpretation": "MONOCHROME2",
      "PixelBandwidth": 2380.0,
      "PixelRepresentation": 0,
      "PixelSpacing": [2.0, 2.0],
      "ProtocolName": "bold_100x100_s3_2x2x2_232",
      "RepetitionTime": 2000.0,
      "Rows": 900,
      "SAR": 0.06351053867547,
      "SamplesPerPixel": 1,
      "ScanOptions": "FS",
      "ScanningSequence": "EP",
      "SequenceName": "*epfid2d1_100",
      "SequenceVariant": "SK",
      "SeriesDescription": "bold_100x100_s3_2x2x2_232",
      "SeriesNumber": 5,
      "SeriesTime": "142300.160000",
      "SliceLocation": -70.073397286917,
      "SliceThickness": 2.0,
      "SmallestImagePixelValue": 0,
      "SoftwareVersions": "syngo MR E11",
      "SpacingBetweenSlices": 1.9999999109636,
      "SpecificCharacterSet": "ISO_IR 100",
      "StudyID": "1",
      "StudyTime": "140101.393000",
      "TransmitCoilName": "Body",
      "VariableFlipAngleFlag": "N",
      "WindowCenterWidthExplanation": "Algo1",
      "dBdt": 0.0},
    "slices": {}
  },
  "time": {
    "samples": {
      "AcquisitionNumber": [1, 2, 3, 4, 5, 6, 7, 8, 9, 10, 11, 12, 13, 14, 15, 16, 17, 18, 19, 20, 21, 22, 23, 24, 25, 26, 27, 28, 29, 30, 31, 32, 33, 34, 35, 36, 37, 38, 39, 40, 41, 42, 43, 44, 45, 46, 47, 48, 49, 50, 51, 52, 53, 54, 55, 56, 57, 58, 59, 60, 61, 62, 63, 64, 65, 66, 67, 68, 69, 70, 71, 72, 73, 74, 75, 76, 77, 78, 79, 80, 81, 82, 83, 84, 85, 86, 87, 88, 89, 90, 91, 92, 93, 94, 95, 96, 97, 98, 99, 100, 101, 102, 103, 104, 105, 106, 107, 108, 109, 110, 111, 112, 113, 114, 115, 116, 117, 118, 119, 120, 121, 122, 123, 124, 125, 126, 127, 128, 129, 130, 131, 132, 133, 134, 135, 136, 137, 138, 139, 140, 141, 142, 143, 144, 145, 146, 147, 148, 149, 150, 151, 152, 153, 154, 155, 156, 157, 158, 159, 160, 161, 162, 163, 164, 165, 166, 167, 168, 169, 170, 171, 172, 173, 174, 175, 176, 177, 178, 179, 180, 181, 182, 183, 184, 185, 186, 187, 188, 189, 190, 191, 192, 193, 194, 195, 196, 197, 198, 199, 200, 201, 202, 203, 204, 205, 206, 207, 208, 209, 210, 211, 212, 213, 214, 215, 216, 217, 218, 219, 220, 221, 222, 223, 224, 225, 226, 227, 228, 229, 230, 231, 232],
      "AcquisitionTime": ["142257.755000", "142259.755000", "142301.755000", "142303.755000", "142305.755000", "142307.755000", "142309.755000", "142311.755000", "142313.755000", "142315.755000", "142317.755000", "142319.755000", "142321.755000", "142323.755000", "142325.755000", "142327.755000", "142329.755000", "142331.755000", "142333.755000", "142335.755000", "142337.755000", "142339.755000", "142341.755000", "142343.755000", "142345.755000", "142347.755000", "142349.755000", "142351.755000", "142353.755000", "142355.755000", "142357.755000", "142359.755000", "142401.755000", "142403.755000", "142405.755000", "142407.755000", "142409.755000", "142411.755000", "142413.755000", "142415.755000", "142417.755000", "142419.755000", "142421.755000", "142423.755000", "142425.755000", "142427.755000", "142429.755000", "142431.755000", "142433.755000", "142435.755000", "142437.755000", "142439.755000", "142441.755000", "142443.755000", "142445.755000", "142447.755000", "142449.755000", "142451.755000", "142453.755000", "142455.755000", "142457.755000", "142459.755000", "142501.755000", "142503.755000", "142505.755000", "142507.755000", "142509.755000", "142511.755000", "142513.755000", "142515.755000", "142517.755000", "142519.755000", "142521.755000", "142523.755000", "142525.755000", "142527.755000", "142529.755000", "142531.755000", "142533.755000", "142535.755000", "142537.755000", "142539.755000", "142541.755000", "142543.755000", "142545.755000", "142547.755000", "142549.755000", "142551.755000", "142553.755000", "142555.755000", "142557.755000", "142559.755000", "142601.755000", "142603.755000", "142605.755000", "142607.755000", "142609.755000", "142611.755000", "142613.755000", "142615.755000", "142617.755000", "142619.755000", "142621.755000", "142623.755000", "142625.755000", "142627.755000", "142629.755000", "142631.755000", "142633.755000", "142635.755000", "142637.755000", "142639.755000", "142641.755000", "142643.755000", "142645.755000", "142647.755000", "142649.755000", "142651.755000", "142653.755000", "142655.755000", "142657.755000", "142659.755000", "142701.755000", "142703.755000", "142705.755000", "142707.755000", "142709.755000", "142711.755000", "142713.755000", "142715.755000", "142717.755000", "142719.755000", "142721.755000", "142723.755000", "142725.755000", "142727.755000", "142729.755000", "142731.755000", "142733.755000", "142735.755000", "142737.755000", "142739.755000", "142741.755000", "142743.755000", "142745.755000", "142747.755000", "142749.755000", "142751.755000", "142753.755000", "142755.755000", "142757.755000", "142759.755000", "142801.755000", "142803.755000", "142805.755000", "142807.755000", "142809.755000", "142811.755000", "142813.755000", "142815.755000", "142817.755000", "142819.755000", "142821.755000", "142823.755000", "142825.755000", "142827.755000", "142829.755000", "142831.755000", "142833.755000", "142835.755000", "142837.755000", "142839.755000", "142841.755000", "142843.755000", "142845.755000", "142847.755000", "142849.755000", "142851.755000", "142853.755000", "142855.755000", "142857.755000", "142859.755000", "142901.755000", "142903.755000", "142905.755000", "142907.755000", "142909.755000", "142911.755000", "142913.755000", "142915.755000", "142917.755000", "142919.755000", "142921.755000", "142923.755000", "142925.755000", "142927.755000", "142929.755000", "142931.755000", "142933.755000", "142935.755000", "142937.755000", "142939.755000", "142941.755000", "142943.755000", "142945.755000", "142947.755000", "142949.755000", "142951.755000", "142953.755000", "142955.755000", "142957.755000", "142959.755000", "143001.755000", "143003.755000", "143005.755000", "143007.755000", "143009.755000", "143011.755000", "143013.755000", "143015.755000", "143017.755000", "143019.755000", "143021.755000", "143023.755000", "143025.755000", "143027.755000", "143029.755000", "143031.755000", "143033.755000", "143035.755000", "143037.755000", "143039.755000"],
      "ContentTime": ["142300.164000", "142301.658000", "142303.658000", "142305.658000", "142307.659000", "142309.659000", "142311.660000", "142313.660000", "142315.659000", "142317.659000", "142319.659000", "142321.658000", "142323.659000", "142325.659000", "142327.659000", "142329.659000", "142331.659000", "142333.659000", "142335.659000", "142337.659000", "142339.659000", "142341.659000", "142343.660000", "142345.660000", "142347.659000", "142349.660000", "142351.659000", "142353.658000", "142355.659000", "142357.658000", "142359.659000", "142401.660000", "142403.659000", "142405.659000", "142407.660000", "142409.659000", "142411.658000", "142413.659000", "142415.658000", "142417.659000", "142419.659000", "142421.659000", "142423.659000", "142425.660000", "142427.659000", "142429.658000", "142431.658000", "142433.660000", "142435.659000", "142437.660000", "142439.659000", "142441.659000", "142443.659000", "142445.660000", "142447.658000", "142449.658000", "142451.659000", "142453.660000", "142455.660000", "142457.659000", "142459.659000", "142501.660000", "142503.658000", "142505.659000", "142507.659000", "142509.659000", "142511.659000", "142513.660000", "142515.660000", "142517.659000", "142519.660000", "142521.659000", "142523.659000", "142525.659000", "142527.660000", "142529.659000", "142531.660000", "142533.659000", "142535.660000", "142537.660000", "142539.659000", "142541.659000", "142543.659000", "142545.660000", "142547.660000", "142549.660000", "142551.659000", "142553.659000", "142555.660000", "142557.658000", "142559.658000", "142601.659000", "142603.660000", "142605.659000", "142607.660000", "142609.660000", "142611.659000", "142613.659000", "142615.659000", "142617.659000", "142619.660000", "142621.660000", "142623.660000", "142625.660000", "142627.660000", "142629.660000", "142631.658000", "142633.659000", "142635.658000", "142637.660000", "142639.660000", "142641.660000", "142643.660000", "142645.659000", "142647.660000", "142649.658000", "142651.659000", "142653.660000", "142655.659000", "142657.659000", "142659.659000", "142701.659000", "142703.660000", "142705.660000", "142707.659000", "142709.659000", "142711.659000", "142713.660000", "142715.660000", "142717.659000", "142719.659000", "142721.660000", "142723.659000", "142725.658000", "142727.659000", "142729.659000", "142731.660000", "142733.660000", "142735.659000", "142737.659000", "142739.660000", "142741.658000", "142743.659000", "142745.659000", "142747.659000", "142749.659000", "142751.659000", "142753.660000", "142755.660000", "142757.660000", "142759.658000", "142801.658000", "142803.660000", "142805.659000", "142807.659000", "142809.660000", "142811.660000", "142813.659000", "142815.659000", "142817.659000", "142819.658000", "142821.659000", "142823.660000", "142825.660000", "142827.659000", "142829.659000", "142831.659000", "142833.658000", "142835.659000", "142837.659000", "142839.659000", "142841.660000", "142843.659000", "142845.659000", "142847.660000", "142849.660000", "142851.659000", "142853.658000", "142855.658000", "142857.660000", "142859.660000", "142901.659000", "142903.659000", "142905.659000", "142907.659000", "142909.659000", "142911.658000", "142913.660000", "142915.659000", "142917.660000", "142919.660000", "142921.660000", "142923.659000", "142925.660000", "142927.658000", "142929.659000", "142931.660000", "142933.659000", "142935.670000", "142937.659000", "142939.660000", "142941.660000", "142943.658000", "142945.658000", "142947.658000", "142949.659000", "142951.660000", "142953.659000", "142955.660000", "142957.659000", "142959.660000", "143001.659000", "143003.659000", "143005.659000", "143007.659000", "143009.659000", "143011.660000", "143013.659000", "143015.660000", "143017.659000", "143019.659000", "143021.659000", "143023.659000", "143025.660000", "143027.660000", "143029.659000", "143031.659000", "143033.660000", "143035.659000", "143037.658000", "143039.658000", "143041.331000"],
      "InstanceCreationTime": ["142300.164000", "142301.658000", "142303.658000", "142305.658000", "142307.659000", "142309.659000", "142311.660000", "142313.660000", "142315.659000", "142317.659000", "142319.659000", "142321.658000", "142323.659000", "142325.659000", "142327.659000", "142329.659000", "142331.659000", "142333.659000", "142335.659000", "142337.659000", "142339.659000", "142341.659000", "142343.660000", "142345.660000", "142347.659000", "142349.660000", "142351.659000", "142353.658000", "142355.659000", "142357.658000", "142359.659000", "142401.660000", "142403.659000", "142405.659000", "142407.660000", "142409.659000", "142411.658000", "142413.659000", "142415.658000", "142417.659000", "142419.659000", "142421.659000", "142423.659000", "142425.660000", "142427.659000", "142429.658000", "142431.658000", "142433.660000", "142435.659000", "142437.660000", "142439.659000", "142441.659000", "142443.659000", "142445.660000", "142447.658000", "142449.658000", "142451.659000", "142453.660000", "142455.660000", "142457.659000", "142459.659000", "142501.660000", "142503.658000", "142505.659000", "142507.659000", "142509.659000", "142511.659000", "142513.660000", "142515.660000", "142517.659000", "142519.660000", "142521.659000", "142523.659000", "142525.659000", "142527.660000", "142529.659000", "142531.660000", "142533.659000", "142535.660000", "142537.660000", "142539.659000", "142541.659000", "142543.659000", "142545.660000", "142547.660000", "142549.660000", "142551.659000", "142553.659000", "142555.660000", "142557.658000", "142559.658000", "142601.659000", "142603.660000", "142605.659000", "142607.660000", "142609.660000", "142611.659000", "142613.659000", "142615.659000", "142617.659000", "142619.660000", "142621.660000", "142623.660000", "142625.660000", "142627.660000", "142629.660000", "142631.658000", "142633.659000", "142635.658000", "142637.660000", "142639.660000", "142641.660000", "142643.660000", "142645.659000", "142647.660000", "142649.658000", "142651.659000", "142653.660000", "142655.659000", "142657.659000", "142659.659000", "142701.659000", "142703.660000", "142705.660000", "142707.659000", "142709.659000", "142711.659000", "142713.660000", "142715.660000", "142717.659000", "142719.659000", "142721.660000", "142723.659000", "142725.658000", "142727.659000", "142729.659000", "142731.660000", "142733.660000", "142735.659000", "142737.659000", "142739.660000", "142741.658000", "142743.659000", "142745.659000", "142747.659000", "142749.659000", "142751.659000", "142753.660000", "142755.660000", "142757.660000", "142759.658000", "142801.658000", "142803.660000", "142805.659000", "142807.659000", "142809.660000", "142811.660000", "142813.659000", "142815.659000", "142817.659000", "142819.658000", "142821.659000", "142823.660000", "142825.660000", "142827.659000", "142829.659000", "142831.659000", "142833.658000", "142835.659000", "142837.659000", "142839.659000", "142841.660000", "142843.659000", "142845.659000", "142847.660000", "142849.660000", "142851.659000", "142853.658000", "142855.658000", "142857.660000", "142859.660000", "142901.659000", "142903.659000", "142905.659000", "142907.659000", "142909.659000", "142911.658000", "142913.660000", "142915.659000", "142917.660000", "142919.660000", "142921.660000", "142923.659000", "142925.660000", "142927.658000", "142929.659000", "142931.660000", "142933.659000", "142935.670000", "142937.659000", "142939.660000", "142941.660000", "142943.658000", "142945.658000", "142947.658000", "142949.659000", "142951.660000", "142953.659000", "142955.660000", "142957.659000", "142959.660000", "143001.659000", "143003.659000", "143005.659000", "143007.659000", "143009.659000", "143011.660000", "143013.659000", "143015.660000", "143017.659000", "143019.659000", "143021.659000", "143023.659000", "143025.660000", "143027.660000", "143029.659000", "143031.659000", "143033.660000", "143035.659000", "143037.658000", "143039.658000", "143041.331000"],
      "InstanceNumber": [1, 2, 3, 4, 5, 6, 7, 8, 9, 10, 11, 12, 13, 14, 15, 16, 17, 18, 19, 20, 21, 22, 23, 24, 25, 26, 27, 28, 29, 30, 31, 32, 33, 34, 35, 36, 37, 38, 39, 40, 41, 42, 43, 44, 45, 46, 47, 48, 49, 50, 51, 52, 53, 54, 55, 56, 57, 58, 59, 60, 61, 62, 63, 64, 65, 66, 67, 68, 69, 70, 71, 72, 73, 74, 75, 76, 77, 78, 79, 80, 81, 82, 83, 84, 85, 86, 87, 88, 89, 90, 91, 92, 93, 94, 95, 96, 97, 98, 99, 100, 101, 102, 103, 104, 105, 106, 107, 108, 109, 110, 111, 112, 113, 114, 115, 116, 117, 118, 119, 120, 121, 122, 123, 124, 125, 126, 127, 128, 129, 130, 131, 132, 133, 134, 135, 136, 137, 138, 139, 140, 141, 142, 143, 144, 145, 146, 147, 148, 149, 150, 151, 152, 153, 154, 155, 156, 157, 158, 159, 160, 161, 162, 163, 164, 165, 166, 167, 168, 169, 170, 171, 172, 173, 174, 175, 176, 177, 178, 179, 180, 181, 182, 183, 184, 185, 186, 187, 188, 189, 190, 191, 192, 193, 194, 195, 196, 197, 198, 199, 200, 201, 202, 203, 204, 205, 206, 207, 208, 209, 210, 211, 212, 213, 214, 215, 216, 217, 218, 219, 220, 221, 222, 223, 224, 225, 226, 227, 228, 229, 230, 231, 232],
      "LargestImagePixelValue": [3366, 3238, 3176, 3210, 3219, 3163, 3182, 3193, 3142, 3196, 3136, 3396, 3237, 3267, 3164, 3183, 3237, 3280, 3161, 3157, 3176, 3188, 3165, 3153, 3223, 3164, 3219, 3379, 3164, 3171, 3283, 3189, 3184, 3174, 3213, 3285, 3241, 3204, 3187, 3277, 3185, 3168, 3222, 3179, 3203, 3145, 3217, 3311, 3147, 3298, 3210, 3142, 3238, 3125, 3213, 3228, 3285, 3319, 3150, 3148, 3165, 3161, 3218, 3177, 3178, 3165, 3180, 3374, 3212, 3243, 3236, 3456, 3176, 3160, 3321, 3338, 3254, 3212, 3159, 3145, 3149, 3396, 3139, 3128, 3331, 3261, 3146, 3138, 3275, 3340, 3298, 3100, 3172, 3356, 3154, 3173, 3240, 3102, 3106, 3435, 3133, 3411, 3454, 3141, 3164, 3236, 3194, 3165, 3157, 3162, 3199, 3169, 3105, 3245, 3140, 3216, 3170, 3167, 3157, 3207, 3128, 3188, 3165, 3381, 3238, 3150, 3173, 3186, 3137, 3133, 3077, 3113, 3323, 3141, 3225, 3282, 3189, 3154, 3125, 3121, 3260, 3317, 3088, 3142, 3082, 3189, 3118, 3421, 3362, 3342, 3142, 3168, 3517, 3369, 3085, 3208, 3626, 3398, 3134, 3349, 3283, 3164, 3157, 3203, 3156, 3465, 3355, 3141, 3108, 3273, 3139, 3222, 3266, 3138, 3194, 3134, 3176, 3119, 3242, 3101, 3402, 3160, 3200, 3336, 3195, 3157, 3158, 3570, 3252, 3192, 3274, 3223, 3165, 3301, 3344, 3164, 3221, 3174, 3189, 3139, 3139, 3323, 3160, 3283, 3166, 3149, 3216, 3218, 3168, 3259, 3136, 3213, 3188, 3146, 3271, 3177, 3212, 3238, 3502, 3225, 3159, 3160, 3136, 3122, 3132, 3319, 3131, 3185, 3291, 3381, 3383, 3162],
      "WindowCenter": [746.0, 743.0, 743.0, 744.0, 742.0, 742.0, 742.0, 741.0, 742.0, 744.0, 743.0, 745.0, 742.0, 742.0, 742.0, 741.0, 742.0, 742.0, 743.0, 742.0, 742.0, 744.0, 742.0, 742.0, 743.0, 743.0, 744.0, 743.0, 742.0, 744.0, 744.0, 743.0, 741.0, 743.0, 743.0, 743.0, 744.0, 743.0, 743.0, 745.0, 745.0, 744.0, 744.0, 744.0, 743.0, 742.0, 743.0, 743.0, 743.0, 744.0, 744.0, 742.0, 742.0, 742.0, 743.0, 743.0, 741.0, 743.0, 742.0, 743.0, 744.0, 743.0, 743.0, 742.0, 742.0, 743.0, 743.0, 744.0, 743.0, 742.0, 743.0, 745.0, 743.0, 742.0, 744.0, 743.0, 742.0, 742.0, 742.0, 742.0, 741.0, 744.0, 743.0, 743.0, 744.0, 742.0, 744.0, 743.0, 745.0, 745.0, 744.0, 743.0, 744.0, 744.0, 742.0, 742.0, 740.0, 741.0, 742.0, 745.0, 742.0, 744.0, 744.0, 742.0, 741.0, 742.0, 742.0, 742.0, 742.0, 741.0, 742.0, 741.0, 741.0, 743.0, 744.0, 744.0, 743.0, 743.0, 742.0, 743.0, 742.0, 742.0, 743.0, 744.0, 742.0, 741.0, 742.0, 743.0, 741.0, 740.0, 741.0, 741.0, 742.0, 741.0, 742.0, 741.0, 739.0, 739.0, 741.0, 741.0, 742.0, 740.0, 736.0, 737.0, 736.0, 740.0, 742.0, 744.0, 742.0, 743.0, 742.0, 743.0, 744.0, 744.0, 743.0, 745.0, 746.0, 742.0, 741.0, 743.0, 741.0, 742.0, 742.0, 744.0, 742.0, 743.0, 741.0, 740.0, 740.0, 743.0, 742.0, 743.0, 742.0, 740.0, 742.0, 741.0, 741.0, 742.0, 739.0, 740.0, 742.0, 741.0, 740.0, 742.0, 739.0, 739.0, 742.0, 745.0, 743.0, 742.0, 742.0, 742.0, 741.0, 743.0, 742.0, 740.0, 740.0, 740.0, 740.0, 741.0, 740.0, 743.0, 741.0, 741.0, 738.0, 740.0, 741.0, 741.0, 740.0, 740.0, 740.0, 740.0, 741.0, 740.0, 741.0, 741.0, 742.0, 743.0, 743.0, 741.0, 739.0, 739.0, 740.0, 741.0, 741.0, 741.0, 741.0, 741.0, 743.0, 742.0, 742.0, 740.0],
      "WindowWidth": [1619.0, 1611.0, 1611.0, 1613.0, 1607.0, 1607.0, 1608.0, 1605.0, 1607.0, 1613.0, 1610.0, 1616.0, 1607.0, 1608.0, 1608.0, 1606.0, 1608.0, 1608.0, 1610.0, 1609.0, 1607.0, 1612.0, 1607.0, 1609.0, 1610.0, 1610.0, 1613.0, 1610.0, 1608.0, 1612.0, 1612.0, 1611.0, 1606.0, 1610.0, 1611.0, 1610.0, 1613.0, 1609.0, 1611.0, 1616.0, 1615.0, 1613.0, 1612.0, 1612.0, 1611.0, 1609.0, 1611.0, 1611.0, 1609.0, 1614.0, 1613.0, 1609.0, 1608.0, 1607.0, 1610.0, 1610.0, 1605.0, 1610.0, 1608.0, 1611.0, 1613.0, 1609.0, 1611.0, 1607.0, 1607.0, 1611.0, 1609.0, 1613.0, 1609.0, 1607.0, 1611.0, 1614.0, 1611.0, 1608.0, 1613.0, 1609.0, 1606.0, 1606.0, 1608.0, 1608.0, 1604.0, 1613.0, 1611.0, 1609.0, 1612.0, 1608.0, 1612.0, 1611.0, 1615.0, 1616.0, 1614.0, 1611.0, 1613.0, 1613.0, 1607.0, 1606.0, 1601.0, 1604.0, 1608.0, 1617.0, 1608.0, 1613.0, 1613.0, 1606.0, 1605.0, 1608.0, 1609.0, 1608.0, 1606.0, 1605.0, 1606.0, 1604.0, 1605.0, 1609.0, 1612.0, 1613.0, 1609.0, 1610.0, 1608.0, 1610.0, 1607.0, 1608.0, 1610.0, 1612.0, 1607.0, 1603.0, 1607.0, 1608.0, 1605.0, 1602.0, 1605.0, 1604.0, 1607.0, 1603.0, 1605.0, 1604.0, 1598.0, 1599.0, 1604.0, 1605.0, 1606.0, 1601.0, 1591.0, 1592.0, 1592.0, 1602.0, 1606.0, 1613.0, 1608.0, 1611.0, 1608.0, 1611.0, 1613.0, 1612.0, 1611.0, 1614.0, 1617.0, 1607.0, 1605.0, 1610.0, 1605.0, 1607.0, 1607.0, 1612.0, 1606.0, 1610.0, 1605.0, 1603.0, 1601.0, 1610.0, 1607.0, 1609.0, 1608.0, 1603.0, 1607.0, 1604.0, 1604.0, 1606.0, 1600.0, 1602.0, 1606.0, 1603.0, 1602.0, 1607.0, 1598.0, 1600.0, 1606.0, 1616.0, 1609.0, 1606.0, 1607.0, 1606.0, 1606.0, 1610.0, 1608.0, 1602.0, 1602.0, 1602.0, 1601.0, 1603.0, 1603.0, 1610.0, 1605.0, 1603.0, 1597.0, 1602.0, 1603.0, 1605.0, 1602.0, 1602.0, 1602.0, 1601.0, 1604.0, 1602.0, 1605.0, 1605.0, 1606.0, 1609.0, 1610.0, 1602.0, 1597.0, 1600.0, 1600.0, 1603.0, 1603.0, 1605.0, 1603.0, 1603.0, 1609.0, 1606.0, 1606.0, 1601.0]
    },
    "slices": {}
  }
}