{
  "AcquisitionMatrixPE": 100,
  "AcquisitionNumber": 1,
  "AcquisitionTime": "14:04:36.142500",
  "BandwidthPerPixelPhaseEncode": 18.519,
  "BaseResolution": 100,
  "BodyPartExamined": "BRAIN",
  "ConsistencyInfo": "N4_VE11C_LATEST_20160120",
  "ConversionSoftware": "dcm2niix",
  "ConversionSoftwareVersion": "v1.0.20180622 GCC4.9.2",
  "DerivedVendorReportedEchoSpacing": 0.000539986,
  "DeviceSerialNumber": "166078",
  "DwellTime": 2.1e-06,
  "EchoTime": 0.034,
  "EchoTrainLength": 100,
  "EffectiveEchoSpacing": 0.000539986,
  "FlipAngle": 90,
  "ImageOrientationPatientDICOM": [0.999386, 0.0350392, -0.000137643, -0.0348994, 0.995734, 0.0854168],
  "ImageType": [
    "ORIGINAL",
    "PRIMARY",
    "M",
    "ND",
    "MOSAIC"
],
  "InPlanePhaseEncodingDirectionDICOM": "COL",
  "InstitutionAddress": "Street_StreetNo_Bei_Jing_District_CN_ZIP",
  "InstitutionName": "BeiJing_Normal_University",
  "InstitutionalDepartmentName": "Department",
  "MRAcquisitionType": "2D",
  "MagneticFieldStrength": 3,
  "Manufacturer": "Siemens",
  "ManufacturersModelName": "Prisma",
  "Modality": "MR",
  "MultibandAccelerationFactor": 3,
  "PartialFourier": 1,
  "PatientPosition": "HFS",
  "PercentPhaseFOV": 100,
  "PhaseEncodingDirection": "j-",
  "PhaseEncodingSteps": 100,
  "PhaseResolution": 1,
  "PixelBandwidth": 2380,
  "ProcedureStepDescription": "BNU_P2018_64CH_Liu.Jia",
  "ProtocolName": "bold_100x100_s3_2x2x2_232",
  "PulseSequenceDetails": "%SiemensSeq%_ep2d_bold",
  "ReceiveCoilActiveElements": "HC1-7;NC1",
  "ReceiveCoilName": "HeadNeck_64",
  "ReconMatrixPE": 100,
  "RepetitionTime": 2,
  "SAR": 0.0635105,
  "ScanOptions": "FS",
  "ScanningSequence": "EP",
  "SequenceName": "_epfid2d1_100",
  "SequenceVariant": "SK",
  "SeriesDescription": "bold_100x100_s3_2x2x2_232",
  "SeriesNumber": 3,
  "ShimSetting": [-5472, -11473, -1296, 453, -75, -219, -105, 79],
  "SliceThickness": 2,
  "SliceTiming": [1.485, 0, 0.99, 0.0825, 1.0725, 0.165, 1.155, 0.2475, 1.2375, 0.33, 1.32, 0.4125, 1.4025, 0.5775, 1.5675, 0.66, 1.65, 0.7425, 1.7325, 0.825, 1.815, 0.9075, 1.8975, 0.495, 1.485, 0, 0.99, 0.0825, 1.0725, 0.165, 1.155, 0.2475, 1.2375, 0.33, 1.32, 0.4125, 1.4025, 0.5775, 1.5675, 0.66, 1.65, 0.7425, 1.7325, 0.825, 1.815, 0.9075, 1.8975, 0.495, 1.485, 0, 0.99, 0.0825, 1.0725, 0.165, 1.155, 0.2475, 1.2375, 0.33, 1.32, 0.4125, 1.4025, 0.5775, 1.5675, 0.66, 1.65, 0.7425, 1.7325, 0.825, 1.815, 0.9075, 1.8975, 0.495],
  "SoftwareVersions": "syngo_MR_E11",
  "SpacingBetweenSlices": 2,
  "StationName": "AWP166078",
  "TaskName": "motor",
  "TotalReadoutTime": 0.0534586,
  "TxRefAmp": 209.933,
  "dcmmeta_affine": [
    [-1.9987719058990479, -0.0697987899184227, -0.006259985268115997, 103.73918914794922],
    [-0.07007840275764465, 1.991467833518982, 0.17071910202503204, -96.47779846191406],
    [-0.00027528603095561266, -0.17083361744880676, 1.9926905632019043, -61.73902893066406],
    [0.0, 0.0, 0.0, 1.0]
],
  "dcmmeta_reorient_transform": [
    [0.0, -1.0, 0.0, 99.0],
    [1.0, 0.0, 0.0, 0.0],
    [0.0, 0.0, 1.0, 0.0],
    [0.0, 0.0, 0.0, 1.0]
],
  "dcmmeta_shape": [100, 100, 72, 232],
  "dcmmeta_slice_dim": 2,
  "dcmmeta_version": 0.6,
  "global": {
    "const": {
      "AcquisitionMatrix": [100, 0, 0, 100],
      "AngioFlag": "N",
      "BitsAllocated": 16,
      "BitsStored": 12,
      "BodyPartExamined": "BRAIN",
      "Columns": 900,
      "EchoNumbers": 1,
      "EchoTime": 34.0,
      "EchoTrainLength": 100,
      "FlipAngle": 90.0,
      "HighBit": 11,
      "ImageOrientationPatient": [0.99938592911293, 0.03503920298006, -0.0001376430171, -0.0348993959253, 0.99573390039182, 0.08541681201352],
      "ImagePositionPatient": [-868.41833911793, -925.29599583354, -146.87489406454],
      "ImageType": [
        "ORIGINAL",
        "PRIMARY",
        "M",
        "ND",
        "MOSAIC"
],
      "ImagedNucleus": "1H",
      "ImagingFrequency": 123.257858,
      "InPlanePhaseEncodingDirection": "COL",
      "MRAcquisitionType": "2D",
      "MagneticFieldStrength": 3.0,
      "Manufacturer": "SIEMENS",
      "ManufacturerModelName": "Prisma",
      "Modality": "MR",
      "NumberOfAverages": 1.0,
      "NumberOfPhaseEncodingSteps": 100,
      "PercentPhaseFieldOfView": 100.0,
      "PercentSampling": 100.0,
      "PerformedProcedureStepStartTime": "140101.484000",
      "PhotometricInterpretation": "MONOCHROME2",
      "PixelBandwidth": 2380.0,
      "PixelRepresentation": 0,
      "PixelSpacing": [2.0, 2.0],
      "ProtocolName": "bold_100x100_s3_2x2x2_232",
      "RepetitionTime": 2000.0,
      "Rows": 900,
      "SAR": 0.06351053867547,
      "SamplesPerPixel": 1,
      "ScanOptions": "FS",
      "ScanningSequence": "EP",
      "SequenceName": "*epfid2d1_100",
      "SequenceVariant": "SK",
      "SeriesDescription": "bold_100x100_s3_2x2x2_232",
      "SeriesNumber": 3,
      "SeriesTime": "140438.644000",
      "SliceLocation": -70.073397286917,
      "SliceThickness": 2.0,
      "SmallestImagePixelValue": 0,
      "SoftwareVersions": "syngo MR E11",
      "SpacingBetweenSlices": 1.9999999109636,
      "SpecificCharacterSet": "ISO_IR 100",
      "StudyID": "1",
      "StudyTime": "140101.393000",
      "TransmitCoilName": "Body",
      "VariableFlipAngleFlag": "N",
      "WindowCenterWidthExplanation": "Algo1",
      "dBdt": 0.0},
    "slices": {}
  },
  "time": {
    "samples": {
      "AcquisitionNumber": [1, 2, 3, 4, 5, 6, 7, 8, 9, 10, 11, 12, 13, 14, 15, 16, 17, 18, 19, 20, 21, 22, 23, 24, 25, 26, 27, 28, 29, 30, 31, 32, 33, 34, 35, 36, 37, 38, 39, 40, 41, 42, 43, 44, 45, 46, 47, 48, 49, 50, 51, 52, 53, 54, 55, 56, 57, 58, 59, 60, 61, 62, 63, 64, 65, 66, 67, 68, 69, 70, 71, 72, 73, 74, 75, 76, 77, 78, 79, 80, 81, 82, 83, 84, 85, 86, 87, 88, 89, 90, 91, 92, 93, 94, 95, 96, 97, 98, 99, 100, 101, 102, 103, 104, 105, 106, 107, 108, 109, 110, 111, 112, 113, 114, 115, 116, 117, 118, 119, 120, 121, 122, 123, 124, 125, 126, 127, 128, 129, 130, 131, 132, 133, 134, 135, 136, 137, 138, 139, 140, 141, 142, 143, 144, 145, 146, 147, 148, 149, 150, 151, 152, 153, 154, 155, 156, 157, 158, 159, 160, 161, 162, 163, 164, 165, 166, 167, 168, 169, 170, 171, 172, 173, 174, 175, 176, 177, 178, 179, 180, 181, 182, 183, 184, 185, 186, 187, 188, 189, 190, 191, 192, 193, 194, 195, 196, 197, 198, 199, 200, 201, 202, 203, 204, 205, 206, 207, 208, 209, 210, 211, 212, 213, 214, 215, 216, 217, 218, 219, 220, 221, 222, 223, 224, 225, 226, 227, 228, 229, 230, 231, 232],
      "AcquisitionTime": ["140436.142500", "140438.142500", "140440.142500", "140442.142500", "140444.142500", "140446.142500", "140448.142500", "140450.142500", "140452.142500", "140454.142500", "140456.142500", "140458.142500", "140500.142500", "140502.142500", "140504.142500", "140506.142500", "140508.142500", "140510.142500", "140512.142500", "140514.142500", "140516.142500", "140518.142500", "140520.142500", "140522.142500", "140524.142500", "140526.142500", "140528.142500", "140530.142500", "140532.142500", "140534.142500", "140536.142500", "140538.142500", "140540.142500", "140542.142500", "140544.142500", "140546.142500", "140548.142500", "140550.142500", "140552.142500", "140554.142500", "140556.142500", "140558.142500", "140600.142500", "140602.142500", "140604.142500", "140606.142500", "140608.142500", "140610.142500", "140612.142500", "140614.142500", "140616.142500", "140618.142500", "140620.142500", "140622.142500", "140624.142500", "140626.142500", "140628.142500", "140630.142500", "140632.142500", "140634.142500", "140636.142500", "140638.142500", "140640.142500", "140642.142500", "140644.142500", "140646.142500", "140648.142500", "140650.142500", "140652.142500", "140654.142500", "140656.142500", "140658.142500", "140700.142500", "140702.142500", "140704.142500", "140706.142500", "140708.142500", "140710.142500", "140712.142500", "140714.142500", "140716.142500", "140718.142500", "140720.142500", "140722.142500", "140724.142500", "140726.142500", "140728.142500", "140730.142500", "140732.142500", "140734.142500", "140736.142500", "140738.142500", "140740.142500", "140742.142500", "140744.142500", "140746.142500", "140748.142500", "140750.142500", "140752.142500", "140754.142500", "140756.142500", "140758.142500", "140800.142500", "140802.142500", "140804.142500", "140806.142500", "140808.142500", "140810.142500", "140812.142500", "140814.142500", "140816.142500", "140818.142500", "140820.142500", "140822.142500", "140824.142500", "140826.142500", "140828.142500", "140830.142500", "140832.142500", "140834.142500", "140836.142500", "140838.142500", "140840.142500", "140842.142500", "140844.142500", "140846.142500", "140848.142500", "140850.142500", "140852.142500", "140854.142500", "140856.142500", "140858.142500", "140900.142500", "140902.142500", "140904.142500", "140906.142500", "140908.142500", "140910.142500", "140912.142500", "140914.142500", "140916.142500", "140918.142500", "140920.142500", "140922.142500", "140924.142500", "140926.142500", "140928.142500", "140930.142500", "140932.142500", "140934.142500", "140936.142500", "140938.142500", "140940.142500", "140942.142500", "140944.142500", "140946.142500", "140948.142500", "140950.142500", "140952.142500", "140954.142500", "140956.142500", "140958.142500", "141000.142500", "141002.142500", "141004.142500", "141006.142500", "141008.142500", "141010.142500", "141012.142500", "141014.142500", "141016.142500", "141018.142500", "141020.142500", "141022.142500", "141024.142500", "141026.142500", "141028.142500", "141030.142500", "141032.142500", "141034.142500", "141036.142500", "141038.142500", "141040.142500", "141042.142500", "141044.142500", "141046.142500", "141048.142500", "141050.142500", "141052.142500", "141054.142500", "141056.142500", "141058.142500", "141100.142500", "141102.142500", "141104.142500", "141106.142500", "141108.142500", "141110.142500", "141112.142500", "141114.142500", "141116.142500", "141118.142500", "141120.142500", "141122.142500", "141124.142500", "141126.142500", "141128.142500", "141130.142500", "141132.142500", "141134.142500", "141136.142500", "141138.142500", "141140.142500", "141142.142500", "141144.142500", "141146.142500", "141148.142500", "141150.142500", "141152.142500", "141154.142500", "141156.142500", "141158.142500", "141200.142500", "141202.142500", "141204.142500", "141206.142500", "141208.142500", "141210.142500", "141212.142500", "141214.142500", "141216.142500", "141218.142500"],
      "ContentTime": ["140438.648000", "140440.143000", "140442.143000", "140444.143000", "140446.144000", "140448.143000", "140450.144000", "140452.143000", "140454.143000", "140456.143000", "140458.144000", "140500.143000", "140502.145000", "140504.143000", "140506.144000", "140508.143000", "140510.143000", "140512.143000", "140514.143000", "140516.143000", "140518.143000", "140520.145000", "140522.143000", "140524.143000", "140526.144000", "140528.143000", "140530.143000", "140532.144000", "140534.143000", "140536.144000", "140538.143000", "140540.144000", "140542.143000", "140544.143000", "140546.143000", "140548.143000", "140550.143000", "140552.143000", "140554.143000", "140556.144000", "140558.143000", "140600.143000", "140602.143000", "140604.143000", "140606.143000", "140608.143000", "140610.143000", "140612.144000", "140614.144000", "140616.143000", "140618.143000", "140620.143000", "140622.143000", "140624.143000", "140626.143000", "140628.143000", "140630.145000", "140632.143000", "140634.143000", "140636.143000", "140638.143000", "140640.143000", "140642.143000", "140644.143000", "140646.143000", "140648.143000", "140650.143000", "140652.144000", "140654.143000", "140656.144000", "140658.144000", "140700.144000", "140702.143000", "140704.144000", "140706.143000", "140708.144000", "140710.143000", "140712.144000", "140714.143000", "140716.143000", "140718.144000", "140720.144000", "140722.144000", "140724.143000", "140726.143000", "140728.143000", "140730.143000", "140732.143000", "140734.144000", "140736.143000", "140738.144000", "140740.144000", "140742.143000", "140744.143000", "140746.144000", "140748.144000", "140750.144000", "140752.144000", "140754.143000", "140756.144000", "140758.143000", "140800.143000", "140802.144000", "140804.143000", "140806.144000", "140808.143000", "140810.144000", "140812.144000", "140814.143000", "140816.143000", "140818.144000", "140820.143000", "140822.143000", "140824.144000", "140826.143000", "140828.144000", "140830.143000", "140832.144000", "140834.144000", "140836.143000", "140838.143000", "140840.143000", "140842.143000", "140844.145000", "140846.143000", "140848.143000", "140850.145000", "140852.143000", "140854.143000", "140856.143000", "140858.143000", "140900.144000", "140902.152000", "140904.144000", "140906.143000", "140908.143000", "140910.143000", "140912.143000", "140914.163000", "140916.144000", "140918.143000", "140920.143000", "140922.143000", "140924.144000", "140926.144000", "140928.143000", "140930.143000", "140932.143000", "140934.143000", "140936.143000", "140938.143000", "140940.144000", "140942.144000", "140944.143000", "140946.143000", "140948.143000", "140950.143000", "140952.143000", "140954.143000", "140956.144000", "140958.143000", "141000.144000", "141002.143000", "141004.144000", "141006.144000", "141008.143000", "141010.143000", "141012.143000", "141014.144000", "141016.143000", "141018.143000", "141020.143000", "141022.143000", "141024.143000", "141026.143000", "141028.144000", "141030.143000", "141032.143000", "141034.143000", "141036.143000", "141038.144000", "141040.143000", "141042.143000", "141044.143000", "141046.143000", "141048.144000", "141050.143000", "141052.144000", "141054.143000", "141056.143000", "141058.143000", "141100.143000", "141102.143000", "141104.143000", "141106.144000", "141108.143000", "141110.144000", "141112.143000", "141114.144000", "141116.144000", "141118.143000", "141120.143000", "141122.144000", "141124.143000", "141126.144000", "141128.143000", "141130.143000", "141132.143000", "141134.144000", "141136.143000", "141138.143000", "141140.144000", "141142.144000", "141144.144000", "141146.144000", "141148.143000", "141150.144000", "141152.143000", "141154.143000", "141156.144000", "141158.144000", "141200.144000", "141202.145000", "141204.143000", "141206.144000", "141208.143000", "141210.143000", "141212.143000", "141214.143000", "141216.144000", "141218.143000", "141219.737000"],
      "InstanceCreationTime": ["140438.648000", "140440.143000", "140442.143000", "140444.143000", "140446.144000", "140448.143000", "140450.144000", "140452.143000", "140454.143000", "140456.143000", "140458.144000", "140500.143000", "140502.145000", "140504.143000", "140506.144000", "140508.143000", "140510.143000", "140512.143000", "140514.143000", "140516.143000", "140518.143000", "140520.145000", "140522.143000", "140524.143000", "140526.144000", "140528.143000", "140530.143000", "140532.144000", "140534.143000", "140536.144000", "140538.143000", "140540.144000", "140542.143000", "140544.143000", "140546.143000", "140548.143000", "140550.143000", "140552.143000", "140554.143000", "140556.144000", "140558.143000", "140600.143000", "140602.143000", "140604.143000", "140606.143000", "140608.143000", "140610.143000", "140612.144000", "140614.144000", "140616.143000", "140618.143000", "140620.143000", "140622.143000", "140624.143000", "140626.143000", "140628.143000", "140630.145000", "140632.143000", "140634.143000", "140636.143000", "140638.143000", "140640.143000", "140642.143000", "140644.143000", "140646.143000", "140648.143000", "140650.143000", "140652.144000", "140654.143000", "140656.144000", "140658.144000", "140700.144000", "140702.143000", "140704.144000", "140706.143000", "140708.144000", "140710.143000", "140712.144000", "140714.143000", "140716.143000", "140718.144000", "140720.144000", "140722.144000", "140724.143000", "140726.143000", "140728.143000", "140730.143000", "140732.143000", "140734.144000", "140736.143000", "140738.144000", "140740.144000", "140742.143000", "140744.143000", "140746.144000", "140748.144000", "140750.144000", "140752.144000", "140754.143000", "140756.144000", "140758.143000", "140800.143000", "140802.144000", "140804.143000", "140806.144000", "140808.143000", "140810.144000", "140812.144000", "140814.143000", "140816.143000", "140818.144000", "140820.143000", "140822.143000", "140824.144000", "140826.143000", "140828.144000", "140830.143000", "140832.144000", "140834.144000", "140836.143000", "140838.143000", "140840.143000", "140842.143000", "140844.145000", "140846.143000", "140848.143000", "140850.145000", "140852.143000", "140854.143000", "140856.143000", "140858.143000", "140900.144000", "140902.152000", "140904.144000", "140906.143000", "140908.143000", "140910.143000", "140912.143000", "140914.163000", "140916.144000", "140918.143000", "140920.143000", "140922.143000", "140924.144000", "140926.144000", "140928.143000", "140930.143000", "140932.143000", "140934.143000", "140936.143000", "140938.143000", "140940.144000", "140942.144000", "140944.143000", "140946.143000", "140948.143000", "140950.143000", "140952.143000", "140954.143000", "140956.144000", "140958.143000", "141000.144000", "141002.143000", "141004.144000", "141006.144000", "141008.143000", "141010.143000", "141012.143000", "141014.144000", "141016.143000", "141018.143000", "141020.143000", "141022.143000", "141024.143000", "141026.143000", "141028.144000", "141030.143000", "141032.143000", "141034.143000", "141036.143000", "141038.144000", "141040.143000", "141042.143000", "141044.143000", "141046.143000", "141048.144000", "141050.143000", "141052.144000", "141054.143000", "141056.143000", "141058.143000", "141100.143000", "141102.143000", "141104.143000", "141106.144000", "141108.143000", "141110.144000", "141112.143000", "141114.144000", "141116.144000", "141118.143000", "141120.143000", "141122.144000", "141124.143000", "141126.144000", "141128.143000", "141130.143000", "141132.143000", "141134.144000", "141136.143000", "141138.143000", "141140.144000", "141142.144000", "141144.144000", "141146.144000", "141148.143000", "141150.144000", "141152.143000", "141154.143000", "141156.144000", "141158.144000", "141200.144000", "141202.145000", "141204.143000", "141206.144000", "141208.143000", "141210.143000", "141212.143000", "141214.143000", "141216.144000", "141218.143000", "141219.737000"],
      "InstanceNumber": [1, 2, 3, 4, 5, 6, 7, 8, 9, 10, 11, 12, 13, 14, 15, 16, 17, 18, 19, 20, 21, 22, 23, 24, 25, 26, 27, 28, 29, 30, 31, 32, 33, 34, 35, 36, 37, 38, 39, 40, 41, 42, 43, 44, 45, 46, 47, 48, 49, 50, 51, 52, 53, 54, 55, 56, 57, 58, 59, 60, 61, 62, 63, 64, 65, 66, 67, 68, 69, 70, 71, 72, 73, 74, 75, 76, 77, 78, 79, 80, 81, 82, 83, 84, 85, 86, 87, 88, 89, 90, 91, 92, 93, 94, 95, 96, 97, 98, 99, 100, 101, 102, 103, 104, 105, 106, 107, 108, 109, 110, 111, 112, 113, 114, 115, 116, 117, 118, 119, 120, 121, 122, 123, 124, 125, 126, 127, 128, 129, 130, 131, 132, 133, 134, 135, 136, 137, 138, 139, 140, 141, 142, 143, 144, 145, 146, 147, 148, 149, 150, 151, 152, 153, 154, 155, 156, 157, 158, 159, 160, 161, 162, 163, 164, 165, 166, 167, 168, 169, 170, 171, 172, 173, 174, 175, 176, 177, 178, 179, 180, 181, 182, 183, 184, 185, 186, 187, 188, 189, 190, 191, 192, 193, 194, 195, 196, 197, 198, 199, 200, 201, 202, 203, 204, 205, 206, 207, 208, 209, 210, 211, 212, 213, 214, 215, 216, 217, 218, 219, 220, 221, 222, 223, 224, 225, 226, 227, 228, 229, 230, 231, 232],
      "LargestImagePixelValue": [3204, 3215, 3306, 3173, 3051, 3143, 3078, 3373, 3089, 3163, 3133, 3171, 3550, 3226, 3398, 3230, 3471, 3141, 3322, 3316, 3184, 3111, 3313, 3181, 3355, 3152, 3202, 3222, 3313, 3291, 3224, 3272, 3250, 3211, 3265, 3479, 3247, 3381, 3230, 3264, 3243, 3271, 3286, 3311, 3267, 3293, 3257, 3265, 3241, 3290, 3288, 3270, 3243, 3293, 3256, 3245, 3262, 3228, 3212, 3284, 3283, 3250, 3254, 3254, 3262, 3274, 3253, 3233, 3277, 3228, 3226, 3246, 3226, 3213, 3242, 3270, 3227, 3253, 3264, 3255, 3211, 3321, 3041, 3311, 3329, 3380, 3039, 3336, 3070, 3612, 3247, 3312, 3222, 3210, 3228, 3256, 3266, 3248, 3295, 3257, 3266, 3236, 3275, 3298, 3284, 3305, 3286, 3255, 3236, 3243, 3363, 3216, 3300, 3216, 3273, 3191, 3335, 3216, 3247, 3247, 3261, 3211, 3365, 3213, 3245, 3373, 3219, 3259, 3244, 3252, 3283, 3289, 3217, 3213, 3229, 3252, 3397, 3220, 3213, 3241, 3270, 3185, 3263, 3222, 3252, 3170, 3054, 3348, 3256, 3208, 3244, 3238, 3207, 3436, 3418, 3420, 3209, 3209, 3230, 3225, 3264, 3199, 3179, 3219, 3261, 3239, 3234, 3253, 3220, 3230, 3242, 3199, 3240, 3258, 3223, 3236, 3252, 3182, 3204, 3145, 3206, 3185, 3182, 3206, 3218, 3117, 3116, 3107, 3163, 3153, 3163, 3164, 3147, 3228, 3215, 3158, 3173, 3156, 3104, 3116, 3333, 3230, 3249, 3166, 3207, 3179, 3213, 3188, 3168, 3179, 3132, 3276, 3303, 3209, 3120, 3191, 3275, 2984, 3083, 3162, 3251, 3211, 3224, 3263, 3264, 3228, 3217, 3237, 3209, 3242, 3207, 3220],
      "WindowCenter": [741.0, 741.0, 742.0, 741.0, 741.0, 742.0, 742.0, 743.0, 740.0, 742.0, 743.0, 744.0, 744.0, 742.0, 743.0, 742.0, 740.0, 741.0, 739.0, 744.0, 737.0, 740.0, 741.0, 738.0, 743.0, 741.0, 743.0, 744.0, 745.0, 743.0, 742.0, 742.0, 743.0, 743.0, 744.0, 746.0, 744.0, 746.0, 742.0, 742.0, 743.0, 745.0, 745.0, 744.0, 742.0, 743.0, 743.0, 743.0, 741.0, 743.0, 747.0, 746.0, 744.0, 743.0, 742.0, 742.0, 741.0, 739.0, 744.0, 743.0, 742.0, 741.0, 741.0, 741.0, 743.0, 743.0, 743.0, 742.0, 743.0, 743.0, 743.0, 742.0, 742.0, 741.0, 743.0, 741.0, 741.0, 741.0, 742.0, 744.0, 744.0, 739.0, 735.0, 730.0, 740.0, 735.0, 737.0, 735.0, 732.0, 749.0, 744.0, 742.0, 742.0, 742.0, 742.0, 740.0, 742.0, 743.0, 744.0, 743.0, 742.0, 740.0, 743.0, 744.0, 744.0, 743.0, 744.0, 744.0, 744.0, 743.0, 744.0, 742.0, 743.0, 743.0, 745.0, 743.0, 743.0, 742.0, 743.0, 744.0, 744.0, 744.0, 744.0, 743.0, 743.0, 743.0, 743.0, 742.0, 743.0, 741.0, 743.0, 744.0, 743.0, 742.0, 742.0, 743.0, 744.0, 743.0, 743.0, 743.0, 742.0, 742.0, 743.0, 741.0, 741.0, 733.0, 738.0, 745.0, 742.0, 741.0, 739.0, 742.0, 742.0, 748.0, 746.0, 746.0, 744.0, 743.0, 743.0, 744.0, 746.0, 746.0, 745.0, 742.0, 742.0, 744.0, 744.0, 743.0, 740.0, 742.0, 744.0, 743.0, 741.0, 740.0, 740.0, 742.0, 744.0, 743.0, 744.0, 743.0, 740.0, 740.0, 739.0, 739.0, 737.0, 738.0, 739.0, 738.0, 739.0, 739.0, 738.0, 739.0, 738.0, 741.0, 741.0, 740.0, 740.0, 740.0, 738.0, 741.0, 744.0, 743.0, 742.0, 741.0, 740.0, 741.0, 741.0, 741.0, 741.0, 741.0, 737.0, 741.0, 736.0, 741.0, 734.0, 739.0, 738.0, 741.0, 743.0, 744.0, 742.0, 739.0, 741.0, 741.0, 742.0, 742.0, 743.0, 743.0, 742.0, 742.0, 742.0, 741.0],
      "WindowWidth": [1607.0, 1605.0, 1607.0, 1607.0, 1605.0, 1609.0, 1608.0, 1610.0, 1604.0, 1609.0, 1613.0, 1613.0, 1613.0, 1608.0, 1612.0, 1607.0, 1603.0, 1605.0, 1602.0, 1615.0, 1595.0, 1602.0, 1607.0, 1599.0, 1611.0, 1605.0, 1612.0, 1615.0, 1616.0, 1610.0, 1609.0, 1609.0, 1610.0, 1611.0, 1615.0, 1619.0, 1615.0, 1619.0, 1609.0, 1609.0, 1611.0, 1618.0, 1617.0, 1613.0, 1610.0, 1612.0, 1611.0, 1612.0, 1606.0, 1613.0, 1622.0, 1620.0, 1615.0, 1612.0, 1609.0, 1608.0, 1606.0, 1599.0, 1614.0, 1612.0, 1607.0, 1606.0, 1606.0, 1606.0, 1612.0, 1612.0, 1611.0, 1610.0, 1611.0, 1611.0, 1612.0, 1608.0, 1608.0, 1606.0, 1610.0, 1606.0, 1606.0, 1606.0, 1609.0, 1614.0, 1613.0, 1600.0, 1590.0, 1578.0, 1604.0, 1591.0, 1598.0, 1592.0, 1582.0, 1628.0, 1615.0, 1609.0, 1608.0, 1609.0, 1609.0, 1604.0, 1609.0, 1612.0, 1613.0, 1612.0, 1607.0, 1604.0, 1611.0, 1614.0, 1614.0, 1613.0, 1614.0, 1613.0, 1613.0, 1612.0, 1613.0, 1608.0, 1610.0, 1610.0, 1616.0, 1610.0, 1611.0, 1609.0, 1610.0, 1613.0, 1614.0, 1613.0, 1615.0, 1611.0, 1610.0, 1611.0, 1611.0, 1609.0, 1611.0, 1606.0, 1611.0, 1614.0, 1610.0, 1607.0, 1608.0, 1611.0, 1613.0, 1610.0, 1611.0, 1610.0, 1608.0, 1607.0, 1610.0, 1606.0, 1605.0, 1585.0, 1597.0, 1618.0, 1610.0, 1605.0, 1601.0, 1608.0, 1608.0, 1624.0, 1619.0, 1618.0, 1612.0, 1612.0, 1610.0, 1613.0, 1619.0, 1618.0, 1616.0, 1609.0, 1609.0, 1612.0, 1614.0, 1610.0, 1604.0, 1609.0, 1613.0, 1610.0, 1604.0, 1602.0, 1603.0, 1606.0, 1613.0, 1610.0, 1612.0, 1610.0, 1602.0, 1602.0, 1599.0, 1600.0, 1594.0, 1597.0, 1599.0, 1597.0, 1599.0, 1599.0, 1596.0, 1599.0, 1598.0, 1606.0, 1605.0, 1603.0, 1603.0, 1602.0, 1598.0, 1604.0, 1614.0, 1611.0, 1607.0, 1604.0, 1602.0, 1604.0, 1605.0, 1603.0, 1605.0, 1604.0, 1594.0, 1604.0, 1591.0, 1605.0, 1587.0, 1600.0, 1596.0, 1606.0, 1610.0, 1613.0, 1606.0, 1600.0, 1606.0, 1605.0, 1607.0, 1608.0, 1609.0, 1611.0, 1607.0, 1608.0, 1606.0, 1605.0]
    },
    "slices": {}
  }
}