{
  "AcquisitionMatrixPE": 100,
  "AcquisitionNumber": 1,
  "AcquisitionTime": "14:34:33.355000",
  "BandwidthPerPixelPhaseEncode": 18.519,
  "BaseResolution": 100,
  "BodyPartExamined": "BRAIN",
  "ConsistencyInfo": "N4_VE11C_LATEST_20160120",
  "ConversionSoftware": "dcm2niix",
  "ConversionSoftwareVersion": "v1.0.20180622 GCC4.9.2",
  "DerivedVendorReportedEchoSpacing": 0.000539986,
  "DeviceSerialNumber": "166078",
  "DwellTime": 2.1e-06,
  "EchoTime": 0.034,
  "EchoTrainLength": 100,
  "EffectiveEchoSpacing": 0.000539986,
  "FlipAngle": 90,
  "ImageOrientationPatientDICOM": [0.999386, 0.0350392, -0.000137643, -0.0348994, 0.995734, 0.0854168],
  "ImageType": [
    "ORIGINAL",
    "PRIMARY",
    "M",
    "ND",
    "MOSAIC"
],
  "InPlanePhaseEncodingDirectionDICOM": "COL",
  "InstitutionAddress": "Street_StreetNo_Bei_Jing_District_CN_ZIP",
  "InstitutionName": "BeiJing_Normal_University",
  "InstitutionalDepartmentName": "Department",
  "MRAcquisitionType": "2D",
  "MagneticFieldStrength": 3,
  "Manufacturer": "Siemens",
  "ManufacturersModelName": "Prisma",
  "Modality": "MR",
  "MultibandAccelerationFactor": 3,
  "PartialFourier": 1,
  "PatientPosition": "HFS",
  "PercentPhaseFOV": 100,
  "PhaseEncodingDirection": "j-",
  "PhaseEncodingSteps": 100,
  "PhaseResolution": 1,
  "PixelBandwidth": 2380,
  "ProcedureStepDescription": "BNU_P2018_64CH_Liu.Jia",
  "ProtocolName": "bold_100x100_s3_2x2x2_232",
  "PulseSequenceDetails": "%SiemensSeq%_ep2d_bold",
  "ReceiveCoilActiveElements": "HC1-7;NC1",
  "ReceiveCoilName": "HeadNeck_64",
  "ReconMatrixPE": 100,
  "RepetitionTime": 2,
  "SAR": 0.0635105,
  "ScanOptions": "FS",
  "ScanningSequence": "EP",
  "SequenceName": "_epfid2d1_100",
  "SequenceVariant": "SK",
  "SeriesDescription": "bold_100x100_s3_2x2x2_232",
  "SeriesNumber": 8,
  "ShimSetting": [-5472, -11473, -1296, 453, -75, -219, -105, 79],
  "SliceThickness": 2,
  "SliceTiming": [1.485, 0, 0.99, 0.0825, 1.0725, 0.165, 1.155, 0.2475, 1.2375, 0.33, 1.32, 0.4125, 1.4025, 0.5775, 1.5675, 0.66, 1.65, 0.7425, 1.7325, 0.825, 1.815, 0.9075, 1.8975, 0.495, 1.485, 0, 0.99, 0.0825, 1.0725, 0.165, 1.155, 0.2475, 1.2375, 0.33, 1.32, 0.4125, 1.4025, 0.5775, 1.5675, 0.66, 1.65, 0.7425, 1.7325, 0.825, 1.815, 0.9075, 1.8975, 0.495, 1.485, 0, 0.99, 0.0825, 1.0725, 0.165, 1.155, 0.2475, 1.2375, 0.33, 1.32, 0.4125, 1.4025, 0.5775, 1.5675, 0.66, 1.65, 0.7425, 1.7325, 0.825, 1.815, 0.9075, 1.8975, 0.495],
  "SoftwareVersions": "syngo_MR_E11",
  "SpacingBetweenSlices": 2,
  "StationName": "AWP166078",
  "TaskName": "motor",
  "TotalReadoutTime": 0.0534586,
  "TxRefAmp": 209.933,
  "dcmmeta_affine": [
    [-1.9987719058990479, -0.0697987899184227, -0.006259985268115997, 103.73918914794922],
    [-0.07007840275764465, 1.991467833518982, 0.17071910202503204, -96.47779846191406],
    [-0.00027528603095561266, -0.17083361744880676, 1.9926905632019043, -61.73902893066406],
    [0.0, 0.0, 0.0, 1.0]
],
  "dcmmeta_reorient_transform": [
    [0.0, -1.0, 0.0, 99.0],
    [1.0, 0.0, 0.0, 0.0],
    [0.0, 0.0, 1.0, 0.0],
    [0.0, 0.0, 0.0, 1.0]
],
  "dcmmeta_shape": [100, 100, 72, 232],
  "dcmmeta_slice_dim": 2,
  "dcmmeta_version": 0.6,
  "global": {
    "const": {
      "AcquisitionMatrix": [100, 0, 0, 100],
      "AngioFlag": "N",
      "BitsAllocated": 16,
      "BitsStored": 12,
      "BodyPartExamined": "BRAIN",
      "Columns": 900,
      "EchoNumbers": 1,
      "EchoTime": 34.0,
      "EchoTrainLength": 100,
      "FlipAngle": 90.0,
      "HighBit": 11,
      "ImageOrientationPatient": [0.99938592911293, 0.03503920298006, -0.0001376430171, -0.0348993959253, 0.99573390039182, 0.08541681201352],
      "ImagePositionPatient": [-868.41833911793, -925.29599583354, -146.87489406454],
      "ImageType": [
        "ORIGINAL",
        "PRIMARY",
        "M",
        "ND",
        "MOSAIC"
],
      "ImagedNucleus": "1H",
      "ImagingFrequency": 123.257864,
      "InPlanePhaseEncodingDirection": "COL",
      "MRAcquisitionType": "2D",
      "MagneticFieldStrength": 3.0,
      "Manufacturer": "SIEMENS",
      "ManufacturerModelName": "Prisma",
      "Modality": "MR",
      "NumberOfAverages": 1.0,
      "NumberOfPhaseEncodingSteps": 100,
      "PercentPhaseFieldOfView": 100.0,
      "PercentSampling": 100.0,
      "PerformedProcedureStepStartTime": "140101.484000",
      "PhotometricInterpretation": "MONOCHROME2",
      "PixelBandwidth": 2380.0,
      "PixelRepresentation": 0,
      "PixelSpacing": [2.0, 2.0],
      "ProtocolName": "bold_100x100_s3_2x2x2_232",
      "RepetitionTime": 2000.0,
      "Rows": 900,
      "SAR": 0.06351053867547,
      "SamplesPerPixel": 1,
      "ScanOptions": "FS",
      "ScanningSequence": "EP",
      "SequenceName": "*epfid2d1_100",
      "SequenceVariant": "SK",
      "SeriesDescription": "bold_100x100_s3_2x2x2_232",
      "SeriesNumber": 8,
      "SeriesTime": "143436.148000",
      "SliceLocation": -70.073397286917,
      "SliceThickness": 2.0,
      "SmallestImagePixelValue": 0,
      "SoftwareVersions": "syngo MR E11",
      "SpacingBetweenSlices": 1.9999999109636,
      "SpecificCharacterSet": "ISO_IR 100",
      "StudyID": "1",
      "StudyTime": "140101.393000",
      "TransmitCoilName": "Body",
      "VariableFlipAngleFlag": "N",
      "WindowCenterWidthExplanation": "Algo1",
      "dBdt": 0.0},
    "slices": {}
  },
  "time": {
    "samples": {
      "AcquisitionNumber": [1, 2, 3, 4, 5, 6, 7, 8, 9, 10, 11, 12, 13, 14, 15, 16, 17, 18, 19, 20, 21, 22, 23, 24, 25, 26, 27, 28, 29, 30, 31, 32, 33, 34, 35, 36, 37, 38, 39, 40, 41, 42, 43, 44, 45, 46, 47, 48, 49, 50, 51, 52, 53, 54, 55, 56, 57, 58, 59, 60, 61, 62, 63, 64, 65, 66, 67, 68, 69, 70, 71, 72, 73, 74, 75, 76, 77, 78, 79, 80, 81, 82, 83, 84, 85, 86, 87, 88, 89, 90, 91, 92, 93, 94, 95, 96, 97, 98, 99, 100, 101, 102, 103, 104, 105, 106, 107, 108, 109, 110, 111, 112, 113, 114, 115, 116, 117, 118, 119, 120, 121, 122, 123, 124, 125, 126, 127, 128, 129, 130, 131, 132, 133, 134, 135, 136, 137, 138, 139, 140, 141, 142, 143, 144, 145, 146, 147, 148, 149, 150, 151, 152, 153, 154, 155, 156, 157, 158, 159, 160, 161, 162, 163, 164, 165, 166, 167, 168, 169, 170, 171, 172, 173, 174, 175, 176, 177, 178, 179, 180, 181, 182, 183, 184, 185, 186, 187, 188, 189, 190, 191, 192, 193, 194, 195, 196, 197, 198, 199, 200, 201, 202, 203, 204, 205, 206, 207, 208, 209, 210, 211, 212, 213, 214, 215, 216, 217, 218, 219, 220, 221, 222, 223, 224, 225, 226, 227, 228, 229, 230, 231, 232],
      "AcquisitionTime": ["143433.355000", "143435.355000", "143437.355000", "143439.355000", "143441.355000", "143443.355000", "143445.355000", "143447.355000", "143449.355000", "143451.355000", "143453.355000", "143455.355000", "143457.355000", "143459.355000", "143501.355000", "143503.355000", "143505.355000", "143507.355000", "143509.355000", "143511.355000", "143513.355000", "143515.355000", "143517.355000", "143519.355000", "143521.355000", "143523.355000", "143525.355000", "143527.355000", "143529.355000", "143531.355000", "143533.355000", "143535.355000", "143537.355000", "143539.355000", "143541.355000", "143543.355000", "143545.355000", "143547.355000", "143549.355000", "143551.355000", "143553.355000", "143555.355000", "143557.355000", "143559.355000", "143601.355000", "143603.355000", "143605.355000", "143607.355000", "143609.355000", "143611.355000", "143613.355000", "143615.355000", "143617.355000", "143619.355000", "143621.355000", "143623.355000", "143625.355000", "143627.355000", "143629.355000", "143631.355000", "143633.355000", "143635.355000", "143637.355000", "143639.355000", "143641.355000", "143643.355000", "143645.355000", "143647.355000", "143649.355000", "143651.355000", "143653.355000", "143655.355000", "143657.355000", "143659.355000", "143701.355000", "143703.355000", "143705.355000", "143707.355000", "143709.355000", "143711.355000", "143713.355000", "143715.355000", "143717.355000", "143719.355000", "143721.355000", "143723.355000", "143725.355000", "143727.355000", "143729.355000", "143731.355000", "143733.355000", "143735.355000", "143737.355000", "143739.355000", "143741.355000", "143743.355000", "143745.355000", "143747.355000", "143749.355000", "143751.355000", "143753.355000", "143755.355000", "143757.355000", "143759.355000", "143801.355000", "143803.355000", "143805.355000", "143807.355000", "143809.355000", "143811.355000", "143813.355000", "143815.355000", "143817.355000", "143819.355000", "143821.355000", "143823.355000", "143825.355000", "143827.355000", "143829.355000", "143831.355000", "143833.355000", "143835.355000", "143837.355000", "143839.355000", "143841.355000", "143843.355000", "143845.355000", "143847.355000", "143849.355000", "143851.355000", "143853.355000", "143855.355000", "143857.355000", "143859.355000", "143901.355000", "143903.355000", "143905.355000", "143907.355000", "143909.355000", "143911.355000", "143913.355000", "143915.355000", "143917.355000", "143919.355000", "143921.355000", "143923.355000", "143925.355000", "143927.355000", "143929.355000", "143931.355000", "143933.355000", "143935.355000", "143937.355000", "143939.355000", "143941.355000", "143943.355000", "143945.355000", "143947.355000", "143949.355000", "143951.355000", "143953.355000", "143955.355000", "143957.355000", "143959.355000", "144001.355000", "144003.355000", "144005.355000", "144007.355000", "144009.355000", "144011.355000", "144013.355000", "144015.355000", "144017.355000", "144019.355000", "144021.355000", "144023.355000", "144025.355000", "144027.355000", "144029.355000", "144031.355000", "144033.355000", "144035.355000", "144037.355000", "144039.355000", "144041.355000", "144043.355000", "144045.355000", "144047.355000", "144049.355000", "144051.355000", "144053.355000", "144055.355000", "144057.355000", "144059.355000", "144101.355000", "144103.355000", "144105.355000", "144107.355000", "144109.355000", "144111.355000", "144113.355000", "144115.355000", "144117.355000", "144119.355000", "144121.355000", "144123.355000", "144125.355000", "144127.355000", "144129.355000", "144131.355000", "144133.355000", "144135.355000", "144137.355000", "144139.355000", "144141.355000", "144143.355000", "144145.355000", "144147.355000", "144149.355000", "144151.355000", "144153.355000", "144155.355000", "144157.355000", "144159.355000", "144201.355000", "144203.355000", "144205.355000", "144207.355000", "144209.355000", "144211.355000", "144213.355000", "144215.355000"],
      "ContentTime": ["143436.152000", "143437.647000", "143439.647000", "143441.646000", "143443.646000", "143445.647000", "143447.648000", "143449.647000", "143451.647000", "143453.647000", "143455.647000", "143457.646000", "143459.646000", "143501.646000", "143503.647000", "143505.648000", "143507.647000", "143509.647000", "143511.647000", "143513.648000", "143515.646000", "143517.646000", "143519.646000", "143521.647000", "143523.648000", "143525.648000", "143527.648000", "143529.647000", "143531.648000", "143533.647000", "143535.647000", "143537.647000", "143539.647000", "143541.647000", "143543.648000", "143545.647000", "143547.648000", "143549.647000", "143551.647000", "143553.647000", "143555.647000", "143557.647000", "143559.647000", "143601.648000", "143603.648000", "143605.647000", "143607.647000", "143609.646000", "143611.646000", "143613.647000", "143615.647000", "143617.647000", "143619.647000", "143621.647000", "143623.647000", "143625.646000", "143627.646000", "143629.646000", "143631.648000", "143633.647000", "143635.647000", "143637.648000", "143639.647000", "143641.647000", "143643.647000", "143645.646000", "143647.646000", "143649.648000", "143651.647000", "143653.647000", "143655.647000", "143657.647000", "143659.646000", "143701.647000", "143703.646000", "143705.647000", "143707.647000", "143709.647000", "143711.647000", "143713.648000", "143715.647000", "143717.646000", "143719.646000", "143721.646000", "143723.648000", "143725.647000", "143727.647000", "143729.648000", "143731.647000", "143733.647000", "143735.646000", "143737.646000", "143739.646000", "143741.647000", "143743.647000", "143745.648000", "143747.648000", "143749.647000", "143751.647000", "143753.646000", "143755.646000", "143757.646000", "143759.648000", "143801.647000", "143803.647000", "143805.647000", "143807.648000", "143809.646000", "143811.646000", "143813.646000", "143815.647000", "143817.647000", "143819.648000", "143821.647000", "143823.648000", "143825.647000", "143827.647000", "143829.647000", "143831.647000", "143833.648000", "143835.647000", "143837.647000", "143839.648000", "143841.647000", "143843.647000", "143845.646000", "143847.646000", "143849.646000", "143851.648000", "143853.647000", "143855.647000", "143857.647000", "143859.658000", "143901.647000", "143903.646000", "143905.646000", "143907.646000", "143909.647000", "143911.647000", "143913.647000", "143915.647000", "143917.647000", "143919.647000", "143921.646000", "143923.647000", "143925.648000", "143927.647000", "143929.647000", "143931.647000", "143933.647000", "143935.647000", "143937.646000", "143939.646000", "143941.647000", "143943.648000", "143945.648000", "143947.647000", "143949.647000", "143951.648000", "143953.648000", "143955.646000", "143957.667000", "143959.647000", "144001.647000", "144003.647000", "144005.648000", "144007.647000", "144009.647000", "144011.647000", "144013.647000", "144015.646000", "144017.647000", "144019.648000", "144021.647000", "144023.647000", "144025.648000", "144027.647000", "144029.647000", "144031.647000", "144033.646000", "144035.648000", "144037.647000", "144039.647000", "144041.647000", "144043.647000", "144045.648000", "144047.646000", "144049.647000", "144051.647000", "144053.648000", "144055.647000", "144057.647000", "144059.648000", "144101.648000", "144103.647000", "144105.647000", "144107.647000", "144109.647000", "144111.647000", "144113.647000", "144115.648000", "144117.648000", "144119.648000", "144121.647000", "144123.646000", "144125.647000", "144127.647000", "144129.648000", "144131.647000", "144133.648000", "144135.647000", "144137.648000", "144139.646000", "144141.646000", "144143.647000", "144145.647000", "144147.648000", "144149.647000", "144151.648000", "144153.647000", "144155.648000", "144157.646000", "144159.646000", "144201.647000", "144203.647000", "144205.647000", "144207.647000", "144209.648000", "144211.648000", "144213.648000", "144215.646000", "144217.476000"],
      "InstanceCreationTime": ["143436.152000", "143437.647000", "143439.647000", "143441.646000", "143443.646000", "143445.647000", "143447.648000", "143449.647000", "143451.647000", "143453.647000", "143455.647000", "143457.646000", "143459.646000", "143501.646000", "143503.647000", "143505.648000", "143507.647000", "143509.647000", "143511.647000", "143513.648000", "143515.646000", "143517.646000", "143519.646000", "143521.647000", "143523.648000", "143525.648000", "143527.648000", "143529.647000", "143531.648000", "143533.647000", "143535.647000", "143537.647000", "143539.647000", "143541.647000", "143543.648000", "143545.647000", "143547.648000", "143549.647000", "143551.647000", "143553.647000", "143555.647000", "143557.647000", "143559.647000", "143601.648000", "143603.648000", "143605.647000", "143607.647000", "143609.646000", "143611.646000", "143613.647000", "143615.647000", "143617.647000", "143619.647000", "143621.647000", "143623.647000", "143625.646000", "143627.646000", "143629.646000", "143631.648000", "143633.647000", "143635.647000", "143637.648000", "143639.647000", "143641.647000", "143643.647000", "143645.646000", "143647.646000", "143649.648000", "143651.647000", "143653.647000", "143655.647000", "143657.647000", "143659.646000", "143701.647000", "143703.646000", "143705.647000", "143707.647000", "143709.647000", "143711.647000", "143713.648000", "143715.647000", "143717.646000", "143719.646000", "143721.646000", "143723.648000", "143725.647000", "143727.647000", "143729.648000", "143731.647000", "143733.647000", "143735.646000", "143737.646000", "143739.646000", "143741.647000", "143743.647000", "143745.648000", "143747.648000", "143749.647000", "143751.647000", "143753.646000", "143755.646000", "143757.646000", "143759.648000", "143801.647000", "143803.647000", "143805.647000", "143807.648000", "143809.646000", "143811.646000", "143813.646000", "143815.647000", "143817.647000", "143819.648000", "143821.647000", "143823.648000", "143825.647000", "143827.647000", "143829.647000", "143831.647000", "143833.648000", "143835.647000", "143837.647000", "143839.648000", "143841.647000", "143843.647000", "143845.646000", "143847.646000", "143849.646000", "143851.648000", "143853.647000", "143855.647000", "143857.647000", "143859.658000", "143901.647000", "143903.646000", "143905.646000", "143907.646000", "143909.647000", "143911.647000", "143913.647000", "143915.647000", "143917.647000", "143919.647000", "143921.646000", "143923.647000", "143925.648000", "143927.647000", "143929.647000", "143931.647000", "143933.647000", "143935.647000", "143937.646000", "143939.646000", "143941.647000", "143943.648000", "143945.648000", "143947.647000", "143949.647000", "143951.648000", "143953.648000", "143955.646000", "143957.667000", "143959.647000", "144001.647000", "144003.647000", "144005.648000", "144007.647000", "144009.647000", "144011.647000", "144013.647000", "144015.646000", "144017.647000", "144019.648000", "144021.647000", "144023.647000", "144025.648000", "144027.647000", "144029.647000", "144031.647000", "144033.646000", "144035.648000", "144037.647000", "144039.647000", "144041.647000", "144043.647000", "144045.648000", "144047.646000", "144049.647000", "144051.647000", "144053.648000", "144055.647000", "144057.647000", "144059.648000", "144101.648000", "144103.647000", "144105.647000", "144107.647000", "144109.647000", "144111.647000", "144113.647000", "144115.648000", "144117.648000", "144119.648000", "144121.647000", "144123.646000", "144125.647000", "144127.647000", "144129.648000", "144131.647000", "144133.648000", "144135.647000", "144137.648000", "144139.646000", "144141.646000", "144143.647000", "144145.647000", "144147.648000", "144149.647000", "144151.648000", "144153.647000", "144155.648000", "144157.646000", "144159.646000", "144201.647000", "144203.647000", "144205.647000", "144207.647000", "144209.648000", "144211.648000", "144213.648000", "144215.646000", "144217.476000"],
      "InstanceNumber": [1, 2, 3, 4, 5, 6, 7, 8, 9, 10, 11, 12, 13, 14, 15, 16, 17, 18, 19, 20, 21, 22, 23, 24, 25, 26, 27, 28, 29, 30, 31, 32, 33, 34, 35, 36, 37, 38, 39, 40, 41, 42, 43, 44, 45, 46, 47, 48, 49, 50, 51, 52, 53, 54, 55, 56, 57, 58, 59, 60, 61, 62, 63, 64, 65, 66, 67, 68, 69, 70, 71, 72, 73, 74, 75, 76, 77, 78, 79, 80, 81, 82, 83, 84, 85, 86, 87, 88, 89, 90, 91, 92, 93, 94, 95, 96, 97, 98, 99, 100, 101, 102, 103, 104, 105, 106, 107, 108, 109, 110, 111, 112, 113, 114, 115, 116, 117, 118, 119, 120, 121, 122, 123, 124, 125, 126, 127, 128, 129, 130, 131, 132, 133, 134, 135, 136, 137, 138, 139, 140, 141, 142, 143, 144, 145, 146, 147, 148, 149, 150, 151, 152, 153, 154, 155, 156, 157, 158, 159, 160, 161, 162, 163, 164, 165, 166, 167, 168, 169, 170, 171, 172, 173, 174, 175, 176, 177, 178, 179, 180, 181, 182, 183, 184, 185, 186, 187, 188, 189, 190, 191, 192, 193, 194, 195, 196, 197, 198, 199, 200, 201, 202, 203, 204, 205, 206, 207, 208, 209, 210, 211, 212, 213, 214, 215, 216, 217, 218, 219, 220, 221, 222, 223, 224, 225, 226, 227, 228, 229, 230, 231, 232],
      "LargestImagePixelValue": [3179, 3177, 3187, 3114, 3197, 3152, 3141, 3209, 3172, 3096, 3158, 3171, 3084, 3155, 3154, 3093, 3153, 3109, 3052, 3146, 3274, 3092, 3092, 3104, 3095, 3231, 3193, 3065, 3052, 3016, 3160, 3131, 3216, 3044, 3143, 3395, 3232, 3155, 3040, 3075, 3136, 3102, 3104, 3048, 3119, 3202, 3094, 3096, 3160, 3189, 3115, 3151, 3179, 3094, 3106, 3279, 3121, 3201, 3145, 3108, 3132, 3187, 3120, 3136, 3157, 3171, 3158, 3155, 3101, 3029, 3079, 3049, 3040, 3089, 3132, 3033, 3225, 3005, 3107, 2976, 3132, 3062, 3175, 3211, 3170, 3248, 3193, 3172, 3104, 3271, 3210, 3177, 3147, 3122, 3180, 3117, 3061, 3129, 3114, 3129, 3133, 3233, 3148, 3185, 3168, 3238, 3166, 3181, 3130, 3056, 3108, 3161, 3060, 3179, 3207, 3205, 3210, 3147, 3089, 3166, 3139, 3108, 3173, 3181, 3100, 3231, 3099, 3132, 3160, 3098, 3243, 3153, 3120, 3167, 3080, 3080, 3218, 3180, 3069, 3177, 3291, 3108, 3156, 2991, 3040, 3198, 3092, 3133, 3119, 3172, 3059, 3062, 3053, 2934, 2970, 2924, 3020, 2907, 2984, 2939, 3095, 2977, 3079, 3484, 3267, 3104, 2959, 3022, 3132, 3084, 3301, 3092, 3324, 3239, 3029, 3189, 3249, 2981, 3057, 3219, 3013, 3063, 3008, 3052, 3005, 3010, 3086, 2994, 3034, 3088, 3039, 3102, 3134, 3122, 3145, 3161, 3216, 3337, 3046, 3036, 3326, 3129, 3123, 3057, 3042, 2995, 3109, 3313, 3129, 3039, 2993, 3298, 3239, 3034, 3202, 3301, 3167, 3058, 3247, 2977, 3072, 3104, 3073, 3105, 3022, 3217, 3126, 3012, 3056, 2994, 3150, 3038],
      "WindowCenter": [742.0, 743.0, 742.0, 741.0, 742.0, 742.0, 743.0, 743.0, 741.0, 741.0, 743.0, 741.0, 742.0, 743.0, 742.0, 741.0, 743.0, 742.0, 743.0, 743.0, 744.0, 742.0, 741.0, 742.0, 743.0, 745.0, 744.0, 742.0, 741.0, 740.0, 742.0, 743.0, 742.0, 742.0, 743.0, 744.0, 743.0, 742.0, 742.0, 741.0, 741.0, 742.0, 742.0, 741.0, 743.0, 742.0, 742.0, 742.0, 742.0, 743.0, 742.0, 743.0, 743.0, 742.0, 743.0, 744.0, 743.0, 744.0, 743.0, 742.0, 742.0, 742.0, 742.0, 743.0, 744.0, 741.0, 742.0, 743.0, 741.0, 740.0, 741.0, 739.0, 739.0, 742.0, 740.0, 741.0, 741.0, 738.0, 740.0, 738.0, 742.0, 742.0, 743.0, 744.0, 741.0, 740.0, 743.0, 742.0, 741.0, 744.0, 745.0, 742.0, 741.0, 742.0, 741.0, 739.0, 738.0, 740.0, 742.0, 742.0, 743.0, 743.0, 743.0, 744.0, 744.0, 745.0, 743.0, 744.0, 742.0, 741.0, 743.0, 742.0, 743.0, 744.0, 745.0, 745.0, 745.0, 743.0, 743.0, 746.0, 743.0, 742.0, 744.0, 743.0, 743.0, 744.0, 743.0, 744.0, 744.0, 744.0, 746.0, 744.0, 744.0, 743.0, 742.0, 744.0, 744.0, 744.0, 744.0, 746.0, 746.0, 743.0, 742.0, 741.0, 743.0, 745.0, 744.0, 745.0, 746.0, 744.0, 741.0, 741.0, 739.0, 738.0, 739.0, 738.0, 740.0, 738.0, 741.0, 740.0, 742.0, 742.0, 744.0, 746.0, 745.0, 744.0, 743.0, 744.0, 744.0, 744.0, 745.0, 744.0, 747.0, 743.0, 743.0, 744.0, 743.0, 741.0, 742.0, 743.0, 742.0, 741.0, 741.0, 742.0, 740.0, 742.0, 742.0, 740.0, 741.0, 741.0, 742.0, 743.0, 743.0, 744.0, 744.0, 745.0, 744.0, 744.0, 742.0, 744.0, 745.0, 744.0, 741.0, 742.0, 742.0, 742.0, 742.0, 743.0, 741.0, 741.0, 742.0, 745.0, 745.0, 743.0, 744.0, 746.0, 744.0, 743.0, 743.0, 742.0, 743.0, 743.0, 744.0, 744.0, 743.0, 744.0, 743.0, 743.0, 742.0, 741.0, 744.0, 742.0],
      "WindowWidth": [1608.0, 1610.0, 1606.0, 1605.0, 1608.0, 1606.0, 1609.0, 1609.0, 1603.0, 1605.0, 1608.0, 1605.0, 1606.0, 1611.0, 1607.0, 1603.0, 1610.0, 1607.0, 1610.0, 1609.0, 1611.0, 1608.0, 1605.0, 1606.0, 1611.0, 1616.0, 1613.0, 1607.0, 1603.0, 1600.0, 1607.0, 1609.0, 1606.0, 1607.0, 1609.0, 1612.0, 1610.0, 1607.0, 1606.0, 1605.0, 1604.0, 1607.0, 1606.0, 1605.0, 1609.0, 1607.0, 1607.0, 1606.0, 1608.0, 1610.0, 1607.0, 1609.0, 1608.0, 1607.0, 1610.0, 1611.0, 1608.0, 1611.0, 1608.0, 1606.0, 1607.0, 1605.0, 1606.0, 1609.0, 1611.0, 1604.0, 1606.0, 1608.0, 1604.0, 1601.0, 1603.0, 1597.0, 1600.0, 1605.0, 1602.0, 1604.0, 1605.0, 1597.0, 1602.0, 1597.0, 1607.0, 1606.0, 1610.0, 1611.0, 1605.0, 1603.0, 1610.0, 1606.0, 1603.0, 1613.0, 1614.0, 1606.0, 1605.0, 1606.0, 1604.0, 1598.0, 1595.0, 1602.0, 1607.0, 1606.0, 1609.0, 1609.0, 1610.0, 1612.0, 1613.0, 1616.0, 1610.0, 1611.0, 1608.0, 1604.0, 1609.0, 1608.0, 1609.0, 1613.0, 1614.0, 1614.0, 1614.0, 1608.0, 1610.0, 1616.0, 1610.0, 1608.0, 1611.0, 1609.0, 1609.0, 1612.0, 1608.0, 1612.0, 1611.0, 1612.0, 1616.0, 1613.0, 1613.0, 1609.0, 1607.0, 1613.0, 1613.0, 1613.0, 1614.0, 1617.0, 1617.0, 1610.0, 1607.0, 1604.0, 1609.0, 1615.0, 1612.0, 1617.0, 1617.0, 1611.0, 1604.0, 1605.0, 1600.0, 1596.0, 1598.0, 1597.0, 1601.0, 1597.0, 1604.0, 1601.0, 1607.0, 1608.0, 1612.0, 1618.0, 1616.0, 1612.0, 1608.0, 1613.0, 1612.0, 1612.0, 1615.0, 1613.0, 1619.0, 1609.0, 1609.0, 1613.0, 1608.0, 1606.0, 1606.0, 1608.0, 1608.0, 1605.0, 1604.0, 1606.0, 1602.0, 1607.0, 1605.0, 1602.0, 1603.0, 1603.0, 1608.0, 1609.0, 1609.0, 1611.0, 1611.0, 1614.0, 1612.0, 1611.0, 1608.0, 1612.0, 1614.0, 1612.0, 1603.0, 1608.0, 1608.0, 1607.0, 1606.0, 1610.0, 1604.0, 1605.0, 1606.0, 1614.0, 1615.0, 1611.0, 1612.0, 1616.0, 1613.0, 1611.0, 1610.0, 1606.0, 1608.0, 1610.0, 1612.0, 1611.0, 1609.0, 1611.0, 1610.0, 1609.0, 1606.0, 1605.0, 1612.0, 1606.0]
    },
    "slices": {}
  }
}