{
  "AcquisitionMatrixPE": 100,
  "AcquisitionNumber": 1,
  "AcquisitionTime": "09:28:33.967500",
  "BandwidthPerPixelPhaseEncode": 18.519,
  "BaseResolution": 100,
  "BodyPartExamined": "BRAIN",
  "ConsistencyInfo": "N4_VE11C_LATEST_20160120",
  "ConversionSoftware": "dcm2niix",
  "ConversionSoftwareVersion": "v1.0.20180622 GCC4.9.2",
  "DerivedVendorReportedEchoSpacing": 0.000539986,
  "DeviceSerialNumber": "166078",
  "DwellTime": 2.1e-06,
  "EchoTime": 0.034,
  "EchoTrainLength": 100,
  "EffectiveEchoSpacing": 0.000539986,
  "FlipAngle": 90,
  "ImageOrientationPatientDICOM": [0.997564, 0.0679134, -0.0159289, -0.0697564, 0.971207, -0.227795],
  "ImageType": [
    "ORIGINAL",
    "PRIMARY",
    "M",
    "ND",
    "MOSAIC"
],
  "InPlanePhaseEncodingDirectionDICOM": "COL",
  "InstitutionAddress": "Street_StreetNo_Bei_Jing_District_CN_ZIP",
  "InstitutionName": "BeiJing_Normal_University",
  "InstitutionalDepartmentName": "Department",
  "MRAcquisitionType": "2D",
  "MagneticFieldStrength": 3,
  "Manufacturer": "Siemens",
  "ManufacturersModelName": "Prisma",
  "Modality": "MR",
  "MultibandAccelerationFactor": 3,
  "PartialFourier": 1,
  "PatientPosition": "HFS",
  "PercentPhaseFOV": 100,
  "PhaseEncodingDirection": "j-",
  "PhaseEncodingSteps": 100,
  "PhaseResolution": 1,
  "PixelBandwidth": 2380,
  "ProcedureStepDescription": "BNU_P2018_64CH_Liu.Jia",
  "ProtocolName": "bold_100x100_s3_2x2x2_232",
  "PulseSequenceDetails": "%SiemensSeq%_ep2d_bold",
  "ReceiveCoilActiveElements": "HC1-7;NC1",
  "ReceiveCoilName": "HeadNeck_64",
  "ReconMatrixPE": 100,
  "RepetitionTime": 2,
  "SAR": 0.0794754,
  "ScanOptions": "FS",
  "ScanningSequence": "EP",
  "SequenceName": "_epfid2d1_100",
  "SequenceVariant": "SK",
  "SeriesDescription": "bold_100x100_s3_2x2x2_232",
  "SeriesNumber": 4,
  "ShimSetting": [-5453, -11497, -1302, 451, 7, -279, -193, 27],
  "SliceThickness": 2,
  "SliceTiming": [1.485, 0, 0.99, 0.0825, 1.0725, 0.165, 1.155, 0.2475, 1.2375, 0.33, 1.32, 0.4125, 1.4025, 0.5775, 1.5675, 0.66, 1.65, 0.7425, 1.7325, 0.825, 1.815, 0.9075, 1.8975, 0.495, 1.485, 0, 0.99, 0.0825, 1.0725, 0.165, 1.155, 0.2475, 1.2375, 0.33, 1.32, 0.4125, 1.4025, 0.5775, 1.5675, 0.66, 1.65, 0.7425, 1.7325, 0.825, 1.815, 0.9075, 1.8975, 0.495, 1.485, 0, 0.99, 0.0825, 1.0725, 0.165, 1.155, 0.2475, 1.2375, 0.33, 1.32, 0.4125, 1.4025, 0.5775, 1.5675, 0.66, 1.65, 0.7425, 1.7325, 0.825, 1.815, 0.9075, 1.8975, 0.495],
  "SoftwareVersions": "syngo_MR_E11",
  "SpacingBetweenSlices": 2,
  "StationName": "AWP166078",
  "TaskName": "motor",
  "TotalReadoutTime": 0.0534586,
  "TxRefAmp": 211.962,
  "dcmmeta_affine": [
    [-1.9951281547546387, -0.13951285183429718, -5.767105015763718e-09, 109.29132843017578],
    [-0.13582676649093628, 1.94241464138031, -0.45670175552368164, -60.95960998535156],
    [-0.03185788542032242, 0.455589234828949, 1.947157859802246, -94.17315673828125],
    [0.0, 0.0, 0.0, 1.0]
],
  "dcmmeta_reorient_transform": [
    [0.0, -1.0, 0.0, 99.0],
    [1.0, 0.0, 0.0, 0.0],
    [0.0, 0.0, 1.0, 0.0],
    [0.0, 0.0, 0.0, 1.0]
],
  "dcmmeta_shape": [100, 100, 72, 232],
  "dcmmeta_slice_dim": 2,
  "dcmmeta_version": 0.6,
  "global": {
    "const": {
      "AcquisitionMatrix": [100, 0, 0, 100],
      "AngioFlag": "N",
      "BitsAllocated": 16,
      "BitsStored": 12,
      "BodyPartExamined": "BRAIN",
      "Columns": 900,
      "EchoNumbers": 1,
      "EchoTime": 34.0,
      "EchoTrainLength": 100,
      "FlipAngle": 90.0,
      "HighBit": 11,
      "ImageOrientationPatient": [0.99756405362618, 0.06791338370756, -0.0159289430378, -0.069756425603, 0.97120731774274, -0.2277946159373],
      "ImagePositionPatient": [-837.72566030102, -962.63600137668, 145.90902625879],
      "ImageType": [
        "ORIGINAL",
        "PRIMARY",
        "M",
        "ND",
        "MOSAIC"
],
      "ImagedNucleus": "1H",
      "ImagingFrequency": 123.257814,
      "InPlanePhaseEncodingDirection": "COL",
      "MRAcquisitionType": "2D",
      "MagneticFieldStrength": 3.0,
      "Manufacturer": "SIEMENS",
      "ManufacturerModelName": "Prisma",
      "Modality": "MR",
      "NumberOfAverages": 1.0,
      "NumberOfPhaseEncodingSteps": 100,
      "PercentPhaseFieldOfView": 100.0,
      "PercentSampling": 100.0,
      "PerformedProcedureStepStartTime": "091551.563000",
      "PhotometricInterpretation": "MONOCHROME2",
      "PixelBandwidth": 2380.0,
      "PixelRepresentation": 0,
      "PixelSpacing": [2.0, 2.0],
      "ProtocolName": "bold_100x100_s3_2x2x2_232",
      "RepetitionTime": 2000.0,
      "Rows": 900,
      "SAR": 0.07947537848711,
      "SamplesPerPixel": 1,
      "ScanOptions": "FS",
      "ScanningSequence": "EP",
      "SequenceName": "*epfid2d1_100",
      "SequenceVariant": "SK",
      "SeriesDescription": "bold_100x100_s3_2x2x2_232",
      "SeriesNumber": 4,
      "SeriesTime": "092835.944000",
      "SliceLocation": -77.764817724518,
      "SliceThickness": 2.0,
      "SmallestImagePixelValue": 0,
      "SoftwareVersions": "syngo MR E11",
      "SpacingBetweenSlices": 2.0000000415113,
      "SpecificCharacterSet": "ISO_IR 100",
      "StudyID": "1",
      "StudyTime": "091551.357000",
      "TransmitCoilName": "Body",
      "VariableFlipAngleFlag": "N",
      "WindowCenterWidthExplanation": "Algo1",
      "dBdt": 0.0},
    "slices": {}
  },
  "time": {
    "samples": {
      "AcquisitionNumber": [1, 2, 3, 4, 5, 6, 7, 8, 9, 10, 11, 12, 13, 14, 15, 16, 17, 18, 19, 20, 21, 22, 23, 24, 25, 26, 27, 28, 29, 30, 31, 32, 33, 34, 35, 36, 37, 38, 39, 40, 41, 42, 43, 44, 45, 46, 47, 48, 49, 50, 51, 52, 53, 54, 55, 56, 57, 58, 59, 60, 61, 62, 63, 64, 65, 66, 67, 68, 69, 70, 71, 72, 73, 74, 75, 76, 77, 78, 79, 80, 81, 82, 83, 84, 85, 86, 87, 88, 89, 90, 91, 92, 93, 94, 95, 96, 97, 98, 99, 100, 101, 102, 103, 104, 105, 106, 107, 108, 109, 110, 111, 112, 113, 114, 115, 116, 117, 118, 119, 120, 121, 122, 123, 124, 125, 126, 127, 128, 129, 130, 131, 132, 133, 134, 135, 136, 137, 138, 139, 140, 141, 142, 143, 144, 145, 146, 147, 148, 149, 150, 151, 152, 153, 154, 155, 156, 157, 158, 159, 160, 161, 162, 163, 164, 165, 166, 167, 168, 169, 170, 171, 172, 173, 174, 175, 176, 177, 178, 179, 180, 181, 182, 183, 184, 185, 186, 187, 188, 189, 190, 191, 192, 193, 194, 195, 196, 197, 198, 199, 200, 201, 202, 203, 204, 205, 206, 207, 208, 209, 210, 211, 212, 213, 214, 215, 216, 217, 218, 219, 220, 221, 222, 223, 224, 225, 226, 227, 228, 229, 230, 231, 232],
      "AcquisitionTime": ["092833.967500", "092835.967500", "092837.967500", "092839.967500", "092841.967500", "092843.967500", "092845.967500", "092847.967500", "092849.967500", "092851.967500", "092853.967500", "092855.967500", "092857.967500", "092859.967500", "092901.967500", "092903.967500", "092905.967500", "092907.967500", "092909.967500", "092911.967500", "092913.967500", "092915.967500", "092917.967500", "092919.967500", "092921.967500", "092923.967500", "092925.967500", "092927.967500", "092929.967500", "092931.967500", "092933.967500", "092935.967500", "092937.967500", "092939.967500", "092941.967500", "092943.967500", "092945.967500", "092947.967500", "092949.967500", "092951.967500", "092953.967500", "092955.967500", "092957.967500", "092959.967500", "093001.967500", "093003.967500", "093005.967500", "093007.967500", "093009.967500", "093011.967500", "093013.967500", "093015.967500", "093017.967500", "093019.967500", "093021.967500", "093023.967500", "093025.967500", "093027.967500", "093029.967500", "093031.967500", "093033.967500", "093035.967500", "093037.967500", "093039.967500", "093041.967500", "093043.967500", "093045.967500", "093047.967500", "093049.967500", "093051.967500", "093053.967500", "093055.967500", "093057.967500", "093059.967500", "093101.967500", "093103.967500", "093105.967500", "093107.967500", "093109.967500", "093111.967500", "093113.967500", "093115.967500", "093117.967500", "093119.967500", "093121.967500", "093123.967500", "093125.967500", "093127.967500", "093129.967500", "093131.967500", "093133.967500", "093135.967500", "093137.967500", "093139.967500", "093141.967500", "093143.967500", "093145.967500", "093147.967500", "093149.967500", "093151.967500", "093153.967500", "093155.967500", "093157.967500", "093159.967500", "093201.967500", "093203.967500", "093205.967500", "093207.967500", "093209.967500", "093211.967500", "093213.967500", "093215.967500", "093217.967500", "093219.967500", "093221.967500", "093223.967500", "093225.967500", "093227.967500", "093229.967500", "093231.967500", "093233.967500", "093235.967500", "093237.967500", "093239.967500", "093241.967500", "093243.967500", "093245.967500", "093247.967500", "093249.967500", "093251.967500", "093253.967500", "093255.967500", "093257.967500", "093259.967500", "093301.967500", "093303.967500", "093305.967500", "093307.967500", "093309.967500", "093311.967500", "093313.967500", "093315.967500", "093317.967500", "093319.967500", "093321.967500", "093323.967500", "093325.967500", "093327.967500", "093329.967500", "093331.967500", "093333.967500", "093335.967500", "093337.967500", "093339.967500", "093341.967500", "093343.967500", "093345.967500", "093347.967500", "093349.967500", "093351.967500", "093353.967500", "093355.967500", "093357.967500", "093359.967500", "093401.967500", "093403.967500", "093405.967500", "093407.967500", "093409.967500", "093411.967500", "093413.967500", "093415.967500", "093417.967500", "093419.967500", "093421.967500", "093423.967500", "093425.967500", "093427.967500", "093429.967500", "093431.967500", "093433.967500", "093435.967500", "093437.967500", "093439.967500", "093441.967500", "093443.967500", "093445.967500", "093447.967500", "093449.967500", "093451.967500", "093453.967500", "093455.967500", "093457.967500", "093459.967500", "093501.967500", "093503.967500", "093505.967500", "093507.967500", "093509.967500", "093511.967500", "093513.967500", "093515.967500", "093517.967500", "093519.967500", "093521.967500", "093523.967500", "093525.967500", "093527.967500", "093529.967500", "093531.967500", "093533.967500", "093535.967500", "093537.967500", "093539.967500", "093541.967500", "093543.967500", "093545.967500", "093547.967500", "093549.967500", "093551.967500", "093553.967500", "093555.967500", "093557.967500", "093559.967500", "093601.967500", "093603.967500", "093605.967500", "093607.967500", "093609.967500", "093611.967500", "093613.967500", "093615.967500"],
      "ContentTime": ["092835.948000", "092837.943000", "092839.943000", "092841.443000", "092843.443000", "092845.443000", "092847.443000", "092849.443000", "092851.442000", "092853.943000", "092855.443000", "092857.943000", "092859.443000", "092901.443000", "092903.443000", "092905.444000", "092907.442000", "092909.942000", "092911.943000", "092913.443000", "092915.443000", "092917.963000", "092919.443000", "092921.943000", "092923.444000", "092925.943000", "092927.442000", "092929.443000", "092931.443000", "092933.443000", "092935.943000", "092937.943000", "092939.943000", "092941.444000", "092943.442000", "092945.944000", "092947.943000", "092949.943000", "092951.443000", "092953.943000", "092955.443000", "092957.943000", "092959.443000", "093001.942000", "093003.443000", "093005.943000", "093007.443000", "093009.943000", "093011.443000", "093013.443000", "093015.944000", "093017.942000", "093019.442000", "093021.444000", "093023.443000", "093025.443000", "093027.443000", "093029.443000", "093031.443000", "093033.443000", "093035.942000", "093037.943000", "093039.943000", "093041.944000", "093043.944000", "093045.444000", "093047.944000", "093049.943000", "093051.443000", "093053.443000", "093055.443000", "093057.944000", "093059.444000", "093101.443000", "093103.944000", "093105.443000", "093107.444000", "093109.443000", "093111.442000", "093113.943000", "093115.443000", "093117.443000", "093119.443000", "093121.443000", "093123.443000", "093125.944000", "093127.942000", "093129.442000", "093131.443000", "093133.944000", "093135.444000", "093137.943000", "093139.943000", "093141.443000", "093143.444000", "093145.942000", "093147.442000", "093149.443000", "093151.444000", "093153.443000", "093155.943000", "093157.944000", "093159.443000", "093201.944000", "093203.942000", "093205.443000", "093207.443000", "093209.444000", "093211.444000", "093213.443000", "093215.444000", "093217.443000", "093219.443000", "093221.442000", "093223.443000", "093225.443000", "093227.443000", "093229.944000", "093231.443000", "093233.944000", "093235.443000", "093237.942000", "093239.943000", "093241.444000", "093243.943000", "093245.944000", "093247.444000", "093249.443000", "093251.443000", "093253.944000", "093255.942000", "093257.943000", "093259.444000", "093301.444000", "093303.444000", "093305.443000", "093307.443000", "093309.444000", "093311.943000", "093313.943000", "093315.944000", "093317.944000", "093319.443000", "093321.443000", "093323.943000", "093325.444000", "093327.443000", "093329.942000", "093331.942000", "093333.943000", "093335.944000", "093337.444000", "093339.443000", "093341.944000", "093343.943000", "093345.443000", "093347.943000", "093349.944000", "093351.943000", "093353.943000", "093355.943000", "093357.443000", "093359.444000", "093401.943000", "093403.443000", "093405.942000", "093407.943000", "093409.443000", "093411.443000", "093413.444000", "093415.443000", "093417.444000", "093419.944000", "093421.443000", "093423.442000", "093425.443000", "093427.943000", "093429.443000", "093431.943000", "093433.443000", "093435.443000", "093437.443000", "093439.443000", "093441.942000", "093443.943000", "093445.444000", "093447.443000", "093449.443000", "093451.943000", "093453.943000", "093455.443000", "093457.942000", "093459.442000", "093501.444000", "093503.944000", "093505.943000", "093507.443000", "093509.444000", "093511.443000", "093513.444000", "093515.942000", "093517.444000", "093519.443000", "093521.443000", "093523.443000", "093525.443000", "093527.444000", "093529.444000", "093531.444000", "093533.443000", "093535.443000", "093537.443000", "093539.443000", "093541.443000", "093543.943000", "093545.443000", "093547.444000", "093549.443000", "093551.442000", "093553.443000", "093555.443000", "093557.944000", "093559.944000", "093601.443000", "093603.944000", "093605.943000", "093607.942000", "093609.442000", "093611.944000", "093613.944000", "093615.944000", "093617.423000"],
      "InstanceCreationTime": ["092835.948000", "092837.943000", "092839.943000", "092841.443000", "092843.443000", "092845.443000", "092847.443000", "092849.443000", "092851.442000", "092853.943000", "092855.443000", "092857.943000", "092859.443000", "092901.443000", "092903.443000", "092905.444000", "092907.442000", "092909.942000", "092911.943000", "092913.443000", "092915.443000", "092917.963000", "092919.443000", "092921.943000", "092923.444000", "092925.943000", "092927.442000", "092929.443000", "092931.443000", "092933.443000", "092935.943000", "092937.943000", "092939.943000", "092941.444000", "092943.442000", "092945.944000", "092947.943000", "092949.943000", "092951.443000", "092953.943000", "092955.443000", "092957.943000", "092959.443000", "093001.942000", "093003.443000", "093005.943000", "093007.443000", "093009.943000", "093011.443000", "093013.443000", "093015.944000", "093017.942000", "093019.442000", "093021.444000", "093023.443000", "093025.443000", "093027.443000", "093029.443000", "093031.443000", "093033.443000", "093035.942000", "093037.943000", "093039.943000", "093041.944000", "093043.944000", "093045.444000", "093047.944000", "093049.943000", "093051.443000", "093053.443000", "093055.443000", "093057.944000", "093059.444000", "093101.443000", "093103.944000", "093105.443000", "093107.444000", "093109.443000", "093111.442000", "093113.943000", "093115.443000", "093117.443000", "093119.443000", "093121.443000", "093123.443000", "093125.944000", "093127.942000", "093129.442000", "093131.443000", "093133.944000", "093135.444000", "093137.943000", "093139.943000", "093141.443000", "093143.444000", "093145.942000", "093147.442000", "093149.443000", "093151.444000", "093153.443000", "093155.943000", "093157.944000", "093159.443000", "093201.944000", "093203.942000", "093205.443000", "093207.443000", "093209.444000", "093211.444000", "093213.443000", "093215.444000", "093217.443000", "093219.443000", "093221.442000", "093223.443000", "093225.443000", "093227.443000", "093229.944000", "093231.443000", "093233.944000", "093235.443000", "093237.942000", "093239.943000", "093241.444000", "093243.943000", "093245.944000", "093247.444000", "093249.443000", "093251.443000", "093253.944000", "093255.942000", "093257.943000", "093259.444000", "093301.444000", "093303.444000", "093305.443000", "093307.443000", "093309.444000", "093311.943000", "093313.943000", "093315.944000", "093317.944000", "093319.443000", "093321.443000", "093323.943000", "093325.444000", "093327.443000", "093329.942000", "093331.942000", "093333.943000", "093335.944000", "093337.444000", "093339.443000", "093341.944000", "093343.943000", "093345.443000", "093347.943000", "093349.944000", "093351.943000", "093353.943000", "093355.943000", "093357.443000", "093359.444000", "093401.943000", "093403.443000", "093405.942000", "093407.943000", "093409.443000", "093411.443000", "093413.444000", "093415.443000", "093417.444000", "093419.944000", "093421.443000", "093423.442000", "093425.443000", "093427.943000", "093429.443000", "093431.943000", "093433.443000", "093435.443000", "093437.443000", "093439.443000", "093441.942000", "093443.943000", "093445.444000", "093447.443000", "093449.443000", "093451.943000", "093453.943000", "093455.443000", "093457.942000", "093459.442000", "093501.444000", "093503.944000", "093505.943000", "093507.443000", "093509.444000", "093511.443000", "093513.444000", "093515.942000", "093517.444000", "093519.443000", "093521.443000", "093523.443000", "093525.443000", "093527.444000", "093529.444000", "093531.444000", "093533.443000", "093535.443000", "093537.443000", "093539.443000", "093541.443000", "093543.943000", "093545.443000", "093547.444000", "093549.443000", "093551.442000", "093553.443000", "093555.443000", "093557.944000", "093559.944000", "093601.443000", "093603.944000", "093605.943000", "093607.942000", "093609.442000", "093611.944000", "093613.944000", "093615.944000", "093617.423000"],
      "InstanceNumber": [1, 2, 3, 4, 5, 6, 7, 8, 9, 10, 11, 12, 13, 14, 15, 16, 17, 18, 19, 20, 21, 22, 23, 24, 25, 26, 27, 28, 29, 30, 31, 32, 33, 34, 35, 36, 37, 38, 39, 40, 41, 42, 43, 44, 45, 46, 47, 48, 49, 50, 51, 52, 53, 54, 55, 56, 57, 58, 59, 60, 61, 62, 63, 64, 65, 66, 67, 68, 69, 70, 71, 72, 73, 74, 75, 76, 77, 78, 79, 80, 81, 82, 83, 84, 85, 86, 87, 88, 89, 90, 91, 92, 93, 94, 95, 96, 97, 98, 99, 100, 101, 102, 103, 104, 105, 106, 107, 108, 109, 110, 111, 112, 113, 114, 115, 116, 117, 118, 119, 120, 121, 122, 123, 124, 125, 126, 127, 128, 129, 130, 131, 132, 133, 134, 135, 136, 137, 138, 139, 140, 141, 142, 143, 144, 145, 146, 147, 148, 149, 150, 151, 152, 153, 154, 155, 156, 157, 158, 159, 160, 161, 162, 163, 164, 165, 166, 167, 168, 169, 170, 171, 172, 173, 174, 175, 176, 177, 178, 179, 180, 181, 182, 183, 184, 185, 186, 187, 188, 189, 190, 191, 192, 193, 194, 195, 196, 197, 198, 199, 200, 201, 202, 203, 204, 205, 206, 207, 208, 209, 210, 211, 212, 213, 214, 215, 216, 217, 218, 219, 220, 221, 222, 223, 224, 225, 226, 227, 228, 229, 230, 231, 232],
      "LargestImagePixelValue": [2741, 2647, 2637, 2603, 2624, 2615, 2654, 2671, 2639, 2597, 2586, 2617, 2524, 2583, 2516, 2527, 2603, 2657, 2592, 2561, 2610, 2600, 2577, 2630, 2614, 2662, 2602, 2564, 2532, 2591, 2581, 2523, 2535, 2584, 2521, 2508, 2517, 2505, 2495, 2515, 2563, 2527, 2469, 2486, 2515, 2511, 2518, 2544, 2530, 2588, 2540, 2523, 2531, 2553, 2550, 2521, 2532, 2543, 2534, 2548, 2546, 2519, 2542, 2523, 2511, 2516, 2503, 2538, 2530, 2548, 2542, 2529, 2520, 2573, 2619, 2604, 2590, 2556, 2550, 2554, 2542, 2506, 2503, 2525, 2531, 2516, 2530, 2563, 2583, 2528, 2535, 2526, 2513, 2538, 2538, 2532, 2562, 2522, 2528, 2550, 2496, 2578, 2560, 2561, 2556, 2549, 2580, 2610, 2632, 2640, 2647, 2682, 2615, 2634, 2630, 2683, 2648, 2665, 2692, 2666, 2714, 2668, 2681, 2686, 2682, 2664, 2677, 2612, 2655, 2665, 2686, 2654, 2648, 2607, 2647, 2663, 2628, 2719, 2776, 2670, 2742, 2684, 2705, 2734, 2721, 2647, 2690, 2715, 2701, 2731, 2675, 2651, 2667, 2684, 2632, 2658, 2666, 2668, 2676, 2648, 2644, 2663, 2654, 2680, 2716, 2704, 2734, 2703, 2755, 2740, 2723, 2703, 2742, 2730, 2735, 2684, 2669, 2731, 2706, 2706, 2681, 2743, 2728, 2708, 2744, 2571, 2552, 2518, 2560, 2544, 2553, 2547, 2560, 2592, 2578, 2547, 2543, 2572, 2572, 2569, 2559, 2560, 2582, 2665, 2567, 2580, 2646, 2643, 2580, 2580, 2600, 2620, 2588, 2584, 2590, 2566, 2697, 2628, 2596, 2601, 2578, 2562, 2578, 2596, 2562, 2555, 2554, 2561, 2569, 2561, 2562, 2572],
      "WindowCenter": [736.0, 735.0, 735.0, 734.0, 735.0, 735.0, 735.0, 736.0, 736.0, 737.0, 737.0, 736.0, 734.0, 735.0, 736.0, 735.0, 736.0, 737.0, 738.0, 739.0, 739.0, 738.0, 739.0, 741.0, 739.0, 739.0, 738.0, 737.0, 735.0, 736.0, 737.0, 736.0, 736.0, 737.0, 738.0, 738.0, 737.0, 735.0, 735.0, 736.0, 737.0, 738.0, 738.0, 737.0, 737.0, 737.0, 738.0, 739.0, 738.0, 739.0, 739.0, 739.0, 739.0, 739.0, 739.0, 740.0, 740.0, 741.0, 740.0, 739.0, 739.0, 738.0, 738.0, 738.0, 737.0, 738.0, 739.0, 739.0, 738.0, 736.0, 735.0, 735.0, 737.0, 738.0, 737.0, 735.0, 735.0, 735.0, 736.0, 735.0, 736.0, 736.0, 737.0, 738.0, 737.0, 737.0, 738.0, 739.0, 739.0, 738.0, 739.0, 738.0, 737.0, 738.0, 738.0, 737.0, 737.0, 737.0, 737.0, 737.0, 735.0, 736.0, 736.0, 736.0, 736.0, 736.0, 739.0, 740.0, 740.0, 738.0, 737.0, 737.0, 737.0, 737.0, 738.0, 738.0, 737.0, 736.0, 737.0, 737.0, 738.0, 736.0, 736.0, 736.0, 735.0, 736.0, 736.0, 735.0, 735.0, 736.0, 737.0, 735.0, 735.0, 735.0, 736.0, 737.0, 737.0, 739.0, 740.0, 739.0, 739.0, 739.0, 738.0, 739.0, 738.0, 737.0, 738.0, 738.0, 738.0, 738.0, 736.0, 737.0, 737.0, 737.0, 738.0, 737.0, 736.0, 736.0, 737.0, 737.0, 737.0, 737.0, 738.0, 739.0, 738.0, 738.0, 738.0, 738.0, 739.0, 739.0, 739.0, 738.0, 738.0, 738.0, 737.0, 738.0, 737.0, 738.0, 738.0, 738.0, 737.0, 736.0, 736.0, 737.0, 738.0, 738.0, 740.0, 739.0, 739.0, 738.0, 740.0, 740.0, 738.0, 739.0, 739.0, 738.0, 738.0, 737.0, 736.0, 735.0, 735.0, 735.0, 736.0, 735.0, 732.0, 733.0, 735.0, 735.0, 734.0, 737.0, 739.0, 739.0, 738.0, 736.0, 735.0, 734.0, 736.0, 736.0, 737.0, 735.0, 733.0, 733.0, 734.0, 735.0, 735.0, 736.0, 737.0, 737.0, 737.0, 737.0, 737.0, 739.0],
      "WindowWidth": [1591.0, 1586.0, 1587.0, 1585.0, 1586.0, 1586.0, 1587.0, 1589.0, 1591.0, 1593.0, 1593.0, 1590.0, 1584.0, 1587.0, 1590.0, 1588.0, 1589.0, 1593.0, 1597.0, 1598.0, 1597.0, 1596.0, 1598.0, 1603.0, 1600.0, 1599.0, 1597.0, 1593.0, 1588.0, 1590.0, 1592.0, 1591.0, 1590.0, 1594.0, 1597.0, 1596.0, 1593.0, 1587.0, 1587.0, 1590.0, 1594.0, 1595.0, 1596.0, 1593.0, 1593.0, 1594.0, 1596.0, 1598.0, 1597.0, 1599.0, 1598.0, 1598.0, 1599.0, 1598.0, 1598.0, 1600.0, 1602.0, 1604.0, 1602.0, 1600.0, 1598.0, 1596.0, 1596.0, 1596.0, 1594.0, 1595.0, 1599.0, 1599.0, 1594.0, 1589.0, 1587.0, 1588.0, 1592.0, 1595.0, 1593.0, 1587.0, 1586.0, 1588.0, 1589.0, 1588.0, 1589.0, 1591.0, 1593.0, 1595.0, 1594.0, 1593.0, 1596.0, 1599.0, 1600.0, 1596.0, 1598.0, 1596.0, 1594.0, 1595.0, 1596.0, 1592.0, 1594.0, 1593.0, 1594.0, 1594.0, 1589.0, 1591.0, 1591.0, 1592.0, 1591.0, 1591.0, 1598.0, 1602.0, 1600.0, 1595.0, 1593.0, 1593.0, 1592.0, 1592.0, 1594.0, 1594.0, 1591.0, 1591.0, 1593.0, 1593.0, 1594.0, 1590.0, 1589.0, 1588.0, 1588.0, 1590.0, 1591.0, 1586.0, 1587.0, 1590.0, 1592.0, 1588.0, 1585.0, 1586.0, 1590.0, 1592.0, 1592.0, 1598.0, 1601.0, 1597.0, 1598.0, 1597.0, 1595.0, 1597.0, 1595.0, 1593.0, 1595.0, 1594.0, 1595.0, 1594.0, 1591.0, 1591.0, 1591.0, 1593.0, 1594.0, 1591.0, 1591.0, 1590.0, 1592.0, 1591.0, 1591.0, 1594.0, 1596.0, 1597.0, 1595.0, 1595.0, 1596.0, 1596.0, 1598.0, 1596.0, 1596.0, 1594.0, 1594.0, 1594.0, 1592.0, 1594.0, 1592.0, 1596.0, 1595.0, 1595.0, 1591.0, 1590.0, 1591.0, 1593.0, 1594.0, 1595.0, 1601.0, 1598.0, 1598.0, 1596.0, 1602.0, 1600.0, 1597.0, 1597.0, 1597.0, 1596.0, 1595.0, 1593.0, 1590.0, 1587.0, 1586.0, 1588.0, 1590.0, 1588.0, 1580.0, 1582.0, 1587.0, 1586.0, 1585.0, 1593.0, 1598.0, 1599.0, 1594.0, 1590.0, 1588.0, 1585.0, 1589.0, 1590.0, 1591.0, 1586.0, 1582.0, 1582.0, 1585.0, 1586.0, 1587.0, 1590.0, 1593.0, 1593.0, 1592.0, 1591.0, 1593.0, 1597.0]
    },
    "slices": {}
  }
}