{
  "AcquisitionMatrixPE": 100,
  "AcquisitionNumber": 1,
  "AcquisitionTime": "09:37:33.225000",
  "BandwidthPerPixelPhaseEncode": 18.519,
  "BaseResolution": 100,
  "BodyPartExamined": "BRAIN",
  "ConsistencyInfo": "N4_VE11C_LATEST_20160120",
  "ConversionSoftware": "dcm2niix",
  "ConversionSoftwareVersion": "v1.0.20180622 GCC4.9.2",
  "DerivedVendorReportedEchoSpacing": 0.000539986,
  "DeviceSerialNumber": "166078",
  "DwellTime": 2.1e-06,
  "EchoTime": 0.034,
  "EchoTrainLength": 100,
  "EffectiveEchoSpacing": 0.000539986,
  "FlipAngle": 90,
  "ImageOrientationPatientDICOM": [0.997564, 0.0679134, -0.0159289, -0.0697564, 0.971207, -0.227795],
  "ImageType": [
    "ORIGINAL",
    "PRIMARY",
    "M",
    "ND",
    "MOSAIC"
],
  "InPlanePhaseEncodingDirectionDICOM": "COL",
  "InstitutionAddress": "Street_StreetNo_Bei_Jing_District_CN_ZIP",
  "InstitutionName": "BeiJing_Normal_University",
  "InstitutionalDepartmentName": "Department",
  "MRAcquisitionType": "2D",
  "MagneticFieldStrength": 3,
  "Manufacturer": "Siemens",
  "ManufacturersModelName": "Prisma",
  "Modality": "MR",
  "MultibandAccelerationFactor": 3,
  "PartialFourier": 1,
  "PatientPosition": "HFS",
  "PercentPhaseFOV": 100,
  "PhaseEncodingDirection": "j-",
  "PhaseEncodingSteps": 100,
  "PhaseResolution": 1,
  "PixelBandwidth": 2380,
  "ProcedureStepDescription": "BNU_P2018_64CH_Liu.Jia",
  "ProtocolName": "bold_100x100_s3_2x2x2_232",
  "PulseSequenceDetails": "%SiemensSeq%_ep2d_bold",
  "ReceiveCoilActiveElements": "HC1-7;NC1",
  "ReceiveCoilName": "HeadNeck_64",
  "ReconMatrixPE": 100,
  "RepetitionTime": 2,
  "SAR": 0.0794754,
  "ScanOptions": "FS",
  "ScanningSequence": "EP",
  "SequenceName": "_epfid2d1_100",
  "SequenceVariant": "SK",
  "SeriesDescription": "bold_100x100_s3_2x2x2_232",
  "SeriesNumber": 5,
  "ShimSetting": [-5453, -11497, -1302, 451, 7, -279, -193, 27],
  "SliceThickness": 2,
  "SliceTiming": [1.485, 0, 0.99, 0.0825, 1.0725, 0.165, 1.155, 0.2475, 1.2375, 0.33, 1.32, 0.4125, 1.4025, 0.5775, 1.5675, 0.66, 1.65, 0.7425, 1.7325, 0.825, 1.815, 0.9075, 1.8975, 0.495, 1.485, 0, 0.99, 0.0825, 1.0725, 0.165, 1.155, 0.2475, 1.2375, 0.33, 1.32, 0.4125, 1.4025, 0.5775, 1.5675, 0.66, 1.65, 0.7425, 1.7325, 0.825, 1.815, 0.9075, 1.8975, 0.495, 1.485, 0, 0.99, 0.0825, 1.0725, 0.165, 1.155, 0.2475, 1.2375, 0.33, 1.32, 0.4125, 1.4025, 0.5775, 1.5675, 0.66, 1.65, 0.7425, 1.7325, 0.825, 1.815, 0.9075, 1.8975, 0.495],
  "SoftwareVersions": "syngo_MR_E11",
  "SpacingBetweenSlices": 2,
  "StationName": "AWP166078",
  "TaskName": "motor",
  "TotalReadoutTime": 0.0534586,
  "TxRefAmp": 211.962,
  "dcmmeta_affine": [
    [-1.9951281547546387, -0.13951285183429718, -5.767105015763718e-09, 109.29132843017578],
    [-0.13582676649093628, 1.94241464138031, -0.45670175552368164, -60.95960998535156],
    [-0.03185788542032242, 0.455589234828949, 1.947157859802246, -94.17315673828125],
    [0.0, 0.0, 0.0, 1.0]
],
  "dcmmeta_reorient_transform": [
    [0.0, -1.0, 0.0, 99.0],
    [1.0, 0.0, 0.0, 0.0],
    [0.0, 0.0, 1.0, 0.0],
    [0.0, 0.0, 0.0, 1.0]
],
  "dcmmeta_shape": [100, 100, 72, 232],
  "dcmmeta_slice_dim": 2,
  "dcmmeta_version": 0.6,
  "global": {
    "const": {
      "AcquisitionMatrix": [100, 0, 0, 100],
      "AngioFlag": "N",
      "BitsAllocated": 16,
      "BitsStored": 12,
      "BodyPartExamined": "BRAIN",
      "Columns": 900,
      "EchoNumbers": 1,
      "EchoTime": 34.0,
      "EchoTrainLength": 100,
      "FlipAngle": 90.0,
      "HighBit": 11,
      "ImageOrientationPatient": [0.99756405362618, 0.06791338370756, -0.0159289430378, -0.069756425603, 0.97120731774274, -0.2277946159373],
      "ImagePositionPatient": [-837.72566030102, -962.63600137668, 145.90902625879],
      "ImageType": [
        "ORIGINAL",
        "PRIMARY",
        "M",
        "ND",
        "MOSAIC"
],
      "ImagedNucleus": "1H",
      "ImagingFrequency": 123.257823,
      "InPlanePhaseEncodingDirection": "COL",
      "MRAcquisitionType": "2D",
      "MagneticFieldStrength": 3.0,
      "Manufacturer": "SIEMENS",
      "ManufacturerModelName": "Prisma",
      "Modality": "MR",
      "NumberOfAverages": 1.0,
      "NumberOfPhaseEncodingSteps": 100,
      "PercentPhaseFieldOfView": 100.0,
      "PercentSampling": 100.0,
      "PerformedProcedureStepStartTime": "091551.563000",
      "PhotometricInterpretation": "MONOCHROME2",
      "PixelBandwidth": 2380.0,
      "PixelRepresentation": 0,
      "PixelSpacing": [2.0, 2.0],
      "ProtocolName": "bold_100x100_s3_2x2x2_232",
      "RepetitionTime": 2000.0,
      "Rows": 900,
      "SAR": 0.07947537848711,
      "SamplesPerPixel": 1,
      "ScanOptions": "FS",
      "ScanningSequence": "EP",
      "SequenceName": "*epfid2d1_100",
      "SequenceVariant": "SK",
      "SeriesDescription": "bold_100x100_s3_2x2x2_232",
      "SeriesNumber": 5,
      "SeriesTime": "093735.606000",
      "SliceLocation": -77.764817724518,
      "SliceThickness": 2.0,
      "SmallestImagePixelValue": 0,
      "SoftwareVersions": "syngo MR E11",
      "SpacingBetweenSlices": 2.0000000415113,
      "SpecificCharacterSet": "ISO_IR 100",
      "StudyID": "1",
      "StudyTime": "091551.357000",
      "TransmitCoilName": "Body",
      "VariableFlipAngleFlag": "N",
      "WindowCenterWidthExplanation": "Algo1",
      "dBdt": 0.0},
    "slices": {}
  },
  "time": {
    "samples": {
      "AcquisitionNumber": [1, 2, 3, 4, 5, 6, 7, 8, 9, 10, 11, 12, 13, 14, 15, 16, 17, 18, 19, 20, 21, 22, 23, 24, 25, 26, 27, 28, 29, 30, 31, 32, 33, 34, 35, 36, 37, 38, 39, 40, 41, 42, 43, 44, 45, 46, 47, 48, 49, 50, 51, 52, 53, 54, 55, 56, 57, 58, 59, 60, 61, 62, 63, 64, 65, 66, 67, 68, 69, 70, 71, 72, 73, 74, 75, 76, 77, 78, 79, 80, 81, 82, 83, 84, 85, 86, 87, 88, 89, 90, 91, 92, 93, 94, 95, 96, 97, 98, 99, 100, 101, 102, 103, 104, 105, 106, 107, 108, 109, 110, 111, 112, 113, 114, 115, 116, 117, 118, 119, 120, 121, 122, 123, 124, 125, 126, 127, 128, 129, 130, 131, 132, 133, 134, 135, 136, 137, 138, 139, 140, 141, 142, 143, 144, 145, 146, 147, 148, 149, 150, 151, 152, 153, 154, 155, 156, 157, 158, 159, 160, 161, 162, 163, 164, 165, 166, 167, 168, 169, 170, 171, 172, 173, 174, 175, 176, 177, 178, 179, 180, 181, 182, 183, 184, 185, 186, 187, 188, 189, 190, 191, 192, 193, 194, 195, 196, 197, 198, 199, 200, 201, 202, 203, 204, 205, 206, 207, 208, 209, 210, 211, 212, 213, 214, 215, 216, 217, 218, 219, 220, 221, 222, 223, 224, 225, 226, 227, 228, 229, 230, 231, 232],
      "AcquisitionTime": ["093733.225000", "093735.225000", "093737.225000", "093739.225000", "093741.225000", "093743.225000", "093745.225000", "093747.225000", "093749.225000", "093751.225000", "093753.225000", "093755.225000", "093757.225000", "093759.225000", "093801.225000", "093803.225000", "093805.225000", "093807.225000", "093809.225000", "093811.225000", "093813.225000", "093815.225000", "093817.225000", "093819.225000", "093821.225000", "093823.225000", "093825.225000", "093827.225000", "093829.225000", "093831.225000", "093833.225000", "093835.225000", "093837.225000", "093839.225000", "093841.225000", "093843.225000", "093845.225000", "093847.225000", "093849.225000", "093851.225000", "093853.225000", "093855.225000", "093857.225000", "093859.225000", "093901.225000", "093903.225000", "093905.225000", "093907.225000", "093909.225000", "093911.225000", "093913.225000", "093915.225000", "093917.225000", "093919.225000", "093921.225000", "093923.225000", "093925.225000", "093927.225000", "093929.225000", "093931.225000", "093933.225000", "093935.225000", "093937.225000", "093939.225000", "093941.225000", "093943.225000", "093945.225000", "093947.225000", "093949.225000", "093951.225000", "093953.225000", "093955.225000", "093957.225000", "093959.225000", "094001.225000", "094003.225000", "094005.225000", "094007.225000", "094009.225000", "094011.225000", "094013.225000", "094015.225000", "094017.225000", "094019.225000", "094021.225000", "094023.225000", "094025.225000", "094027.225000", "094029.225000", "094031.225000", "094033.225000", "094035.225000", "094037.225000", "094039.225000", "094041.225000", "094043.225000", "094045.225000", "094047.225000", "094049.225000", "094051.225000", "094053.225000", "094055.225000", "094057.225000", "094059.225000", "094101.225000", "094103.225000", "094105.225000", "094107.225000", "094109.225000", "094111.225000", "094113.225000", "094115.225000", "094117.225000", "094119.225000", "094121.225000", "094123.225000", "094125.225000", "094127.225000", "094129.225000", "094131.225000", "094133.225000", "094135.225000", "094137.225000", "094139.225000", "094141.225000", "094143.225000", "094145.225000", "094147.225000", "094149.225000", "094151.225000", "094153.225000", "094155.225000", "094157.225000", "094159.225000", "094201.225000", "094203.225000", "094205.225000", "094207.225000", "094209.225000", "094211.225000", "094213.225000", "094215.225000", "094217.225000", "094219.225000", "094221.225000", "094223.225000", "094225.225000", "094227.225000", "094229.225000", "094231.225000", "094233.225000", "094235.225000", "094237.225000", "094239.225000", "094241.225000", "094243.225000", "094245.225000", "094247.225000", "094249.225000", "094251.225000", "094253.225000", "094255.225000", "094257.225000", "094259.225000", "094301.225000", "094303.225000", "094305.225000", "094307.225000", "094309.225000", "094311.225000", "094313.225000", "094315.225000", "094317.225000", "094319.225000", "094321.225000", "094323.225000", "094325.225000", "094327.225000", "094329.225000", "094331.225000", "094333.225000", "094335.225000", "094337.225000", "094339.225000", "094341.225000", "094343.225000", "094345.225000", "094347.225000", "094349.225000", "094351.225000", "094353.225000", "094355.225000", "094357.225000", "094359.225000", "094401.225000", "094403.225000", "094405.225000", "094407.225000", "094409.225000", "094411.225000", "094413.225000", "094415.225000", "094417.225000", "094419.225000", "094421.225000", "094423.225000", "094425.225000", "094427.225000", "094429.225000", "094431.225000", "094433.225000", "094435.225000", "094437.225000", "094439.225000", "094441.225000", "094443.225000", "094445.225000", "094447.225000", "094449.225000", "094451.225000", "094453.225000", "094455.225000", "094457.225000", "094459.225000", "094501.225000", "094503.225000", "094505.225000", "094507.225000", "094509.225000", "094511.225000", "094513.225000", "094515.225000"],
      "ContentTime": ["093735.610000", "093737.105000", "093739.107000", "093741.106000", "093743.106000", "093745.107000", "093747.105000", "093749.105000", "093751.105000", "093753.105000", "093755.106000", "093757.107000", "093759.106000", "093801.106000", "093803.106000", "093805.105000", "093807.106000", "093809.105000", "093811.106000", "093813.106000", "093815.106000", "093817.107000", "093819.106000", "093821.106000", "093823.105000", "093825.105000", "093827.106000", "093829.105000", "093831.106000", "093833.106000", "093835.106000", "093837.107000", "093839.106000", "093841.105000", "093843.106000", "093845.105000", "093847.107000", "093849.106000", "093851.107000", "093853.106000", "093855.107000", "093857.105000", "093859.105000", "093901.105000", "093903.106000", "093905.107000", "093907.106000", "093909.106000", "093911.106000", "093913.106000", "093915.105000", "093917.105000", "093919.105000", "093921.106000", "093923.107000", "093925.106000", "093927.106000", "093929.106000", "093931.105000", "093933.106000", "093935.105000", "093937.105000", "093939.105000", "093941.106000", "093943.107000", "093945.106000", "093947.106000", "093949.105000", "093951.106000", "093953.105000", "093955.105000", "093957.106000", "093959.107000", "094001.106000", "094003.106000", "094005.107000", "094007.105000", "094009.106000", "094011.105000", "094013.105000", "094015.107000", "094017.106000", "094019.106000", "094021.106000", "094023.106000", "094025.105000", "094027.106000", "094029.105000", "094031.106000", "094033.106000", "094035.106000", "094037.106000", "094039.106000", "094041.105000", "094043.105000", "094045.106000", "094047.105000", "094049.105000", "094051.106000", "094053.106000", "094055.106000", "094057.106000", "094059.106000", "094101.105000", "094103.105000", "094105.106000", "094107.106000", "094109.107000", "094111.107000", "094113.106000", "094115.106000", "094117.106000", "094119.105000", "094121.106000", "094123.106000", "094125.107000", "094127.106000", "094129.106000", "094131.106000", "094133.106000", "094135.106000", "094137.106000", "094139.105000", "094141.105000", "094143.106000", "094145.106000", "094147.106000", "094149.106000", "094151.106000", "094153.105000", "094155.105000", "094157.105000", "094159.106000", "094201.106000", "094203.106000", "094205.106000", "094207.107000", "094209.106000", "094211.105000", "094213.106000", "094215.105000", "094217.106000", "094219.106000", "094221.106000", "094223.107000", "094225.106000", "094227.105000", "094229.106000", "094231.105000", "094233.106000", "094235.106000", "094237.107000", "094239.107000", "094241.106000", "094243.106000", "094245.105000", "094247.105000", "094249.105000", "094251.105000", "094253.106000", "094255.106000", "094257.106000", "094259.106000", "094301.105000", "094303.105000", "094305.105000", "094307.105000", "094309.106000", "094311.106000", "094313.106000", "094315.106000", "094317.106000", "094319.106000", "094321.105000", "094323.105000", "094325.105000", "094327.107000", "094329.107000", "094331.106000", "094333.106000", "094335.107000", "094337.105000", "094339.106000", "094341.105000", "094343.106000", "094345.107000", "094347.106000", "094349.107000", "094351.107000", "094353.106000", "094355.105000", "094357.105000", "094359.106000", "094401.106000", "094403.106000", "094405.106000", "094407.107000", "094409.106000", "094411.118000", "094413.105000", "094415.106000", "094417.105000", "094419.106000", "094421.107000", "094423.106000", "094425.107000", "094427.107000", "094429.105000", "094431.105000", "094433.105000", "094435.106000", "094437.106000", "094439.107000", "094441.106000", "094443.106000", "094445.110000", "094447.105000", "094449.105000", "094451.105000", "094453.105000", "094455.106000", "094457.106000", "094459.106000", "094501.106000", "094503.106000", "094505.106000", "094507.105000", "094509.105000", "094511.105000", "094513.107000", "094515.107000", "094516.781000"],
      "InstanceCreationTime": ["093735.610000", "093737.105000", "093739.107000", "093741.106000", "093743.106000", "093745.107000", "093747.105000", "093749.105000", "093751.105000", "093753.105000", "093755.106000", "093757.107000", "093759.106000", "093801.106000", "093803.106000", "093805.105000", "093807.106000", "093809.105000", "093811.106000", "093813.106000", "093815.106000", "093817.107000", "093819.106000", "093821.106000", "093823.105000", "093825.105000", "093827.106000", "093829.105000", "093831.106000", "093833.106000", "093835.106000", "093837.107000", "093839.106000", "093841.105000", "093843.106000", "093845.105000", "093847.107000", "093849.106000", "093851.107000", "093853.106000", "093855.107000", "093857.105000", "093859.105000", "093901.105000", "093903.106000", "093905.107000", "093907.106000", "093909.106000", "093911.106000", "093913.106000", "093915.105000", "093917.105000", "093919.105000", "093921.106000", "093923.107000", "093925.106000", "093927.106000", "093929.106000", "093931.105000", "093933.106000", "093935.105000", "093937.105000", "093939.105000", "093941.106000", "093943.107000", "093945.106000", "093947.106000", "093949.105000", "093951.106000", "093953.105000", "093955.105000", "093957.106000", "093959.107000", "094001.106000", "094003.106000", "094005.107000", "094007.105000", "094009.106000", "094011.105000", "094013.105000", "094015.107000", "094017.106000", "094019.106000", "094021.106000", "094023.106000", "094025.105000", "094027.106000", "094029.105000", "094031.106000", "094033.106000", "094035.106000", "094037.106000", "094039.106000", "094041.105000", "094043.105000", "094045.106000", "094047.105000", "094049.105000", "094051.106000", "094053.106000", "094055.106000", "094057.106000", "094059.106000", "094101.105000", "094103.105000", "094105.106000", "094107.106000", "094109.107000", "094111.107000", "094113.106000", "094115.106000", "094117.106000", "094119.105000", "094121.106000", "094123.106000", "094125.107000", "094127.106000", "094129.106000", "094131.106000", "094133.106000", "094135.106000", "094137.106000", "094139.105000", "094141.105000", "094143.106000", "094145.106000", "094147.106000", "094149.106000", "094151.106000", "094153.105000", "094155.105000", "094157.105000", "094159.106000", "094201.106000", "094203.106000", "094205.106000", "094207.107000", "094209.106000", "094211.105000", "094213.106000", "094215.105000", "094217.106000", "094219.106000", "094221.106000", "094223.107000", "094225.106000", "094227.105000", "094229.106000", "094231.105000", "094233.106000", "094235.106000", "094237.107000", "094239.107000", "094241.106000", "094243.106000", "094245.105000", "094247.105000", "094249.105000", "094251.105000", "094253.106000", "094255.106000", "094257.106000", "094259.106000", "094301.105000", "094303.105000", "094305.105000", "094307.105000", "094309.106000", "094311.106000", "094313.106000", "094315.106000", "094317.106000", "094319.106000", "094321.105000", "094323.105000", "094325.105000", "094327.107000", "094329.107000", "094331.106000", "094333.106000", "094335.107000", "094337.105000", "094339.106000", "094341.105000", "094343.106000", "094345.107000", "094347.106000", "094349.107000", "094351.107000", "094353.106000", "094355.105000", "094357.105000", "094359.106000", "094401.106000", "094403.106000", "094405.106000", "094407.107000", "094409.106000", "094411.118000", "094413.105000", "094415.106000", "094417.105000", "094419.106000", "094421.107000", "094423.106000", "094425.107000", "094427.107000", "094429.105000", "094431.105000", "094433.105000", "094435.106000", "094437.106000", "094439.107000", "094441.106000", "094443.106000", "094445.110000", "094447.105000", "094449.105000", "094451.105000", "094453.105000", "094455.106000", "094457.106000", "094459.106000", "094501.106000", "094503.106000", "094505.106000", "094507.105000", "094509.105000", "094511.105000", "094513.107000", "094515.107000", "094516.781000"],
      "InstanceNumber": [1, 2, 3, 4, 5, 6, 7, 8, 9, 10, 11, 12, 13, 14, 15, 16, 17, 18, 19, 20, 21, 22, 23, 24, 25, 26, 27, 28, 29, 30, 31, 32, 33, 34, 35, 36, 37, 38, 39, 40, 41, 42, 43, 44, 45, 46, 47, 48, 49, 50, 51, 52, 53, 54, 55, 56, 57, 58, 59, 60, 61, 62, 63, 64, 65, 66, 67, 68, 69, 70, 71, 72, 73, 74, 75, 76, 77, 78, 79, 80, 81, 82, 83, 84, 85, 86, 87, 88, 89, 90, 91, 92, 93, 94, 95, 96, 97, 98, 99, 100, 101, 102, 103, 104, 105, 106, 107, 108, 109, 110, 111, 112, 113, 114, 115, 116, 117, 118, 119, 120, 121, 122, 123, 124, 125, 126, 127, 128, 129, 130, 131, 132, 133, 134, 135, 136, 137, 138, 139, 140, 141, 142, 143, 144, 145, 146, 147, 148, 149, 150, 151, 152, 153, 154, 155, 156, 157, 158, 159, 160, 161, 162, 163, 164, 165, 166, 167, 168, 169, 170, 171, 172, 173, 174, 175, 176, 177, 178, 179, 180, 181, 182, 183, 184, 185, 186, 187, 188, 189, 190, 191, 192, 193, 194, 195, 196, 197, 198, 199, 200, 201, 202, 203, 204, 205, 206, 207, 208, 209, 210, 211, 212, 213, 214, 215, 216, 217, 218, 219, 220, 221, 222, 223, 224, 225, 226, 227, 228, 229, 230, 231, 232],
      "LargestImagePixelValue": [2661, 2642, 2619, 2594, 2602, 2587, 2621, 2629, 2634, 2585, 2585, 2601, 2577, 2588, 2589, 2611, 2587, 2636, 2607, 2652, 2702, 2674, 2712, 2707, 2658, 2859, 2706, 2736, 2707, 2655, 2637, 2673, 2748, 2718, 2715, 2729, 2694, 2720, 2699, 2701, 2703, 2699, 2694, 2680, 2670, 2684, 2632, 2686, 2661, 2636, 2674, 2682, 2623, 2640, 2635, 2639, 2633, 2595, 2654, 2617, 2621, 2650, 2692, 2604, 2693, 2663, 2672, 2657, 2677, 2638, 2639, 2633, 2624, 2636, 2671, 2692, 2653, 2689, 2708, 2652, 2693, 2739, 2703, 2721, 2727, 2708, 2697, 2721, 2708, 2707, 2675, 2659, 2666, 2686, 2693, 2677, 2609, 2582, 2580, 2582, 2628, 2604, 2663, 2685, 2710, 2585, 2557, 2561, 2552, 2568, 2588, 2573, 2698, 2668, 2655, 2649, 2643, 2624, 2638, 2647, 2676, 2692, 2669, 2670, 2645, 2667, 2619, 2612, 2591, 2624, 2634, 2609, 2657, 2615, 2625, 2633, 2647, 2689, 2690, 2632, 2611, 2624, 2587, 2556, 2541, 2565, 2546, 2534, 2570, 2559, 2557, 2585, 2568, 2555, 2552, 2540, 2552, 2542, 2571, 2548, 2603, 2597, 2585, 2612, 2652, 2632, 2651, 2683, 2659, 2629, 2676, 2675, 2699, 2726, 2703, 2701, 2711, 2680, 2675, 2640, 2674, 2643, 2688, 2678, 2694, 2680, 2674, 2682, 2658, 2668, 2674, 2695, 2667, 2640, 2655, 2643, 2654, 2613, 2617, 2621, 2604, 2618, 2537, 2535, 2543, 2543, 2538, 2538, 2566, 2610, 2613, 2556, 2545, 2566, 2575, 2565, 2565, 2575, 2573, 2558, 2560, 2557, 2547, 2595, 2548, 2564, 2563, 2593, 2540, 2593, 2567, 2562],
      "WindowCenter": [739.0, 739.0, 739.0, 738.0, 737.0, 737.0, 738.0, 738.0, 738.0, 739.0, 738.0, 737.0, 737.0, 737.0, 737.0, 738.0, 737.0, 739.0, 741.0, 741.0, 740.0, 740.0, 741.0, 740.0, 739.0, 741.0, 741.0, 740.0, 739.0, 739.0, 739.0, 740.0, 741.0, 741.0, 741.0, 742.0, 742.0, 742.0, 742.0, 742.0, 741.0, 742.0, 742.0, 742.0, 742.0, 742.0, 742.0, 742.0, 742.0, 742.0, 742.0, 741.0, 740.0, 740.0, 741.0, 741.0, 741.0, 740.0, 739.0, 738.0, 738.0, 739.0, 740.0, 738.0, 740.0, 741.0, 741.0, 739.0, 738.0, 739.0, 741.0, 740.0, 739.0, 741.0, 742.0, 741.0, 738.0, 738.0, 740.0, 741.0, 742.0, 743.0, 742.0, 741.0, 740.0, 739.0, 739.0, 740.0, 741.0, 741.0, 741.0, 741.0, 742.0, 742.0, 742.0, 742.0, 741.0, 742.0, 743.0, 742.0, 740.0, 739.0, 740.0, 741.0, 741.0, 738.0, 739.0, 737.0, 736.0, 736.0, 737.0, 737.0, 738.0, 740.0, 741.0, 741.0, 740.0, 739.0, 740.0, 741.0, 742.0, 743.0, 741.0, 740.0, 740.0, 740.0, 740.0, 740.0, 740.0, 741.0, 742.0, 742.0, 742.0, 741.0, 741.0, 742.0, 742.0, 742.0, 741.0, 739.0, 739.0, 739.0, 738.0, 737.0, 736.0, 737.0, 737.0, 737.0, 736.0, 734.0, 735.0, 736.0, 737.0, 738.0, 739.0, 739.0, 740.0, 739.0, 739.0, 739.0, 739.0, 740.0, 738.0, 736.0, 735.0, 734.0, 734.0, 734.0, 734.0, 735.0, 735.0, 734.0, 733.0, 733.0, 732.0, 732.0, 733.0, 734.0, 735.0, 735.0, 736.0, 735.0, 735.0, 734.0, 735.0, 734.0, 736.0, 736.0, 735.0, 735.0, 736.0, 737.0, 737.0, 738.0, 739.0, 738.0, 737.0, 736.0, 736.0, 737.0, 736.0, 735.0, 735.0, 733.0, 733.0, 734.0, 734.0, 734.0, 735.0, 737.0, 737.0, 736.0, 736.0, 737.0, 737.0, 736.0, 735.0, 736.0, 735.0, 733.0, 733.0, 734.0, 733.0, 734.0, 735.0, 737.0, 737.0, 737.0, 736.0, 735.0, 736.0, 738.0],
      "WindowWidth": [1599.0, 1598.0, 1597.0, 1595.0, 1594.0, 1592.0, 1594.0, 1594.0, 1596.0, 1597.0, 1596.0, 1594.0, 1592.0, 1593.0, 1594.0, 1594.0, 1594.0, 1600.0, 1604.0, 1605.0, 1602.0, 1600.0, 1604.0, 1602.0, 1597.0, 1604.0, 1602.0, 1602.0, 1598.0, 1598.0, 1599.0, 1602.0, 1603.0, 1604.0, 1605.0, 1607.0, 1607.0, 1607.0, 1607.0, 1606.0, 1605.0, 1606.0, 1607.0, 1606.0, 1606.0, 1607.0, 1606.0, 1606.0, 1606.0, 1607.0, 1607.0, 1605.0, 1601.0, 1602.0, 1604.0, 1605.0, 1604.0, 1600.0, 1600.0, 1595.0, 1596.0, 1600.0, 1601.0, 1596.0, 1602.0, 1605.0, 1603.0, 1597.0, 1595.0, 1598.0, 1603.0, 1602.0, 1599.0, 1603.0, 1605.0, 1602.0, 1597.0, 1595.0, 1601.0, 1605.0, 1606.0, 1608.0, 1606.0, 1605.0, 1602.0, 1598.0, 1598.0, 1602.0, 1604.0, 1605.0, 1604.0, 1603.0, 1605.0, 1607.0, 1606.0, 1606.0, 1604.0, 1608.0, 1610.0, 1606.0, 1602.0, 1599.0, 1602.0, 1604.0, 1603.0, 1597.0, 1597.0, 1592.0, 1590.0, 1591.0, 1592.0, 1592.0, 1596.0, 1600.0, 1604.0, 1603.0, 1601.0, 1599.0, 1601.0, 1605.0, 1607.0, 1608.0, 1603.0, 1602.0, 1600.0, 1601.0, 1601.0, 1601.0, 1601.0, 1604.0, 1608.0, 1606.0, 1606.0, 1604.0, 1605.0, 1608.0, 1607.0, 1606.0, 1603.0, 1597.0, 1597.0, 1598.0, 1596.0, 1593.0, 1591.0, 1593.0, 1594.0, 1592.0, 1589.0, 1585.0, 1586.0, 1590.0, 1593.0, 1596.0, 1598.0, 1599.0, 1600.0, 1599.0, 1598.0, 1597.0, 1599.0, 1601.0, 1596.0, 1589.0, 1586.0, 1584.0, 1585.0, 1585.0, 1585.0, 1586.0, 1587.0, 1584.0, 1582.0, 1580.0, 1578.0, 1579.0, 1580.0, 1585.0, 1588.0, 1588.0, 1588.0, 1586.0, 1586.0, 1586.0, 1586.0, 1585.0, 1588.0, 1589.0, 1588.0, 1588.0, 1591.0, 1591.0, 1593.0, 1595.0, 1597.0, 1595.0, 1592.0, 1590.0, 1591.0, 1591.0, 1589.0, 1588.0, 1586.0, 1581.0, 1581.0, 1584.0, 1585.0, 1584.0, 1587.0, 1591.0, 1593.0, 1591.0, 1590.0, 1592.0, 1592.0, 1589.0, 1587.0, 1590.0, 1586.0, 1581.0, 1582.0, 1584.0, 1582.0, 1584.0, 1586.0, 1591.0, 1593.0, 1593.0, 1589.0, 1588.0, 1590.0, 1594.0]
    },
    "slices": {}
  }
}