{
  "AcquisitionMatrixPE": 100,
  "AcquisitionNumber": 1,
  "AcquisitionTime": "10:41:40.660000",
  "BandwidthPerPixelPhaseEncode": 18.519,
  "BaseResolution": 100,
  "BodyPartExamined": "BRAIN",
  "ConsistencyInfo": "N4_VE11C_LATEST_20160120",
  "ConversionSoftware": "dcm2niix",
  "ConversionSoftwareVersion": "v1.0.20180622 GCC4.9.2",
  "DerivedVendorReportedEchoSpacing": 0.000539986,
  "DeviceSerialNumber": "166078",
  "DwellTime": 2.1e-06,
  "EchoTime": 0.034,
  "EchoTrainLength": 100,
  "EffectiveEchoSpacing": 0.000539986,
  "FlipAngle": 90,
  "ImageOrientationPatientDICOM": [1, 0, 0, 0, 0.999391, -0.0348995],
  "ImageType": [
    "ORIGINAL",
    "PRIMARY",
    "M",
    "ND",
    "MOSAIC"
],
  "InPlanePhaseEncodingDirectionDICOM": "COL",
  "InstitutionAddress": "Street_StreetNo_Bei_Jing_District_CN_ZIP",
  "InstitutionName": "BeiJing_Normal_University",
  "InstitutionalDepartmentName": "Department",
  "MRAcquisitionType": "2D",
  "MagneticFieldStrength": 3,
  "Manufacturer": "Siemens",
  "ManufacturersModelName": "Prisma",
  "Modality": "MR",
  "MultibandAccelerationFactor": 3,
  "PartialFourier": 1,
  "PatientPosition": "HFS",
  "PercentPhaseFOV": 100,
  "PhaseEncodingDirection": "j-",
  "PhaseEncodingSteps": 100,
  "PhaseResolution": 1,
  "PixelBandwidth": 2380,
  "ProcedureStepDescription": "BNU_P2018_64CH_Liu.Jia",
  "ProtocolName": "bold_100x100_s3_2x2x2_232",
  "PulseSequenceDetails": "%SiemensSeq%_ep2d_bold",
  "ReceiveCoilActiveElements": "HC1-7;NC1",
  "ReceiveCoilName": "HeadNeck_64",
  "ReconMatrixPE": 100,
  "RepetitionTime": 2,
  "SAR": 0.0654608,
  "ScanOptions": "FS",
  "ScanningSequence": "EP",
  "SequenceName": "_epfid2d1_100",
  "SequenceVariant": "SK",
  "SeriesDescription": "bold_100x100_s3_2x2x2_232",
  "SeriesNumber": 5,
  "ShimSetting": [-5467, -11458, -1195, 322, -50, -94, -38, 102],
  "SliceThickness": 2,
  "SliceTiming": [1.485, 0, 0.99, 0.0825, 1.0725, 0.165, 1.155, 0.2475, 1.2375, 0.33, 1.32, 0.4125, 1.4025, 0.5775, 1.5675, 0.66, 1.65, 0.7425, 1.7325, 0.825, 1.815, 0.9075, 1.8975, 0.495, 1.485, 0, 0.99, 0.0825, 1.0725, 0.165, 1.155, 0.2475, 1.2375, 0.33, 1.32, 0.4125, 1.4025, 0.5775, 1.5675, 0.66, 1.65, 0.7425, 1.7325, 0.825, 1.815, 0.9075, 1.8975, 0.495, 1.485, 0, 0.99, 0.0825, 1.0725, 0.165, 1.155, 0.2475, 1.2375, 0.33, 1.32, 0.4125, 1.4025, 0.5775, 1.5675, 0.66, 1.65, 0.7425, 1.7325, 0.825, 1.815, 0.9075, 1.8975, 0.495],
  "SoftwareVersions": "syngo_MR_E11",
  "SpacingBetweenSlices": 2,
  "StationName": "AWP166078",
  "TaskName": "motor",
  "TotalReadoutTime": 0.0534586,
  "TxRefAmp": 218.639,
  "dcmmeta_affine": [
    [-2.0, 0.0, 0.0, 100.0],
    [0.0, 1.998781681060791, -0.06979899853467941, -93.30821990966797],
    [0.0, 0.06979899853467941, 1.9987815618515015, -54.92629623413086],
    [0.0, 0.0, 0.0, 1.0]
],
  "dcmmeta_reorient_transform": [
    [0.0, -1.0, 0.0, 99.0],
    [1.0, 0.0, 0.0, 0.0],
    [0.0, 0.0, 1.0, 0.0],
    [0.0, 0.0, 0.0, 1.0]
],
  "dcmmeta_shape": [100, 100, 72, 232],
  "dcmmeta_slice_dim": 2,
  "dcmmeta_version": 0.6,
  "global": {
    "const": {
      "AcquisitionMatrix": [100, 0, 0, 100],
      "AngioFlag": "N",
      "BitsAllocated": 16,
      "BitsStored": 12,
      "BodyPartExamined": "BRAIN",
      "Columns": 900,
      "EchoNumbers": 1,
      "EchoTime": 34.0,
      "EchoTrainLength": 100,
      "FlipAngle": 90.0,
      "HighBit": 11,
      "ImageOrientationPatient": [1.0, 0.0, 0.0, 0.0, 0.99939082696012, -0.0348994983914],
      "ImagePositionPatient": [-900.0, -904.08382529591, -20.096596925046],
      "ImageType": [
        "ORIGINAL",
        "PRIMARY",
        "M",
        "ND",
        "MOSAIC"
],
      "ImagedNucleus": "1H",
      "ImagingFrequency": 123.2578,
      "InPlanePhaseEncodingDirection": "COL",
      "MRAcquisitionType": "2D",
      "MagneticFieldStrength": 3.0,
      "Manufacturer": "SIEMENS",
      "ManufacturerModelName": "Prisma",
      "Modality": "MR",
      "NumberOfAverages": 1.0,
      "NumberOfPhaseEncodingSteps": 100,
      "PercentPhaseFieldOfView": 100.0,
      "PercentSampling": 100.0,
      "PerformedProcedureStepStartTime": "101911.583000",
      "PhotometricInterpretation": "MONOCHROME2",
      "PixelBandwidth": 2380.0,
      "PixelRepresentation": 0,
      "PixelSpacing": [2.0, 2.0],
      "ProtocolName": "bold_100x100_s3_2x2x2_232",
      "RepetitionTime": 2000.0,
      "Rows": 900,
      "SAR": 0.06546080980599,
      "SamplesPerPixel": 1,
      "ScanOptions": "FS",
      "ScanningSequence": "EP",
      "SequenceName": "*epfid2d1_100",
      "SequenceVariant": "SK",
      "SeriesDescription": "bold_100x100_s3_2x2x2_232",
      "SeriesNumber": 5,
      "SeriesTime": "104142.885000",
      "SliceLocation": -51.6364266266,
      "SliceThickness": 2.0,
      "SmallestImagePixelValue": 0,
      "SoftwareVersions": "syngo MR E11",
      "SpacingBetweenSlices": 1.9999999531306,
      "SpecificCharacterSet": "ISO_IR 100",
      "StudyID": "1",
      "StudyTime": "101911.500000",
      "TransmitCoilName": "Body",
      "VariableFlipAngleFlag": "N",
      "WindowCenterWidthExplanation": "Algo1",
      "dBdt": 0.0},
    "slices": {}
  },
  "time": {
    "samples": {
      "AcquisitionNumber": [1, 2, 3, 4, 5, 6, 7, 8, 9, 10, 11, 12, 13, 14, 15, 16, 17, 18, 19, 20, 21, 22, 23, 24, 25, 26, 27, 28, 29, 30, 31, 32, 33, 34, 35, 36, 37, 38, 39, 40, 41, 42, 43, 44, 45, 46, 47, 48, 49, 50, 51, 52, 53, 54, 55, 56, 57, 58, 59, 60, 61, 62, 63, 64, 65, 66, 67, 68, 69, 70, 71, 72, 73, 74, 75, 76, 77, 78, 79, 80, 81, 82, 83, 84, 85, 86, 87, 88, 89, 90, 91, 92, 93, 94, 95, 96, 97, 98, 99, 100, 101, 102, 103, 104, 105, 106, 107, 108, 109, 110, 111, 112, 113, 114, 115, 116, 117, 118, 119, 120, 121, 122, 123, 124, 125, 126, 127, 128, 129, 130, 131, 132, 133, 134, 135, 136, 137, 138, 139, 140, 141, 142, 143, 144, 145, 146, 147, 148, 149, 150, 151, 152, 153, 154, 155, 156, 157, 158, 159, 160, 161, 162, 163, 164, 165, 166, 167, 168, 169, 170, 171, 172, 173, 174, 175, 176, 177, 178, 179, 180, 181, 182, 183, 184, 185, 186, 187, 188, 189, 190, 191, 192, 193, 194, 195, 196, 197, 198, 199, 200, 201, 202, 203, 204, 205, 206, 207, 208, 209, 210, 211, 212, 213, 214, 215, 216, 217, 218, 219, 220, 221, 222, 223, 224, 225, 226, 227, 228, 229, 230, 231, 232],
      "AcquisitionTime": ["104140.660000", "104142.660000", "104144.660000", "104146.660000", "104148.660000", "104150.660000", "104152.660000", "104154.660000", "104156.660000", "104158.660000", "104200.660000", "104202.660000", "104204.660000", "104206.660000", "104208.660000", "104210.660000", "104212.660000", "104214.660000", "104216.660000", "104218.660000", "104220.660000", "104222.660000", "104224.660000", "104226.660000", "104228.660000", "104230.660000", "104232.660000", "104234.660000", "104236.660000", "104238.660000", "104240.660000", "104242.660000", "104244.660000", "104246.660000", "104248.660000", "104250.660000", "104252.660000", "104254.660000", "104256.660000", "104258.660000", "104300.660000", "104302.660000", "104304.660000", "104306.660000", "104308.660000", "104310.660000", "104312.660000", "104314.660000", "104316.660000", "104318.660000", "104320.660000", "104322.660000", "104324.660000", "104326.660000", "104328.660000", "104330.660000", "104332.660000", "104334.660000", "104336.660000", "104338.660000", "104340.660000", "104342.660000", "104344.660000", "104346.660000", "104348.660000", "104350.660000", "104352.660000", "104354.660000", "104356.660000", "104358.660000", "104400.660000", "104402.660000", "104404.660000", "104406.660000", "104408.660000", "104410.660000", "104412.660000", "104414.660000", "104416.660000", "104418.660000", "104420.660000", "104422.660000", "104424.660000", "104426.660000", "104428.660000", "104430.660000", "104432.660000", "104434.660000", "104436.660000", "104438.660000", "104440.660000", "104442.660000", "104444.660000", "104446.660000", "104448.660000", "104450.660000", "104452.660000", "104454.660000", "104456.660000", "104458.660000", "104500.660000", "104502.660000", "104504.660000", "104506.660000", "104508.660000", "104510.660000", "104512.660000", "104514.660000", "104516.660000", "104518.660000", "104520.660000", "104522.660000", "104524.660000", "104526.660000", "104528.660000", "104530.660000", "104532.660000", "104534.660000", "104536.660000", "104538.660000", "104540.660000", "104542.660000", "104544.660000", "104546.660000", "104548.660000", "104550.660000", "104552.660000", "104554.660000", "104556.660000", "104558.660000", "104600.660000", "104602.660000", "104604.660000", "104606.660000", "104608.660000", "104610.660000", "104612.660000", "104614.660000", "104616.660000", "104618.660000", "104620.660000", "104622.660000", "104624.660000", "104626.660000", "104628.660000", "104630.660000", "104632.660000", "104634.660000", "104636.660000", "104638.660000", "104640.660000", "104642.660000", "104644.660000", "104646.660000", "104648.660000", "104650.660000", "104652.660000", "104654.660000", "104656.660000", "104658.660000", "104700.660000", "104702.660000", "104704.660000", "104706.660000", "104708.660000", "104710.660000", "104712.660000", "104714.660000", "104716.660000", "104718.660000", "104720.660000", "104722.660000", "104724.660000", "104726.660000", "104728.660000", "104730.660000", "104732.660000", "104734.660000", "104736.660000", "104738.660000", "104740.660000", "104742.660000", "104744.660000", "104746.660000", "104748.660000", "104750.660000", "104752.660000", "104754.660000", "104756.660000", "104758.660000", "104800.660000", "104802.660000", "104804.660000", "104806.660000", "104808.660000", "104810.660000", "104812.660000", "104814.660000", "104816.660000", "104818.660000", "104820.660000", "104822.660000", "104824.660000", "104826.660000", "104828.660000", "104830.660000", "104832.660000", "104834.660000", "104836.660000", "104838.660000", "104840.660000", "104842.660000", "104844.660000", "104846.660000", "104848.660000", "104850.660000", "104852.660000", "104854.660000", "104856.660000", "104858.660000", "104900.660000", "104902.660000", "104904.660000", "104906.660000", "104908.660000", "104910.660000", "104912.660000", "104914.660000", "104916.660000", "104918.660000", "104920.660000", "104922.660000"],
      "ContentTime": ["104142.889000", "104144.385000", "104146.384000", "104148.384000", "104150.386000", "104152.384000", "104154.384000", "104156.384000", "104158.384000", "104200.385000", "104202.384000", "104204.384000", "104206.385000", "104208.385000", "104210.385000", "104212.384000", "104214.384000", "104216.384000", "104218.384000", "104220.384000", "104222.384000", "104224.386000", "104226.384000", "104228.385000", "104230.384000", "104232.384000", "104234.384000", "104236.384000", "104238.384000", "104240.384000", "104242.385000", "104244.384000", "104246.384000", "104248.384000", "104250.384000", "104252.384000", "104254.385000", "104256.384000", "104258.384000", "104300.385000", "104302.384000", "104304.384000", "104306.385000", "104308.384000", "104310.385000", "104312.384000", "104314.384000", "104316.385000", "104318.385000", "104320.385000", "104322.385000", "104324.385000", "104326.385000", "104328.384000", "104330.384000", "104332.384000", "104334.386000", "104336.385000", "104338.385000", "104340.384000", "104342.384000", "104344.384000", "104346.385000", "104348.385000", "104350.385000", "104352.385000", "104354.385000", "104356.384000", "104358.384000", "104400.384000", "104402.384000", "104404.384000", "104406.385000", "104408.385000", "104410.385000", "104412.384000", "104414.384000", "104416.385000", "104418.384000", "104420.384000", "104422.384000", "104424.385000", "104426.386000", "104428.385000", "104430.386000", "104432.385000", "104434.385000", "104436.387000", "104438.384000", "104440.384000", "104442.384000", "104444.385000", "104446.385000", "104448.384000", "104450.384000", "104452.385000", "104454.384000", "104456.384000", "104458.384000", "104500.385000", "104502.385000", "104504.384000", "104506.384000", "104508.384000", "104510.384000", "104512.384000", "104514.385000", "104516.385000", "104518.385000", "104520.386000", "104522.384000", "104524.384000", "104526.384000", "104528.385000", "104530.384000", "104532.384000", "104534.384000", "104536.385000", "104538.386000", "104540.385000", "104542.384000", "104544.384000", "104546.385000", "104548.385000", "104550.384000", "104552.384000", "104554.385000", "104556.385000", "104558.384000", "104600.384000", "104602.384000", "104604.384000", "104606.384000", "104608.384000", "104610.384000", "104612.385000", "104614.385000", "104616.385000", "104618.384000", "104620.385000", "104622.384000", "104624.385000", "104626.384000", "104628.385000", "104630.386000", "104632.384000", "104634.384000", "104636.385000", "104638.384000", "104640.385000", "104642.385000", "104644.384000", "104646.385000", "104648.386000", "104650.385000", "104652.384000", "104654.384000", "104656.384000", "104658.385000", "104700.385000", "104702.384000", "104704.385000", "104706.385000", "104708.384000", "104710.384000", "104712.385000", "104714.385000", "104716.385000", "104718.384000", "104720.385000", "104722.385000", "104724.385000", "104726.385000", "104728.384000", "104730.384000", "104732.384000", "104734.385000", "104736.385000", "104738.385000", "104740.385000", "104742.385000", "104744.385000", "104746.384000", "104748.385000", "104750.384000", "104752.385000", "104754.384000", "104756.386000", "104758.385000", "104800.404000", "104802.385000", "104804.384000", "104806.385000", "104808.384000", "104810.384000", "104812.384000", "104814.386000", "104816.385000", "104818.385000", "104820.385000", "104822.384000", "104824.384000", "104826.385000", "104828.384000", "104830.384000", "104832.385000", "104834.384000", "104836.384000", "104838.384000", "104840.385000", "104842.384000", "104844.385000", "104846.384000", "104848.386000", "104850.386000", "104852.384000", "104854.384000", "104856.385000", "104858.385000", "104900.384000", "104902.384000", "104904.384000", "104906.385000", "104908.385000", "104910.384000", "104912.384000", "104914.384000", "104916.385000", "104918.384000", "104920.385000", "104922.385000", "104924.017000"],
      "InstanceCreationTime": ["104142.889000", "104144.385000", "104146.384000", "104148.384000", "104150.386000", "104152.384000", "104154.384000", "104156.384000", "104158.384000", "104200.385000", "104202.384000", "104204.384000", "104206.385000", "104208.385000", "104210.385000", "104212.384000", "104214.384000", "104216.384000", "104218.384000", "104220.384000", "104222.384000", "104224.386000", "104226.384000", "104228.385000", "104230.384000", "104232.384000", "104234.384000", "104236.384000", "104238.384000", "104240.384000", "104242.385000", "104244.384000", "104246.384000", "104248.384000", "104250.384000", "104252.384000", "104254.385000", "104256.384000", "104258.384000", "104300.385000", "104302.384000", "104304.384000", "104306.385000", "104308.384000", "104310.385000", "104312.384000", "104314.384000", "104316.385000", "104318.385000", "104320.385000", "104322.385000", "104324.385000", "104326.385000", "104328.384000", "104330.384000", "104332.384000", "104334.386000", "104336.385000", "104338.385000", "104340.384000", "104342.384000", "104344.384000", "104346.385000", "104348.385000", "104350.385000", "104352.385000", "104354.385000", "104356.384000", "104358.384000", "104400.384000", "104402.384000", "104404.384000", "104406.385000", "104408.385000", "104410.385000", "104412.384000", "104414.384000", "104416.385000", "104418.384000", "104420.384000", "104422.384000", "104424.385000", "104426.386000", "104428.385000", "104430.386000", "104432.385000", "104434.385000", "104436.387000", "104438.384000", "104440.384000", "104442.384000", "104444.385000", "104446.385000", "104448.384000", "104450.384000", "104452.385000", "104454.384000", "104456.384000", "104458.384000", "104500.385000", "104502.385000", "104504.384000", "104506.384000", "104508.384000", "104510.384000", "104512.384000", "104514.385000", "104516.385000", "104518.385000", "104520.386000", "104522.384000", "104524.384000", "104526.384000", "104528.385000", "104530.384000", "104532.384000", "104534.384000", "104536.385000", "104538.386000", "104540.385000", "104542.384000", "104544.384000", "104546.385000", "104548.385000", "104550.384000", "104552.384000", "104554.385000", "104556.385000", "104558.384000", "104600.384000", "104602.384000", "104604.384000", "104606.384000", "104608.384000", "104610.384000", "104612.385000", "104614.385000", "104616.385000", "104618.384000", "104620.385000", "104622.384000", "104624.385000", "104626.384000", "104628.385000", "104630.386000", "104632.384000", "104634.384000", "104636.385000", "104638.384000", "104640.385000", "104642.385000", "104644.384000", "104646.385000", "104648.386000", "104650.385000", "104652.384000", "104654.384000", "104656.384000", "104658.385000", "104700.385000", "104702.384000", "104704.385000", "104706.385000", "104708.384000", "104710.384000", "104712.385000", "104714.385000", "104716.385000", "104718.384000", "104720.385000", "104722.385000", "104724.385000", "104726.385000", "104728.384000", "104730.384000", "104732.384000", "104734.385000", "104736.385000", "104738.385000", "104740.385000", "104742.385000", "104744.385000", "104746.384000", "104748.385000", "104750.384000", "104752.385000", "104754.384000", "104756.386000", "104758.385000", "104800.404000", "104802.385000", "104804.384000", "104806.385000", "104808.384000", "104810.384000", "104812.384000", "104814.386000", "104816.385000", "104818.385000", "104820.385000", "104822.384000", "104824.384000", "104826.385000", "104828.384000", "104830.384000", "104832.385000", "104834.384000", "104836.384000", "104838.384000", "104840.385000", "104842.384000", "104844.385000", "104846.384000", "104848.386000", "104850.386000", "104852.384000", "104854.384000", "104856.385000", "104858.385000", "104900.384000", "104902.384000", "104904.384000", "104906.385000", "104908.385000", "104910.384000", "104912.384000", "104914.384000", "104916.385000", "104918.384000", "104920.385000", "104922.385000", "104924.017000"],
      "InstanceNumber": [1, 2, 3, 4, 5, 6, 7, 8, 9, 10, 11, 12, 13, 14, 15, 16, 17, 18, 19, 20, 21, 22, 23, 24, 25, 26, 27, 28, 29, 30, 31, 32, 33, 34, 35, 36, 37, 38, 39, 40, 41, 42, 43, 44, 45, 46, 47, 48, 49, 50, 51, 52, 53, 54, 55, 56, 57, 58, 59, 60, 61, 62, 63, 64, 65, 66, 67, 68, 69, 70, 71, 72, 73, 74, 75, 76, 77, 78, 79, 80, 81, 82, 83, 84, 85, 86, 87, 88, 89, 90, 91, 92, 93, 94, 95, 96, 97, 98, 99, 100, 101, 102, 103, 104, 105, 106, 107, 108, 109, 110, 111, 112, 113, 114, 115, 116, 117, 118, 119, 120, 121, 122, 123, 124, 125, 126, 127, 128, 129, 130, 131, 132, 133, 134, 135, 136, 137, 138, 139, 140, 141, 142, 143, 144, 145, 146, 147, 148, 149, 150, 151, 152, 153, 154, 155, 156, 157, 158, 159, 160, 161, 162, 163, 164, 165, 166, 167, 168, 169, 170, 171, 172, 173, 174, 175, 176, 177, 178, 179, 180, 181, 182, 183, 184, 185, 186, 187, 188, 189, 190, 191, 192, 193, 194, 195, 196, 197, 198, 199, 200, 201, 202, 203, 204, 205, 206, 207, 208, 209, 210, 211, 212, 213, 214, 215, 216, 217, 218, 219, 220, 221, 222, 223, 224, 225, 226, 227, 228, 229, 230, 231, 232],
      "LargestImagePixelValue": [4060, 3967, 3959, 3975, 3917, 3938, 3927, 3926, 3889, 3901, 3922, 3910, 3920, 3928, 3958, 3918, 3928, 3921, 3857, 3893, 3845, 3852, 3867, 3897, 3899, 3918, 3946, 3964, 3983, 3874, 3922, 3943, 3897, 3801, 3692, 3704, 3645, 3667, 3675, 3746, 3768, 3731, 3674, 3777, 3662, 3658, 3783, 3680, 3621, 3985, 3985, 4086, 4050, 4026, 3998, 4095, 3779, 3703, 3625, 3634, 3636, 3653, 3644, 3617, 3668, 3747, 3781, 3833, 3847, 3859, 3865, 3848, 3835, 3843, 3850, 3856, 3797, 3839, 3827, 3802, 3838, 3697, 3669, 3713, 3746, 3680, 3699, 3702, 3649, 4053, 3953, 3959, 4046, 3952, 3851, 3974, 3619, 3665, 3704, 3751, 3706, 3724, 3759, 3723, 3744, 3641, 3750, 3702, 3717, 3709, 3646, 3693, 3706, 3730, 3751, 3746, 3731, 3730, 3757, 3748, 3767, 3742, 3713, 3741, 3703, 3705, 3712, 3715, 3707, 3717, 3702, 3691, 3711, 3733, 3712, 3746, 3717, 3805, 3798, 3879, 3922, 3905, 3950, 3887, 3847, 3776, 3744, 3715, 3706, 3690, 3668, 3687, 3650, 3681, 3657, 3696, 3637, 3662, 3643, 3646, 3701, 3609, 3663, 3668, 3703, 3632, 3676, 3658, 3672, 3690, 3625, 3657, 3627, 3711, 3648, 3705, 3684, 3832, 3790, 3980, 4039, 3971, 3946, 4090, 4019, 3893, 3798, 3834, 3784, 3799, 3787, 3799, 3766, 3714, 3730, 3731, 3718, 3725, 3769, 3741, 3748, 3691, 3643, 3630, 3658, 3649, 3659, 3668, 3661, 3718, 3756, 3763, 3751, 3767, 3758, 3718, 3763, 3758, 3771, 3718, 3725, 3718, 3735, 3750, 3741, 3741, 3741, 3731, 3697, 3677, 3683, 3725],
      "WindowCenter": [859.0, 857.0, 856.0, 857.0, 856.0, 856.0, 855.0, 855.0, 856.0, 855.0, 856.0, 858.0, 858.0, 858.0, 858.0, 858.0, 858.0, 859.0, 860.0, 860.0, 859.0, 858.0, 857.0, 857.0, 857.0, 857.0, 859.0, 859.0, 860.0, 860.0, 859.0, 859.0, 859.0, 860.0, 862.0, 864.0, 862.0, 861.0, 860.0, 860.0, 860.0, 860.0, 861.0, 861.0, 859.0, 859.0, 858.0, 857.0, 856.0, 859.0, 859.0, 862.0, 860.0, 860.0, 859.0, 857.0, 858.0, 857.0, 857.0, 857.0, 856.0, 857.0, 856.0, 856.0, 858.0, 859.0, 858.0, 859.0, 858.0, 858.0, 857.0, 857.0, 857.0, 859.0, 860.0, 861.0, 859.0, 857.0, 857.0, 856.0, 857.0, 858.0, 859.0, 859.0, 857.0, 857.0, 857.0, 857.0, 856.0, 860.0, 860.0, 860.0, 861.0, 859.0, 858.0, 856.0, 855.0, 856.0, 856.0, 857.0, 858.0, 857.0, 858.0, 858.0, 859.0, 859.0, 858.0, 858.0, 858.0, 858.0, 858.0, 857.0, 857.0, 857.0, 857.0, 856.0, 856.0, 856.0, 856.0, 857.0, 858.0, 858.0, 858.0, 858.0, 858.0, 857.0, 856.0, 856.0, 856.0, 856.0, 857.0, 857.0, 857.0, 857.0, 857.0, 856.0, 857.0, 860.0, 862.0, 862.0, 861.0, 861.0, 860.0, 860.0, 859.0, 860.0, 860.0, 860.0, 860.0, 859.0, 859.0, 859.0, 860.0, 861.0, 861.0, 860.0, 860.0, 860.0, 860.0, 860.0, 859.0, 859.0, 860.0, 860.0, 859.0, 857.0, 858.0, 857.0, 859.0, 860.0, 860.0, 859.0, 858.0, 858.0, 859.0, 860.0, 861.0, 862.0, 861.0, 862.0, 862.0, 861.0, 861.0, 862.0, 860.0, 860.0, 859.0, 860.0, 860.0, 859.0, 859.0, 859.0, 860.0, 859.0, 859.0, 858.0, 858.0, 858.0, 859.0, 858.0, 859.0, 859.0, 860.0, 860.0, 860.0, 859.0, 859.0, 859.0, 857.0, 860.0, 861.0, 862.0, 862.0, 861.0, 861.0, 860.0, 860.0, 860.0, 859.0, 859.0, 859.0, 859.0, 860.0, 860.0, 860.0, 861.0, 862.0, 860.0, 859.0, 859.0, 860.0, 862.0],
      "WindowWidth": [1879.0, 1871.0, 1870.0, 1872.0, 1869.0, 1868.0, 1867.0, 1867.0, 1868.0, 1866.0, 1869.0, 1873.0, 1875.0, 1874.0, 1875.0, 1875.0, 1874.0, 1878.0, 1879.0, 1878.0, 1875.0, 1874.0, 1872.0, 1870.0, 1870.0, 1872.0, 1876.0, 1878.0, 1880.0, 1878.0, 1877.0, 1877.0, 1876.0, 1880.0, 1884.0, 1889.0, 1883.0, 1880.0, 1878.0, 1878.0, 1880.0, 1879.0, 1880.0, 1880.0, 1876.0, 1874.0, 1872.0, 1869.0, 1867.0, 1876.0, 1878.0, 1885.0, 1881.0, 1881.0, 1877.0, 1874.0, 1874.0, 1870.0, 1870.0, 1870.0, 1868.0, 1869.0, 1866.0, 1867.0, 1872.0, 1874.0, 1873.0, 1874.0, 1874.0, 1873.0, 1870.0, 1870.0, 1870.0, 1875.0, 1879.0, 1881.0, 1876.0, 1871.0, 1870.0, 1868.0, 1869.0, 1871.0, 1875.0, 1876.0, 1871.0, 1870.0, 1871.0, 1868.0, 1867.0, 1880.0, 1879.0, 1879.0, 1883.0, 1876.0, 1874.0, 1870.0, 1865.0, 1866.0, 1867.0, 1870.0, 1873.0, 1871.0, 1873.0, 1873.0, 1876.0, 1874.0, 1874.0, 1873.0, 1873.0, 1874.0, 1872.0, 1870.0, 1870.0, 1871.0, 1871.0, 1868.0, 1867.0, 1868.0, 1867.0, 1870.0, 1872.0, 1872.0, 1872.0, 1873.0, 1872.0, 1869.0, 1868.0, 1868.0, 1866.0, 1868.0, 1870.0, 1869.0, 1869.0, 1870.0, 1869.0, 1868.0, 1870.0, 1877.0, 1882.0, 1883.0, 1881.0, 1881.0, 1880.0, 1879.0, 1877.0, 1877.0, 1877.0, 1877.0, 1877.0, 1875.0, 1874.0, 1875.0, 1878.0, 1880.0, 1880.0, 1878.0, 1876.0, 1877.0, 1878.0, 1875.0, 1875.0, 1872.0, 1877.0, 1877.0, 1874.0, 1868.0, 1870.0, 1869.0, 1874.0, 1878.0, 1875.0, 1875.0, 1870.0, 1871.0, 1876.0, 1878.0, 1880.0, 1883.0, 1882.0, 1883.0, 1884.0, 1880.0, 1881.0, 1884.0, 1880.0, 1878.0, 1874.0, 1877.0, 1876.0, 1875.0, 1875.0, 1876.0, 1875.0, 1874.0, 1873.0, 1872.0, 1872.0, 1872.0, 1874.0, 1872.0, 1872.0, 1874.0, 1877.0, 1876.0, 1875.0, 1874.0, 1874.0, 1873.0, 1869.0, 1877.0, 1881.0, 1884.0, 1883.0, 1881.0, 1879.0, 1877.0, 1879.0, 1877.0, 1876.0, 1873.0, 1874.0, 1875.0, 1876.0, 1876.0, 1877.0, 1880.0, 1882.0, 1878.0, 1875.0, 1875.0, 1878.0, 1883.0]
    },
    "slices": {}
  }
}