{
  "AcquisitionMatrixPE": 100,
  "AcquisitionNumber": 1,
  "AcquisitionTime": "11:11:28.560000",
  "BandwidthPerPixelPhaseEncode": 18.519,
  "BaseResolution": 100,
  "BodyPartExamined": "BRAIN",
  "ConsistencyInfo": "N4_VE11C_LATEST_20160120",
  "ConversionSoftware": "dcm2niix",
  "ConversionSoftwareVersion": "v1.0.20180622 GCC4.9.2",
  "DerivedVendorReportedEchoSpacing": 0.000539986,
  "DeviceSerialNumber": "166078",
  "DwellTime": 2.1e-06,
  "EchoTime": 0.034,
  "EchoTrainLength": 100,
  "EffectiveEchoSpacing": 0.000539986,
  "FlipAngle": 90,
  "ImageOrientationPatientDICOM": [1, 0, 0, 0, 0.999391, -0.0348995],
  "ImageType": [
    "ORIGINAL",
    "PRIMARY",
    "M",
    "ND",
    "MOSAIC"
],
  "InPlanePhaseEncodingDirectionDICOM": "COL",
  "InstitutionAddress": "Street_StreetNo_Bei_Jing_District_CN_ZIP",
  "InstitutionName": "BeiJing_Normal_University",
  "InstitutionalDepartmentName": "Department",
  "MRAcquisitionType": "2D",
  "MagneticFieldStrength": 3,
  "Manufacturer": "Siemens",
  "ManufacturersModelName": "Prisma",
  "Modality": "MR",
  "MultibandAccelerationFactor": 3,
  "PartialFourier": 1,
  "PatientPosition": "HFS",
  "PercentPhaseFOV": 100,
  "PhaseEncodingDirection": "j-",
  "PhaseEncodingSteps": 100,
  "PhaseResolution": 1,
  "PixelBandwidth": 2380,
  "ProcedureStepDescription": "BNU_P2018_64CH_Liu.Jia",
  "ProtocolName": "bold_100x100_s3_2x2x2_232",
  "PulseSequenceDetails": "%SiemensSeq%_ep2d_bold",
  "ReceiveCoilActiveElements": "HC1-7;NC1",
  "ReceiveCoilName": "HeadNeck_64",
  "ReconMatrixPE": 100,
  "RepetitionTime": 2,
  "SAR": 0.0654608,
  "ScanOptions": "FS",
  "ScanningSequence": "EP",
  "SequenceName": "_epfid2d1_100",
  "SequenceVariant": "SK",
  "SeriesDescription": "bold_100x100_s3_2x2x2_232",
  "SeriesNumber": 10,
  "ShimSetting": [-5467, -11458, -1195, 322, -50, -94, -38, 102],
  "SliceThickness": 2,
  "SliceTiming": [1.485, 0, 0.99, 0.0825, 1.0725, 0.165, 1.155, 0.2475, 1.2375, 0.33, 1.32, 0.4125, 1.4025, 0.5775, 1.5675, 0.66, 1.65, 0.7425, 1.7325, 0.825, 1.815, 0.9075, 1.8975, 0.495, 1.485, 0, 0.99, 0.0825, 1.0725, 0.165, 1.155, 0.2475, 1.2375, 0.33, 1.32, 0.4125, 1.4025, 0.5775, 1.5675, 0.66, 1.65, 0.7425, 1.7325, 0.825, 1.815, 0.9075, 1.8975, 0.495, 1.485, 0, 0.99, 0.0825, 1.0725, 0.165, 1.155, 0.2475, 1.2375, 0.33, 1.32, 0.4125, 1.4025, 0.5775, 1.5675, 0.66, 1.65, 0.7425, 1.7325, 0.825, 1.815, 0.9075, 1.8975, 0.495],
  "SoftwareVersions": "syngo_MR_E11",
  "SpacingBetweenSlices": 2,
  "StationName": "AWP166078",
  "TaskName": "motor",
  "TotalReadoutTime": 0.0534586,
  "TxRefAmp": 218.639,
  "dcmmeta_affine": [
    [-2.0, 0.0, 0.0, 100.0],
    [0.0, 1.998781681060791, -0.06979899853467941, -93.30821990966797],
    [0.0, 0.06979899853467941, 1.9987815618515015, -54.92629623413086],
    [0.0, 0.0, 0.0, 1.0]
],
  "dcmmeta_reorient_transform": [
    [0.0, -1.0, 0.0, 99.0],
    [1.0, 0.0, 0.0, 0.0],
    [0.0, 0.0, 1.0, 0.0],
    [0.0, 0.0, 0.0, 1.0]
],
  "dcmmeta_shape": [100, 100, 72, 232],
  "dcmmeta_slice_dim": 2,
  "dcmmeta_version": 0.6,
  "global": {
    "const": {
      "AcquisitionMatrix": [100, 0, 0, 100],
      "AngioFlag": "N",
      "BitsAllocated": 16,
      "BitsStored": 12,
      "BodyPartExamined": "BRAIN",
      "Columns": 900,
      "EchoNumbers": 1,
      "EchoTime": 34.0,
      "EchoTrainLength": 100,
      "FlipAngle": 90.0,
      "HighBit": 11,
      "ImageOrientationPatient": [1.0, 0.0, 0.0, 0.0, 0.99939082696012, -0.0348994983914],
      "ImagePositionPatient": [-900.0, -904.08382529591, -20.096596925046],
      "ImageType": [
        "ORIGINAL",
        "PRIMARY",
        "M",
        "ND",
        "MOSAIC"
],
      "ImagedNucleus": "1H",
      "ImagingFrequency": 123.257805,
      "InPlanePhaseEncodingDirection": "COL",
      "MRAcquisitionType": "2D",
      "MagneticFieldStrength": 3.0,
      "Manufacturer": "SIEMENS",
      "ManufacturerModelName": "Prisma",
      "Modality": "MR",
      "NumberOfAverages": 1.0,
      "NumberOfPhaseEncodingSteps": 100,
      "PercentPhaseFieldOfView": 100.0,
      "PercentSampling": 100.0,
      "PerformedProcedureStepStartTime": "101911.583000",
      "PhotometricInterpretation": "MONOCHROME2",
      "PixelBandwidth": 2380.0,
      "PixelRepresentation": 0,
      "PixelSpacing": [2.0, 2.0],
      "ProtocolName": "bold_100x100_s3_2x2x2_232",
      "RepetitionTime": 2000.0,
      "Rows": 900,
      "SAR": 0.06546080980599,
      "SamplesPerPixel": 1,
      "ScanOptions": "FS",
      "ScanningSequence": "EP",
      "SequenceName": "*epfid2d1_100",
      "SequenceVariant": "SK",
      "SeriesDescription": "bold_100x100_s3_2x2x2_232",
      "SeriesNumber": 10,
      "SeriesTime": "111131.159000",
      "SliceLocation": -51.6364266266,
      "SliceThickness": 2.0,
      "SmallestImagePixelValue": 0,
      "SoftwareVersions": "syngo MR E11",
      "SpacingBetweenSlices": 1.9999999531306,
      "SpecificCharacterSet": "ISO_IR 100",
      "StudyID": "1",
      "StudyTime": "101911.500000",
      "TransmitCoilName": "Body",
      "VariableFlipAngleFlag": "N",
      "WindowCenterWidthExplanation": "Algo1",
      "dBdt": 0.0},
    "slices": {}
  },
  "time": {
    "samples": {
      "AcquisitionNumber": [1, 2, 3, 4, 5, 6, 7, 8, 9, 10, 11, 12, 13, 14, 15, 16, 17, 18, 19, 20, 21, 22, 23, 24, 25, 26, 27, 28, 29, 30, 31, 32, 33, 34, 35, 36, 37, 38, 39, 40, 41, 42, 43, 44, 45, 46, 47, 48, 49, 50, 51, 52, 53, 54, 55, 56, 57, 58, 59, 60, 61, 62, 63, 64, 65, 66, 67, 68, 69, 70, 71, 72, 73, 74, 75, 76, 77, 78, 79, 80, 81, 82, 83, 84, 85, 86, 87, 88, 89, 90, 91, 92, 93, 94, 95, 96, 97, 98, 99, 100, 101, 102, 103, 104, 105, 106, 107, 108, 109, 110, 111, 112, 113, 114, 115, 116, 117, 118, 119, 120, 121, 122, 123, 124, 125, 126, 127, 128, 129, 130, 131, 132, 133, 134, 135, 136, 137, 138, 139, 140, 141, 142, 143, 144, 145, 146, 147, 148, 149, 150, 151, 152, 153, 154, 155, 156, 157, 158, 159, 160, 161, 162, 163, 164, 165, 166, 167, 168, 169, 170, 171, 172, 173, 174, 175, 176, 177, 178, 179, 180, 181, 182, 183, 184, 185, 186, 187, 188, 189, 190, 191, 192, 193, 194, 195, 196, 197, 198, 199, 200, 201, 202, 203, 204, 205, 206, 207, 208, 209, 210, 211, 212, 213, 214, 215, 216, 217, 218, 219, 220, 221, 222, 223, 224, 225, 226, 227, 228, 229, 230, 231, 232],
      "AcquisitionTime": ["111128.560000", "111130.560000", "111132.560000", "111134.560000", "111136.560000", "111138.560000", "111140.560000", "111142.560000", "111144.560000", "111146.560000", "111148.560000", "111150.560000", "111152.560000", "111154.560000", "111156.560000", "111158.560000", "111200.560000", "111202.560000", "111204.560000", "111206.560000", "111208.560000", "111210.560000", "111212.560000", "111214.560000", "111216.560000", "111218.560000", "111220.560000", "111222.560000", "111224.560000", "111226.560000", "111228.560000", "111230.560000", "111232.560000", "111234.560000", "111236.560000", "111238.560000", "111240.560000", "111242.560000", "111244.560000", "111246.560000", "111248.560000", "111250.560000", "111252.560000", "111254.560000", "111256.560000", "111258.560000", "111300.560000", "111302.560000", "111304.560000", "111306.560000", "111308.560000", "111310.560000", "111312.560000", "111314.560000", "111316.560000", "111318.560000", "111320.560000", "111322.560000", "111324.560000", "111326.560000", "111328.560000", "111330.560000", "111332.560000", "111334.560000", "111336.560000", "111338.560000", "111340.560000", "111342.560000", "111344.560000", "111346.560000", "111348.560000", "111350.560000", "111352.560000", "111354.560000", "111356.560000", "111358.560000", "111400.560000", "111402.560000", "111404.560000", "111406.560000", "111408.560000", "111410.560000", "111412.560000", "111414.560000", "111416.560000", "111418.560000", "111420.560000", "111422.560000", "111424.560000", "111426.560000", "111428.560000", "111430.560000", "111432.560000", "111434.560000", "111436.560000", "111438.560000", "111440.560000", "111442.560000", "111444.560000", "111446.560000", "111448.560000", "111450.560000", "111452.560000", "111454.560000", "111456.560000", "111458.560000", "111500.560000", "111502.560000", "111504.560000", "111506.560000", "111508.560000", "111510.560000", "111512.560000", "111514.560000", "111516.560000", "111518.560000", "111520.560000", "111522.560000", "111524.560000", "111526.560000", "111528.560000", "111530.560000", "111532.560000", "111534.560000", "111536.560000", "111538.560000", "111540.560000", "111542.560000", "111544.560000", "111546.560000", "111548.560000", "111550.560000", "111552.560000", "111554.560000", "111556.560000", "111558.560000", "111600.560000", "111602.560000", "111604.560000", "111606.560000", "111608.560000", "111610.560000", "111612.560000", "111614.560000", "111616.560000", "111618.560000", "111620.560000", "111622.560000", "111624.560000", "111626.560000", "111628.560000", "111630.560000", "111632.560000", "111634.560000", "111636.560000", "111638.560000", "111640.560000", "111642.560000", "111644.560000", "111646.560000", "111648.560000", "111650.560000", "111652.560000", "111654.560000", "111656.560000", "111658.560000", "111700.560000", "111702.560000", "111704.560000", "111706.560000", "111708.560000", "111710.560000", "111712.560000", "111714.560000", "111716.560000", "111718.560000", "111720.560000", "111722.560000", "111724.560000", "111726.560000", "111728.560000", "111730.560000", "111732.560000", "111734.560000", "111736.560000", "111738.560000", "111740.560000", "111742.560000", "111744.560000", "111746.560000", "111748.560000", "111750.560000", "111752.560000", "111754.560000", "111756.560000", "111758.560000", "111800.560000", "111802.560000", "111804.560000", "111806.560000", "111808.560000", "111810.560000", "111812.560000", "111814.560000", "111816.560000", "111818.560000", "111820.560000", "111822.560000", "111824.560000", "111826.560000", "111828.560000", "111830.560000", "111832.560000", "111834.560000", "111836.560000", "111838.560000", "111840.560000", "111842.560000", "111844.560000", "111846.560000", "111848.560000", "111850.560000", "111852.560000", "111854.560000", "111856.560000", "111858.560000", "111900.560000", "111902.560000", "111904.560000", "111906.560000", "111908.560000", "111910.560000"],
      "ContentTime": ["111131.163000", "111132.659000", "111134.659000", "111136.659000", "111138.659000", "111140.659000", "111142.659000", "111144.659000", "111146.658000", "111148.658000", "111150.660000", "111152.660000", "111154.660000", "111156.659000", "111158.659000", "111200.659000", "111202.658000", "111204.659000", "111206.658000", "111208.659000", "111210.660000", "111212.659000", "111214.659000", "111216.659000", "111218.659000", "111220.659000", "111222.658000", "111224.659000", "111226.659000", "111228.659000", "111230.659000", "111232.659000", "111234.660000", "111236.659000", "111238.658000", "111240.659000", "111242.659000", "111244.660000", "111246.660000", "111248.659000", "111250.659000", "111252.659000", "111254.658000", "111256.658000", "111258.659000", "111300.659000", "111302.659000", "111304.660000", "111306.660000", "111308.659000", "111310.660000", "111312.659000", "111314.659000", "111316.658000", "111318.659000", "111320.660000", "111322.659000", "111324.659000", "111326.660000", "111328.659000", "111330.659000", "111332.659000", "111334.659000", "111336.660000", "111338.660000", "111340.659000", "111342.659000", "111344.659000", "111346.659000", "111348.658000", "111350.658000", "111352.660000", "111354.659000", "111356.659000", "111358.660000", "111400.660000", "111402.660000", "111404.658000", "111406.659000", "111408.659000", "111410.659000", "111412.659000", "111414.660000", "111416.659000", "111418.660000", "111420.659000", "111422.659000", "111424.658000", "111426.658000", "111428.660000", "111430.659000", "111432.659000", "111434.659000", "111436.659000", "111438.659000", "111440.658000", "111442.659000", "111444.660000", "111446.660000", "111448.659000", "111450.660000", "111452.660000", "111454.660000", "111456.660000", "111458.659000", "111500.658000", "111502.660000", "111504.660000", "111506.659000", "111508.660000", "111510.659000", "111512.659000", "111514.658000", "111516.658000", "111518.659000", "111520.660000", "111522.660000", "111524.660000", "111526.659000", "111528.660000", "111530.661000", "111532.658000", "111534.659000", "111536.659000", "111538.660000", "111540.660000", "111542.660000", "111544.659000", "111546.659000", "111548.659000", "111550.658000", "111552.659000", "111554.659000", "111556.659000", "111558.659000", "111600.659000", "111602.659000", "111604.660000", "111606.659000", "111608.659000", "111610.659000", "111612.660000", "111614.659000", "111616.659000", "111618.659000", "111620.659000", "111622.659000", "111624.658000", "111626.659000", "111628.658000", "111630.659000", "111632.660000", "111634.660000", "111636.659000", "111638.659000", "111640.660000", "111642.658000", "111644.659000", "111646.660000", "111648.660000", "111650.660000", "111652.660000", "111654.660000", "111656.660000", "111658.659000", "111700.659000", "111702.659000", "111704.659000", "111706.659000", "111708.659000", "111710.659000", "111712.659000", "111714.659000", "111716.660000", "111718.659000", "111720.658000", "111722.660000", "111724.660000", "111726.660000", "111728.659000", "111730.659000", "111732.659000", "111734.658000", "111736.658000", "111738.659000", "111740.659000", "111742.660000", "111744.670000", "111746.659000", "111748.659000", "111750.659000", "111752.659000", "111754.658000", "111756.659000", "111758.659000", "111800.660000", "111802.660000", "111804.659000", "111806.659000", "111808.660000", "111810.659000", "111812.658000", "111814.660000", "111816.659000", "111818.660000", "111820.659000", "111822.660000", "111824.660000", "111826.660000", "111828.658000", "111830.659000", "111832.660000", "111834.659000", "111836.660000", "111838.660000", "111840.660000", "111842.660000", "111844.658000", "111846.658000", "111848.658000", "111850.660000", "111852.659000", "111854.660000", "111856.659000", "111858.660000", "111900.659000", "111902.658000", "111904.658000", "111906.660000", "111908.659000", "111910.659000", "111912.169000"],
      "InstanceCreationTime": ["111131.163000", "111132.659000", "111134.659000", "111136.659000", "111138.659000", "111140.659000", "111142.659000", "111144.659000", "111146.658000", "111148.658000", "111150.660000", "111152.660000", "111154.660000", "111156.659000", "111158.659000", "111200.659000", "111202.658000", "111204.659000", "111206.658000", "111208.659000", "111210.660000", "111212.659000", "111214.659000", "111216.659000", "111218.659000", "111220.659000", "111222.658000", "111224.659000", "111226.659000", "111228.659000", "111230.659000", "111232.659000", "111234.660000", "111236.659000", "111238.658000", "111240.659000", "111242.659000", "111244.660000", "111246.660000", "111248.659000", "111250.659000", "111252.659000", "111254.658000", "111256.658000", "111258.659000", "111300.659000", "111302.659000", "111304.660000", "111306.660000", "111308.659000", "111310.660000", "111312.659000", "111314.659000", "111316.658000", "111318.659000", "111320.660000", "111322.659000", "111324.659000", "111326.660000", "111328.659000", "111330.659000", "111332.659000", "111334.659000", "111336.660000", "111338.660000", "111340.659000", "111342.659000", "111344.659000", "111346.659000", "111348.658000", "111350.658000", "111352.660000", "111354.659000", "111356.659000", "111358.660000", "111400.660000", "111402.660000", "111404.658000", "111406.659000", "111408.659000", "111410.659000", "111412.659000", "111414.660000", "111416.659000", "111418.660000", "111420.659000", "111422.659000", "111424.658000", "111426.658000", "111428.660000", "111430.659000", "111432.659000", "111434.659000", "111436.659000", "111438.659000", "111440.658000", "111442.659000", "111444.660000", "111446.660000", "111448.659000", "111450.660000", "111452.660000", "111454.660000", "111456.660000", "111458.659000", "111500.658000", "111502.660000", "111504.660000", "111506.659000", "111508.660000", "111510.659000", "111512.659000", "111514.658000", "111516.658000", "111518.659000", "111520.660000", "111522.660000", "111524.660000", "111526.659000", "111528.660000", "111530.661000", "111532.658000", "111534.659000", "111536.659000", "111538.660000", "111540.660000", "111542.660000", "111544.659000", "111546.659000", "111548.659000", "111550.658000", "111552.659000", "111554.659000", "111556.659000", "111558.659000", "111600.659000", "111602.659000", "111604.660000", "111606.659000", "111608.659000", "111610.659000", "111612.660000", "111614.659000", "111616.659000", "111618.659000", "111620.659000", "111622.659000", "111624.658000", "111626.659000", "111628.658000", "111630.659000", "111632.660000", "111634.660000", "111636.659000", "111638.659000", "111640.660000", "111642.658000", "111644.659000", "111646.660000", "111648.660000", "111650.660000", "111652.660000", "111654.660000", "111656.660000", "111658.659000", "111700.659000", "111702.659000", "111704.659000", "111706.659000", "111708.659000", "111710.659000", "111712.659000", "111714.659000", "111716.660000", "111718.659000", "111720.658000", "111722.660000", "111724.660000", "111726.660000", "111728.659000", "111730.659000", "111732.659000", "111734.658000", "111736.658000", "111738.659000", "111740.659000", "111742.660000", "111744.670000", "111746.659000", "111748.659000", "111750.659000", "111752.659000", "111754.658000", "111756.659000", "111758.659000", "111800.660000", "111802.660000", "111804.659000", "111806.659000", "111808.660000", "111810.659000", "111812.658000", "111814.660000", "111816.659000", "111818.660000", "111820.659000", "111822.660000", "111824.660000", "111826.660000", "111828.658000", "111830.659000", "111832.660000", "111834.659000", "111836.660000", "111838.660000", "111840.660000", "111842.660000", "111844.658000", "111846.658000", "111848.658000", "111850.660000", "111852.659000", "111854.660000", "111856.659000", "111858.660000", "111900.659000", "111902.658000", "111904.658000", "111906.660000", "111908.659000", "111910.659000", "111912.169000"],
      "InstanceNumber": [1, 2, 3, 4, 5, 6, 7, 8, 9, 10, 11, 12, 13, 14, 15, 16, 17, 18, 19, 20, 21, 22, 23, 24, 25, 26, 27, 28, 29, 30, 31, 32, 33, 34, 35, 36, 37, 38, 39, 40, 41, 42, 43, 44, 45, 46, 47, 48, 49, 50, 51, 52, 53, 54, 55, 56, 57, 58, 59, 60, 61, 62, 63, 64, 65, 66, 67, 68, 69, 70, 71, 72, 73, 74, 75, 76, 77, 78, 79, 80, 81, 82, 83, 84, 85, 86, 87, 88, 89, 90, 91, 92, 93, 94, 95, 96, 97, 98, 99, 100, 101, 102, 103, 104, 105, 106, 107, 108, 109, 110, 111, 112, 113, 114, 115, 116, 117, 118, 119, 120, 121, 122, 123, 124, 125, 126, 127, 128, 129, 130, 131, 132, 133, 134, 135, 136, 137, 138, 139, 140, 141, 142, 143, 144, 145, 146, 147, 148, 149, 150, 151, 152, 153, 154, 155, 156, 157, 158, 159, 160, 161, 162, 163, 164, 165, 166, 167, 168, 169, 170, 171, 172, 173, 174, 175, 176, 177, 178, 179, 180, 181, 182, 183, 184, 185, 186, 187, 188, 189, 190, 191, 192, 193, 194, 195, 196, 197, 198, 199, 200, 201, 202, 203, 204, 205, 206, 207, 208, 209, 210, 211, 212, 213, 214, 215, 216, 217, 218, 219, 220, 221, 222, 223, 224, 225, 226, 227, 228, 229, 230, 231, 232],
      "LargestImagePixelValue": [3724, 3714, 3697, 3711, 3704, 3718, 3698, 3702, 3730, 3692, 3616, 3660, 3685, 3673, 3644, 3677, 3693, 3798, 3763, 3781, 3732, 3746, 3763, 3739, 3762, 3697, 3715, 3763, 3718, 3647, 3744, 3707, 3795, 4089, 3975, 3993, 3968, 4024, 4003, 3873, 3750, 3744, 3741, 3755, 3721, 3733, 3740, 3744, 3717, 3745, 3696, 3716, 3741, 3727, 3738, 3758, 3742, 3733, 3739, 3724, 3737, 3712, 3751, 3765, 3725, 3700, 3648, 3698, 3772, 3744, 3772, 3724, 3733, 3742, 3698, 3730, 3718, 3708, 3701, 3684, 3719, 3715, 3668, 3717, 3686, 3695, 3682, 3679, 3675, 3696, 3741, 3718, 3694, 3731, 3759, 3731, 3657, 3666, 3705, 3752, 3800, 3785, 3612, 3657, 3665, 3774, 3641, 4018, 3961, 3864, 4066, 3908, 4010, 3873, 3792, 3829, 3703, 3810, 3807, 3828, 3778, 4095, 4056, 4081, 4095, 4015, 3998, 4088, 4095, 3967, 3843, 3751, 3850, 3846, 3794, 3757, 3828, 3865, 3863, 3827, 3836, 3855, 3843, 3843, 3862, 3867, 3839, 3882, 3861, 3878, 3866, 3946, 3901, 3925, 3910, 3918, 3866, 3958, 3907, 3890, 3914, 3904, 3885, 3899, 3852, 3821, 3791, 3790, 3904, 3800, 3854, 3832, 3878, 3863, 3864, 3873, 3883, 3861, 3948, 3915, 3917, 3945, 3916, 3891, 3916, 3917, 3828, 3882, 3881, 3847, 3855, 3873, 3909, 4023, 3961, 4040, 3994, 3884, 3992, 3967, 4029, 3795, 3759, 3732, 3760, 3774, 3801, 3744, 3791, 3781, 3781, 3788, 3756, 3780, 3747, 3767, 3788, 3761, 3743, 3748, 3774, 3742, 3733, 3769, 3755, 3794, 3788, 3777, 3796, 3805, 3791, 3821],
      "WindowCenter": [858.0, 856.0, 857.0, 859.0, 859.0, 860.0, 859.0, 859.0, 858.0, 858.0, 859.0, 861.0, 860.0, 859.0, 859.0, 859.0, 860.0, 862.0, 861.0, 861.0, 858.0, 859.0, 859.0, 859.0, 859.0, 858.0, 859.0, 859.0, 859.0, 858.0, 859.0, 858.0, 861.0, 864.0, 862.0, 864.0, 863.0, 861.0, 861.0, 861.0, 857.0, 859.0, 859.0, 861.0, 860.0, 860.0, 859.0, 860.0, 859.0, 860.0, 861.0, 860.0, 859.0, 857.0, 858.0, 857.0, 857.0, 860.0, 862.0, 861.0, 860.0, 859.0, 858.0, 858.0, 858.0, 858.0, 858.0, 860.0, 861.0, 861.0, 863.0, 861.0, 859.0, 859.0, 859.0, 860.0, 860.0, 860.0, 859.0, 858.0, 859.0, 859.0, 859.0, 858.0, 857.0, 857.0, 858.0, 858.0, 857.0, 858.0, 859.0, 860.0, 860.0, 859.0, 859.0, 859.0, 858.0, 859.0, 862.0, 864.0, 863.0, 861.0, 858.0, 857.0, 857.0, 857.0, 858.0, 857.0, 859.0, 859.0, 858.0, 855.0, 857.0, 857.0, 859.0, 860.0, 858.0, 858.0, 858.0, 860.0, 861.0, 864.0, 865.0, 865.0, 863.0, 864.0, 864.0, 864.0, 862.0, 862.0, 862.0, 863.0, 862.0, 862.0, 861.0, 861.0, 860.0, 861.0, 861.0, 860.0, 860.0, 860.0, 860.0, 860.0, 860.0, 860.0, 859.0, 860.0, 860.0, 860.0, 860.0, 861.0, 862.0, 864.0, 865.0, 863.0, 862.0, 862.0, 861.0, 862.0, 862.0, 861.0, 860.0, 862.0, 861.0, 860.0, 858.0, 859.0, 860.0, 860.0, 860.0, 859.0, 860.0, 860.0, 862.0, 863.0, 861.0, 862.0, 863.0, 863.0, 863.0, 862.0, 861.0, 860.0, 859.0, 859.0, 859.0, 860.0, 861.0, 862.0, 862.0, 861.0, 862.0, 864.0, 862.0, 862.0, 861.0, 860.0, 861.0, 860.0, 861.0, 858.0, 859.0, 860.0, 860.0, 859.0, 859.0, 859.0, 860.0, 861.0, 861.0, 860.0, 859.0, 859.0, 858.0, 859.0, 859.0, 858.0, 859.0, 860.0, 860.0, 860.0, 860.0, 859.0, 860.0, 860.0, 860.0, 860.0, 859.0, 859.0, 859.0, 861.0],
      "WindowWidth": [1870.0, 1865.0, 1867.0, 1872.0, 1872.0, 1874.0, 1874.0, 1871.0, 1871.0, 1870.0, 1873.0, 1876.0, 1874.0, 1872.0, 1872.0, 1873.0, 1875.0, 1881.0, 1880.0, 1877.0, 1871.0, 1872.0, 1873.0, 1873.0, 1872.0, 1869.0, 1872.0, 1873.0, 1872.0, 1869.0, 1872.0, 1870.0, 1878.0, 1888.0, 1883.0, 1889.0, 1886.0, 1880.0, 1880.0, 1879.0, 1869.0, 1874.0, 1872.0, 1877.0, 1874.0, 1875.0, 1874.0, 1874.0, 1872.0, 1875.0, 1877.0, 1876.0, 1871.0, 1868.0, 1869.0, 1868.0, 1868.0, 1876.0, 1881.0, 1879.0, 1876.0, 1871.0, 1870.0, 1870.0, 1870.0, 1869.0, 1868.0, 1874.0, 1879.0, 1879.0, 1884.0, 1878.0, 1872.0, 1871.0, 1872.0, 1875.0, 1875.0, 1874.0, 1873.0, 1870.0, 1871.0, 1873.0, 1872.0, 1868.0, 1866.0, 1867.0, 1868.0, 1868.0, 1867.0, 1870.0, 1873.0, 1875.0, 1874.0, 1872.0, 1872.0, 1871.0, 1871.0, 1872.0, 1881.0, 1887.0, 1882.0, 1876.0, 1869.0, 1867.0, 1866.0, 1866.0, 1869.0, 1869.0, 1873.0, 1872.0, 1870.0, 1863.0, 1870.0, 1869.0, 1873.0, 1875.0, 1871.0, 1870.0, 1870.0, 1875.0, 1878.0, 1890.0, 1892.0, 1892.0, 1887.0, 1889.0, 1888.0, 1890.0, 1885.0, 1883.0, 1882.0, 1883.0, 1882.0, 1881.0, 1879.0, 1877.0, 1877.0, 1879.0, 1880.0, 1876.0, 1878.0, 1877.0, 1877.0, 1876.0, 1877.0, 1875.0, 1875.0, 1877.0, 1875.0, 1876.0, 1875.0, 1880.0, 1883.0, 1887.0, 1890.0, 1886.0, 1881.0, 1882.0, 1881.0, 1882.0, 1881.0, 1879.0, 1877.0, 1881.0, 1879.0, 1874.0, 1871.0, 1872.0, 1877.0, 1875.0, 1876.0, 1874.0, 1876.0, 1878.0, 1882.0, 1884.0, 1880.0, 1881.0, 1884.0, 1886.0, 1886.0, 1881.0, 1880.0, 1876.0, 1874.0, 1874.0, 1874.0, 1877.0, 1880.0, 1883.0, 1882.0, 1880.0, 1881.0, 1887.0, 1884.0, 1883.0, 1879.0, 1876.0, 1879.0, 1879.0, 1882.0, 1872.0, 1872.0, 1874.0, 1875.0, 1873.0, 1873.0, 1873.0, 1874.0, 1878.0, 1879.0, 1876.0, 1873.0, 1872.0, 1871.0, 1873.0, 1873.0, 1871.0, 1872.0, 1875.0, 1875.0, 1874.0, 1874.0, 1874.0, 1874.0, 1875.0, 1875.0, 1874.0, 1873.0, 1874.0, 1873.0, 1879.0]
    },
    "slices": {}
  }
}