{
  "AcquisitionMatrixPE": 100,
  "AcquisitionNumber": 1,
  "AcquisitionTime": "10:32:56.152500",
  "BandwidthPerPixelPhaseEncode": 18.519,
  "BaseResolution": 100,
  "BodyPartExamined": "BRAIN",
  "ConsistencyInfo": "N4_VE11C_LATEST_20160120",
  "ConversionSoftware": "dcm2niix",
  "ConversionSoftwareVersion": "v1.0.20180622 GCC4.9.2",
  "DerivedVendorReportedEchoSpacing": 0.000539986,
  "DeviceSerialNumber": "166078",
  "DwellTime": 2.1e-06,
  "EchoTime": 0.034,
  "EchoTrainLength": 100,
  "EffectiveEchoSpacing": 0.000539986,
  "FlipAngle": 90,
  "ImageOrientationPatientDICOM": [1, 0, 0, 0, 0.999391, -0.0348995],
  "ImageType": [
    "ORIGINAL",
    "PRIMARY",
    "M",
    "ND",
    "MOSAIC"
],
  "InPlanePhaseEncodingDirectionDICOM": "COL",
  "InstitutionAddress": "Street_StreetNo_Bei_Jing_District_CN_ZIP",
  "InstitutionName": "BeiJing_Normal_University",
  "InstitutionalDepartmentName": "Department",
  "MRAcquisitionType": "2D",
  "MagneticFieldStrength": 3,
  "Manufacturer": "Siemens",
  "ManufacturersModelName": "Prisma",
  "Modality": "MR",
  "MultibandAccelerationFactor": 3,
  "PartialFourier": 1,
  "PatientPosition": "HFS",
  "PercentPhaseFOV": 100,
  "PhaseEncodingDirection": "j-",
  "PhaseEncodingSteps": 100,
  "PhaseResolution": 1,
  "PixelBandwidth": 2380,
  "ProcedureStepDescription": "BNU_P2018_64CH_Liu.Jia",
  "ProtocolName": "bold_100x100_s3_2x2x2_232",
  "PulseSequenceDetails": "%SiemensSeq%_ep2d_bold",
  "ReceiveCoilActiveElements": "HC1-7;NC1",
  "ReceiveCoilName": "HeadNeck_64",
  "ReconMatrixPE": 100,
  "RepetitionTime": 2,
  "SAR": 0.0654608,
  "ScanOptions": "FS",
  "ScanningSequence": "EP",
  "SequenceName": "_epfid2d1_100",
  "SequenceVariant": "SK",
  "SeriesDescription": "bold_100x100_s3_2x2x2_232",
  "SeriesNumber": 4,
  "ShimSetting": [-5467, -11458, -1195, 322, -50, -94, -38, 102],
  "SliceThickness": 2,
  "SliceTiming": [1.485, 0, 0.99, 0.0825, 1.0725, 0.165, 1.155, 0.2475, 1.2375, 0.33, 1.32, 0.4125, 1.4025, 0.5775, 1.5675, 0.66, 1.65, 0.7425, 1.7325, 0.825, 1.815, 0.9075, 1.8975, 0.495, 1.485, 0, 0.99, 0.0825, 1.0725, 0.165, 1.155, 0.2475, 1.2375, 0.33, 1.32, 0.4125, 1.4025, 0.5775, 1.5675, 0.66, 1.65, 0.7425, 1.7325, 0.825, 1.815, 0.9075, 1.8975, 0.495, 1.485, 0, 0.99, 0.0825, 1.0725, 0.165, 1.155, 0.2475, 1.2375, 0.33, 1.32, 0.4125, 1.4025, 0.5775, 1.5675, 0.66, 1.65, 0.7425, 1.7325, 0.825, 1.815, 0.9075, 1.8975, 0.495],
  "SoftwareVersions": "syngo_MR_E11",
  "SpacingBetweenSlices": 2,
  "StationName": "AWP166078",
  "TaskName": "motor",
  "TotalReadoutTime": 0.0534586,
  "TxRefAmp": 218.639,
  "dcmmeta_affine": [
    [-2.0, 0.0, 0.0, 100.0],
    [0.0, 1.998781681060791, -0.06979899853467941, -93.30821990966797],
    [0.0, 0.06979899853467941, 1.9987815618515015, -54.92629623413086],
    [0.0, 0.0, 0.0, 1.0]
],
  "dcmmeta_reorient_transform": [
    [0.0, -1.0, 0.0, 99.0],
    [1.0, 0.0, 0.0, 0.0],
    [0.0, 0.0, 1.0, 0.0],
    [0.0, 0.0, 0.0, 1.0]
],
  "dcmmeta_shape": [100, 100, 72, 232],
  "dcmmeta_slice_dim": 2,
  "dcmmeta_version": 0.6,
  "global": {
    "const": {
      "AcquisitionMatrix": [100, 0, 0, 100],
      "AngioFlag": "N",
      "BitsAllocated": 16,
      "BitsStored": 12,
      "BodyPartExamined": "BRAIN",
      "Columns": 900,
      "EchoNumbers": 1,
      "EchoTime": 34.0,
      "EchoTrainLength": 100,
      "FlipAngle": 90.0,
      "HighBit": 11,
      "ImageOrientationPatient": [1.0, 0.0, 0.0, 0.0, 0.99939082696012, -0.0348994983914],
      "ImagePositionPatient": [-900.0, -904.08382529591, -20.096596925046],
      "ImageType": [
        "ORIGINAL",
        "PRIMARY",
        "M",
        "ND",
        "MOSAIC"
],
      "ImagedNucleus": "1H",
      "ImagingFrequency": 123.257798,
      "InPlanePhaseEncodingDirection": "COL",
      "MRAcquisitionType": "2D",
      "MagneticFieldStrength": 3.0,
      "Manufacturer": "SIEMENS",
      "ManufacturerModelName": "Prisma",
      "Modality": "MR",
      "NumberOfAverages": 1.0,
      "NumberOfPhaseEncodingSteps": 100,
      "PercentPhaseFieldOfView": 100.0,
      "PercentSampling": 100.0,
      "PerformedProcedureStepStartTime": "101911.583000",
      "PhotometricInterpretation": "MONOCHROME2",
      "PixelBandwidth": 2380.0,
      "PixelRepresentation": 0,
      "PixelSpacing": [2.0, 2.0],
      "ProtocolName": "bold_100x100_s3_2x2x2_232",
      "RepetitionTime": 2000.0,
      "Rows": 900,
      "SAR": 0.06546080980599,
      "SamplesPerPixel": 1,
      "ScanOptions": "FS",
      "ScanningSequence": "EP",
      "SequenceName": "*epfid2d1_100",
      "SequenceVariant": "SK",
      "SeriesDescription": "bold_100x100_s3_2x2x2_232",
      "SeriesNumber": 4,
      "SeriesTime": "103259.046000",
      "SliceLocation": -51.6364266266,
      "SliceThickness": 2.0,
      "SmallestImagePixelValue": 0,
      "SoftwareVersions": "syngo MR E11",
      "SpacingBetweenSlices": 1.9999999531306,
      "SpecificCharacterSet": "ISO_IR 100",
      "StudyID": "1",
      "StudyTime": "101911.500000",
      "TransmitCoilName": "Body",
      "VariableFlipAngleFlag": "N",
      "WindowCenterWidthExplanation": "Algo1",
      "dBdt": 0.0},
    "slices": {}
  },
  "time": {
    "samples": {
      "AcquisitionNumber": [1, 2, 3, 4, 5, 6, 7, 8, 9, 10, 11, 12, 13, 14, 15, 16, 17, 18, 19, 20, 21, 22, 23, 24, 25, 26, 27, 28, 29, 30, 31, 32, 33, 34, 35, 36, 37, 38, 39, 40, 41, 42, 43, 44, 45, 46, 47, 48, 49, 50, 51, 52, 53, 54, 55, 56, 57, 58, 59, 60, 61, 62, 63, 64, 65, 66, 67, 68, 69, 70, 71, 72, 73, 74, 75, 76, 77, 78, 79, 80, 81, 82, 83, 84, 85, 86, 87, 88, 89, 90, 91, 92, 93, 94, 95, 96, 97, 98, 99, 100, 101, 102, 103, 104, 105, 106, 107, 108, 109, 110, 111, 112, 113, 114, 115, 116, 117, 118, 119, 120, 121, 122, 123, 124, 125, 126, 127, 128, 129, 130, 131, 132, 133, 134, 135, 136, 137, 138, 139, 140, 141, 142, 143, 144, 145, 146, 147, 148, 149, 150, 151, 152, 153, 154, 155, 156, 157, 158, 159, 160, 161, 162, 163, 164, 165, 166, 167, 168, 169, 170, 171, 172, 173, 174, 175, 176, 177, 178, 179, 180, 181, 182, 183, 184, 185, 186, 187, 188, 189, 190, 191, 192, 193, 194, 195, 196, 197, 198, 199, 200, 201, 202, 203, 204, 205, 206, 207, 208, 209, 210, 211, 212, 213, 214, 215, 216, 217, 218, 219, 220, 221, 222, 223, 224, 225, 226, 227, 228, 229, 230, 231, 232],
      "AcquisitionTime": ["103256.152500", "103258.152500", "103300.152500", "103302.152500", "103304.152500", "103306.152500", "103308.152500", "103310.152500", "103312.152500", "103314.152500", "103316.152500", "103318.152500", "103320.152500", "103322.152500", "103324.152500", "103326.152500", "103328.152500", "103330.152500", "103332.152500", "103334.152500", "103336.152500", "103338.152500", "103340.152500", "103342.152500", "103344.152500", "103346.152500", "103348.152500", "103350.152500", "103352.152500", "103354.152500", "103356.152500", "103358.152500", "103400.152500", "103402.152500", "103404.152500", "103406.152500", "103408.152500", "103410.152500", "103412.152500", "103414.152500", "103416.152500", "103418.152500", "103420.152500", "103422.152500", "103424.152500", "103426.152500", "103428.152500", "103430.152500", "103432.152500", "103434.152500", "103436.152500", "103438.152500", "103440.152500", "103442.152500", "103444.152500", "103446.152500", "103448.152500", "103450.152500", "103452.152500", "103454.152500", "103456.152500", "103458.152500", "103500.152500", "103502.152500", "103504.152500", "103506.152500", "103508.152500", "103510.152500", "103512.152500", "103514.152500", "103516.152500", "103518.152500", "103520.152500", "103522.152500", "103524.152500", "103526.152500", "103528.152500", "103530.152500", "103532.152500", "103534.152500", "103536.152500", "103538.152500", "103540.152500", "103542.152500", "103544.152500", "103546.152500", "103548.152500", "103550.152500", "103552.152500", "103554.152500", "103556.152500", "103558.152500", "103600.152500", "103602.152500", "103604.152500", "103606.152500", "103608.152500", "103610.152500", "103612.152500", "103614.152500", "103616.152500", "103618.152500", "103620.152500", "103622.152500", "103624.152500", "103626.152500", "103628.152500", "103630.152500", "103632.152500", "103634.152500", "103636.152500", "103638.152500", "103640.152500", "103642.152500", "103644.152500", "103646.152500", "103648.152500", "103650.152500", "103652.152500", "103654.152500", "103656.152500", "103658.152500", "103700.152500", "103702.152500", "103704.152500", "103706.152500", "103708.152500", "103710.152500", "103712.152500", "103714.152500", "103716.152500", "103718.152500", "103720.152500", "103722.152500", "103724.152500", "103726.152500", "103728.152500", "103730.152500", "103732.152500", "103734.152500", "103736.152500", "103738.152500", "103740.152500", "103742.152500", "103744.152500", "103746.152500", "103748.152500", "103750.152500", "103752.152500", "103754.152500", "103756.152500", "103758.152500", "103800.152500", "103802.152500", "103804.152500", "103806.152500", "103808.152500", "103810.152500", "103812.152500", "103814.152500", "103816.152500", "103818.152500", "103820.152500", "103822.152500", "103824.152500", "103826.152500", "103828.152500", "103830.152500", "103832.152500", "103834.152500", "103836.152500", "103838.152500", "103840.152500", "103842.152500", "103844.152500", "103846.152500", "103848.152500", "103850.152500", "103852.152500", "103854.152500", "103856.152500", "103858.152500", "103900.152500", "103902.152500", "103904.152500", "103906.152500", "103908.152500", "103910.152500", "103912.152500", "103914.152500", "103916.152500", "103918.152500", "103920.152500", "103922.152500", "103924.152500", "103926.152500", "103928.152500", "103930.152500", "103932.152500", "103934.152500", "103936.152500", "103938.152500", "103940.152500", "103942.152500", "103944.152500", "103946.152500", "103948.152500", "103950.152500", "103952.152500", "103954.152500", "103956.152500", "103958.152500", "104000.152500", "104002.152500", "104004.152500", "104006.152500", "104008.152500", "104010.152500", "104012.152500", "104014.152500", "104016.152500", "104018.152500", "104020.152500", "104022.152500", "104024.152500", "104026.152500", "104028.152500", "104030.152500", "104032.152500", "104034.152500", "104036.152500", "104038.152500"],
      "ContentTime": ["103259.049000", "103300.545000", "103302.545000", "103304.546000", "103306.546000", "103308.546000", "103310.545000", "103312.546000", "103314.545000", "103316.544000", "103318.544000", "103320.545000", "103322.546000", "103324.545000", "103326.545000", "103328.545000", "103330.546000", "103332.545000", "103334.544000", "103336.545000", "103338.544000", "103340.546000", "103342.545000", "103344.546000", "103346.545000", "103348.545000", "103350.545000", "103352.544000", "103354.544000", "103356.546000", "103358.545000", "103400.546000", "103402.546000", "103404.546000", "103406.545000", "103408.544000", "103410.544000", "103412.545000", "103414.545000", "103416.546000", "103418.545000", "103420.545000", "103422.545000", "103424.545000", "103426.545000", "103428.544000", "103430.545000", "103432.545000", "103434.545000", "103436.545000", "103438.545000", "103440.545000", "103442.545000", "103444.544000", "103446.545000", "103448.545000", "103450.545000", "103452.546000", "103454.545000", "103456.545000", "103458.546000", "103500.544000", "103502.544000", "103504.545000", "103506.546000", "103508.545000", "103510.546000", "103512.546000", "103514.546000", "103516.545000", "103518.545000", "103520.544000", "103522.545000", "103524.546000", "103526.545000", "103528.546000", "103530.545000", "103532.545000", "103534.545000", "103536.544000", "103538.544000", "103540.544000", "103542.545000", "103544.545000", "103546.546000", "103548.545000", "103550.546000", "103552.545000", "103554.545000", "103556.544000", "103558.545000", "103600.546000", "103602.545000", "103604.545000", "103606.545000", "103608.546000", "103610.544000", "103612.544000", "103614.544000", "103616.546000", "103618.546000", "103620.546000", "103622.546000", "103624.545000", "103626.546000", "103628.545000", "103630.544000", "103632.545000", "103634.546000", "103636.546000", "103638.546000", "103640.545000", "103642.546000", "103644.545000", "103646.545000", "103648.545000", "103650.545000", "103652.546000", "103654.545000", "103656.545000", "103658.546000", "103700.546000", "103702.544000", "103704.545000", "103706.545000", "103708.545000", "103710.545000", "103712.545000", "103714.545000", "103716.545000", "103718.545000", "103720.545000", "103722.544000", "103724.545000", "103726.546000", "103728.546000", "103730.546000", "103732.545000", "103734.546000", "103736.545000", "103738.545000", "103740.544000", "103742.544000", "103744.546000", "103746.546000", "103748.545000", "103750.545000", "103752.546000", "103754.546000", "103756.544000", "103758.544000", "103800.545000", "103802.545000", "103804.546000", "103806.545000", "103808.546000", "103810.545000", "103812.545000", "103814.545000", "103816.545000", "103818.544000", "103820.545000", "103822.545000", "103824.546000", "103826.545000", "103828.546000", "103830.545000", "103832.544000", "103834.544000", "103836.545000", "103838.546000", "103840.546000", "103842.546000", "103844.545000", "103846.545000", "103848.544000", "103850.544000", "103852.544000", "103854.545000", "103856.546000", "103858.545000", "103900.546000", "103902.545000", "103904.546000", "103906.544000", "103908.544000", "103910.544000", "103912.546000", "103914.545000", "103916.546000", "103918.545000", "103920.545000", "103922.544000", "103924.544000", "103926.544000", "103928.544000", "103930.545000", "103932.546000", "103934.556000", "103936.546000", "103938.545000", "103940.545000", "103942.545000", "103944.545000", "103946.546000", "103948.545000", "103950.546000", "103952.546000", "103954.546000", "103956.546000", "103958.545000", "104000.544000", "104002.544000", "104004.545000", "104006.545000", "104008.545000", "104010.546000", "104012.546000", "104014.545000", "104016.544000", "104018.544000", "104020.544000", "104022.545000", "104024.545000", "104026.545000", "104028.545000", "104030.546000", "104032.544000", "104034.544000", "104036.544000", "104038.544000", "104040.179000"],
      "InstanceCreationTime": ["103259.049000", "103300.545000", "103302.545000", "103304.546000", "103306.546000", "103308.546000", "103310.545000", "103312.546000", "103314.545000", "103316.544000", "103318.544000", "103320.545000", "103322.546000", "103324.545000", "103326.545000", "103328.545000", "103330.546000", "103332.545000", "103334.544000", "103336.545000", "103338.544000", "103340.546000", "103342.545000", "103344.546000", "103346.545000", "103348.545000", "103350.545000", "103352.544000", "103354.544000", "103356.546000", "103358.545000", "103400.546000", "103402.546000", "103404.546000", "103406.545000", "103408.544000", "103410.544000", "103412.545000", "103414.545000", "103416.546000", "103418.545000", "103420.545000", "103422.545000", "103424.545000", "103426.545000", "103428.544000", "103430.545000", "103432.545000", "103434.545000", "103436.545000", "103438.545000", "103440.545000", "103442.545000", "103444.544000", "103446.545000", "103448.545000", "103450.545000", "103452.546000", "103454.545000", "103456.545000", "103458.546000", "103500.544000", "103502.544000", "103504.545000", "103506.546000", "103508.545000", "103510.546000", "103512.546000", "103514.546000", "103516.545000", "103518.545000", "103520.544000", "103522.545000", "103524.546000", "103526.545000", "103528.546000", "103530.545000", "103532.545000", "103534.545000", "103536.544000", "103538.544000", "103540.544000", "103542.545000", "103544.545000", "103546.546000", "103548.545000", "103550.546000", "103552.545000", "103554.545000", "103556.544000", "103558.545000", "103600.546000", "103602.545000", "103604.545000", "103606.545000", "103608.546000", "103610.544000", "103612.544000", "103614.544000", "103616.546000", "103618.546000", "103620.546000", "103622.546000", "103624.545000", "103626.546000", "103628.545000", "103630.544000", "103632.545000", "103634.546000", "103636.546000", "103638.546000", "103640.545000", "103642.546000", "103644.545000", "103646.545000", "103648.545000", "103650.545000", "103652.546000", "103654.545000", "103656.545000", "103658.546000", "103700.546000", "103702.544000", "103704.545000", "103706.545000", "103708.545000", "103710.545000", "103712.545000", "103714.545000", "103716.545000", "103718.545000", "103720.545000", "103722.544000", "103724.545000", "103726.546000", "103728.546000", "103730.546000", "103732.545000", "103734.546000", "103736.545000", "103738.545000", "103740.544000", "103742.544000", "103744.546000", "103746.546000", "103748.545000", "103750.545000", "103752.546000", "103754.546000", "103756.544000", "103758.544000", "103800.545000", "103802.545000", "103804.546000", "103806.545000", "103808.546000", "103810.545000", "103812.545000", "103814.545000", "103816.545000", "103818.544000", "103820.545000", "103822.545000", "103824.546000", "103826.545000", "103828.546000", "103830.545000", "103832.544000", "103834.544000", "103836.545000", "103838.546000", "103840.546000", "103842.546000", "103844.545000", "103846.545000", "103848.544000", "103850.544000", "103852.544000", "103854.545000", "103856.546000", "103858.545000", "103900.546000", "103902.545000", "103904.546000", "103906.544000", "103908.544000", "103910.544000", "103912.546000", "103914.545000", "103916.546000", "103918.545000", "103920.545000", "103922.544000", "103924.544000", "103926.544000", "103928.544000", "103930.545000", "103932.546000", "103934.556000", "103936.546000", "103938.545000", "103940.545000", "103942.545000", "103944.545000", "103946.546000", "103948.545000", "103950.546000", "103952.546000", "103954.546000", "103956.546000", "103958.545000", "104000.544000", "104002.544000", "104004.545000", "104006.545000", "104008.545000", "104010.546000", "104012.546000", "104014.545000", "104016.544000", "104018.544000", "104020.544000", "104022.545000", "104024.545000", "104026.545000", "104028.545000", "104030.546000", "104032.544000", "104034.544000", "104036.544000", "104038.544000", "104040.179000"],
      "InstanceNumber": [1, 2, 3, 4, 5, 6, 7, 8, 9, 10, 11, 12, 13, 14, 15, 16, 17, 18, 19, 20, 21, 22, 23, 24, 25, 26, 27, 28, 29, 30, 31, 32, 33, 34, 35, 36, 37, 38, 39, 40, 41, 42, 43, 44, 45, 46, 47, 48, 49, 50, 51, 52, 53, 54, 55, 56, 57, 58, 59, 60, 61, 62, 63, 64, 65, 66, 67, 68, 69, 70, 71, 72, 73, 74, 75, 76, 77, 78, 79, 80, 81, 82, 83, 84, 85, 86, 87, 88, 89, 90, 91, 92, 93, 94, 95, 96, 97, 98, 99, 100, 101, 102, 103, 104, 105, 106, 107, 108, 109, 110, 111, 112, 113, 114, 115, 116, 117, 118, 119, 120, 121, 122, 123, 124, 125, 126, 127, 128, 129, 130, 131, 132, 133, 134, 135, 136, 137, 138, 139, 140, 141, 142, 143, 144, 145, 146, 147, 148, 149, 150, 151, 152, 153, 154, 155, 156, 157, 158, 159, 160, 161, 162, 163, 164, 165, 166, 167, 168, 169, 170, 171, 172, 173, 174, 175, 176, 177, 178, 179, 180, 181, 182, 183, 184, 185, 186, 187, 188, 189, 190, 191, 192, 193, 194, 195, 196, 197, 198, 199, 200, 201, 202, 203, 204, 205, 206, 207, 208, 209, 210, 211, 212, 213, 214, 215, 216, 217, 218, 219, 220, 221, 222, 223, 224, 225, 226, 227, 228, 229, 230, 231, 232],
      "LargestImagePixelValue": [3848, 3771, 3718, 3738, 3751, 3732, 3731, 3717, 3734, 3772, 3733, 3798, 3792, 3777, 3826, 3755, 3783, 3767, 3768, 3846, 3772, 3746, 3850, 3839, 3835, 3805, 3819, 3855, 3870, 3846, 3824, 3837, 3888, 3738, 3708, 3744, 3702, 3730, 3718, 3694, 3721, 3761, 3676, 3632, 3695, 3687, 3686, 3739, 3725, 3858, 3964, 3995, 4008, 4060, 3935, 4074, 3907, 3818, 3890, 3793, 3818, 3862, 3809, 3839, 3798, 3794, 3842, 3712, 3751, 3770, 3794, 3750, 3838, 3815, 3940, 3946, 3883, 3971, 3869, 3920, 3947, 3977, 3889, 4034, 3921, 4095, 3972, 3959, 3722, 3732, 3801, 3801, 3871, 3879, 3862, 3855, 3888, 3818, 3796, 3796, 3807, 3794, 3787, 3793, 3730, 3757, 3729, 3741, 3741, 3743, 3762, 3778, 3742, 3720, 3709, 3741, 3734, 3761, 3735, 3823, 3783, 3724, 3773, 3739, 3745, 3737, 3755, 3772, 3752, 3762, 3763, 3763, 3689, 3707, 3720, 3750, 3726, 3791, 3782, 3822, 3846, 3800, 3835, 3816, 3819, 3735, 3658, 3614, 3605, 3809, 3720, 3914, 3662, 3691, 3684, 3646, 3658, 3616, 3625, 3641, 3655, 3658, 3697, 3705, 3691, 3703, 3685, 3733, 3745, 3668, 3700, 3787, 3802, 3838, 3788, 3828, 3825, 3786, 3760, 3840, 3917, 3892, 3909, 3890, 3855, 3697, 3739, 3780, 3757, 3699, 3697, 3655, 3708, 3767, 3785, 3871, 3877, 3825, 3844, 3843, 3797, 3681, 3691, 3653, 3754, 3737, 3771, 3765, 3787, 3755, 3804, 3779, 3783, 3785, 3808, 3798, 3737, 3766, 3807, 3839, 3812, 3818, 3841, 3804, 3879, 3798, 3844, 3905, 3857, 3888, 3887, 3919],
      "WindowCenter": [858.0, 856.0, 855.0, 855.0, 856.0, 857.0, 857.0, 856.0, 857.0, 858.0, 859.0, 859.0, 859.0, 858.0, 858.0, 858.0, 859.0, 859.0, 859.0, 858.0, 858.0, 859.0, 859.0, 858.0, 858.0, 858.0, 859.0, 860.0, 859.0, 858.0, 858.0, 858.0, 858.0, 860.0, 860.0, 861.0, 860.0, 860.0, 859.0, 859.0, 858.0, 858.0, 860.0, 861.0, 863.0, 862.0, 860.0, 859.0, 860.0, 862.0, 866.0, 865.0, 866.0, 867.0, 867.0, 866.0, 864.0, 863.0, 863.0, 863.0, 862.0, 862.0, 861.0, 861.0, 861.0, 861.0, 861.0, 861.0, 862.0, 861.0, 860.0, 859.0, 858.0, 860.0, 860.0, 861.0, 861.0, 861.0, 861.0, 861.0, 861.0, 861.0, 860.0, 863.0, 861.0, 864.0, 862.0, 863.0, 860.0, 859.0, 859.0, 859.0, 859.0, 860.0, 860.0, 860.0, 860.0, 859.0, 860.0, 859.0, 858.0, 858.0, 858.0, 857.0, 857.0, 857.0, 857.0, 856.0, 856.0, 857.0, 856.0, 855.0, 856.0, 856.0, 856.0, 856.0, 855.0, 855.0, 855.0, 855.0, 855.0, 855.0, 857.0, 858.0, 857.0, 856.0, 856.0, 856.0, 855.0, 856.0, 857.0, 857.0, 857.0, 857.0, 858.0, 857.0, 857.0, 857.0, 858.0, 858.0, 858.0, 857.0, 858.0, 858.0, 858.0, 858.0, 858.0, 858.0, 859.0, 860.0, 860.0, 861.0, 858.0, 858.0, 859.0, 859.0, 858.0, 857.0, 858.0, 858.0, 859.0, 859.0, 860.0, 861.0, 861.0, 860.0, 861.0, 860.0, 860.0, 860.0, 860.0, 860.0, 860.0, 859.0, 858.0, 857.0, 856.0, 856.0, 859.0, 859.0, 861.0, 860.0, 860.0, 860.0, 859.0, 859.0, 860.0, 861.0, 861.0, 861.0, 861.0, 860.0, 859.0, 861.0, 863.0, 863.0, 864.0, 864.0, 864.0, 863.0, 859.0, 859.0, 857.0, 857.0, 858.0, 859.0, 859.0, 858.0, 857.0, 857.0, 857.0, 857.0, 856.0, 856.0, 856.0, 856.0, 855.0, 856.0, 857.0, 858.0, 858.0, 858.0, 857.0, 858.0, 857.0, 857.0, 858.0, 857.0, 857.0, 857.0, 857.0, 858.0],
      "WindowWidth": [1876.0, 1869.0, 1867.0, 1867.0, 1869.0, 1872.0, 1871.0, 1869.0, 1872.0, 1874.0, 1877.0, 1878.0, 1876.0, 1876.0, 1874.0, 1875.0, 1877.0, 1877.0, 1876.0, 1876.0, 1874.0, 1875.0, 1876.0, 1874.0, 1874.0, 1874.0, 1877.0, 1878.0, 1877.0, 1874.0, 1874.0, 1874.0, 1875.0, 1878.0, 1878.0, 1881.0, 1880.0, 1879.0, 1877.0, 1875.0, 1874.0, 1874.0, 1879.0, 1882.0, 1888.0, 1884.0, 1878.0, 1877.0, 1878.0, 1887.0, 1897.0, 1894.0, 1898.0, 1903.0, 1901.0, 1899.0, 1891.0, 1889.0, 1890.0, 1887.0, 1885.0, 1884.0, 1883.0, 1883.0, 1881.0, 1881.0, 1881.0, 1882.0, 1885.0, 1883.0, 1880.0, 1877.0, 1873.0, 1879.0, 1880.0, 1882.0, 1883.0, 1884.0, 1882.0, 1884.0, 1883.0, 1883.0, 1880.0, 1890.0, 1885.0, 1894.0, 1886.0, 1889.0, 1881.0, 1877.0, 1875.0, 1875.0, 1878.0, 1879.0, 1880.0, 1879.0, 1879.0, 1878.0, 1878.0, 1877.0, 1875.0, 1874.0, 1872.0, 1870.0, 1871.0, 1870.0, 1868.0, 1868.0, 1868.0, 1869.0, 1867.0, 1865.0, 1866.0, 1868.0, 1869.0, 1867.0, 1866.0, 1865.0, 1866.0, 1866.0, 1864.0, 1865.0, 1871.0, 1872.0, 1870.0, 1868.0, 1868.0, 1868.0, 1864.0, 1868.0, 1871.0, 1872.0, 1869.0, 1871.0, 1873.0, 1871.0, 1871.0, 1871.0, 1873.0, 1873.0, 1872.0, 1872.0, 1873.0, 1873.0, 1872.0, 1873.0, 1874.0, 1873.0, 1874.0, 1879.0, 1880.0, 1884.0, 1873.0, 1873.0, 1875.0, 1875.0, 1871.0, 1870.0, 1871.0, 1873.0, 1874.0, 1876.0, 1879.0, 1881.0, 1881.0, 1878.0, 1879.0, 1878.0, 1877.0, 1877.0, 1879.0, 1880.0, 1880.0, 1875.0, 1871.0, 1869.0, 1868.0, 1868.0, 1876.0, 1877.0, 1881.0, 1879.0, 1880.0, 1880.0, 1877.0, 1874.0, 1878.0, 1881.0, 1882.0, 1881.0, 1881.0, 1879.0, 1876.0, 1881.0, 1885.0, 1889.0, 1890.0, 1890.0, 1890.0, 1887.0, 1876.0, 1875.0, 1869.0, 1869.0, 1873.0, 1875.0, 1876.0, 1873.0, 1870.0, 1871.0, 1870.0, 1868.0, 1866.0, 1866.0, 1868.0, 1866.0, 1863.0, 1865.0, 1868.0, 1872.0, 1873.0, 1873.0, 1870.0, 1872.0, 1871.0, 1871.0, 1872.0, 1871.0, 1870.0, 1869.0, 1870.0, 1873.0]
    },
    "slices": {}
  }
}