{
  "AcquisitionMatrixPE": 100,
  "AcquisitionNumber": 1,
  "AcquisitionTime": "09:36:25.607500",
  "BandwidthPerPixelPhaseEncode": 18.519,
  "BaseResolution": 100,
  "BodyPartExamined": "BRAIN",
  "ConsistencyInfo": "N4_VE11C_LATEST_20160120",
  "ConversionSoftware": "dcm2niix",
  "ConversionSoftwareVersion": "v1.0.20180622 GCC4.9.2",
  "DerivedVendorReportedEchoSpacing": 0.000539986,
  "DeviceSerialNumber": "166078",
  "DwellTime": 2.1e-06,
  "EchoTime": 0.034,
  "EchoTrainLength": 100,
  "EffectiveEchoSpacing": 0.000539986,
  "FlipAngle": 90,
  "ImageOrientationPatientDICOM": [0.999918, 0.00303564, 0.0124562, 1.77499e-08, 0.971564, -0.236776],
  "ImageType": [
    "ORIGINAL",
    "PRIMARY",
    "M",
    "ND",
    "MOSAIC"
],
  "InPlanePhaseEncodingDirectionDICOM": "COL",
  "InstitutionAddress": "Street_StreetNo_Bei_Jing_District_CN_ZIP",
  "InstitutionName": "BeiJing_Normal_University",
  "InstitutionalDepartmentName": "Department",
  "MRAcquisitionType": "2D",
  "MagneticFieldStrength": 3,
  "Manufacturer": "Siemens",
  "ManufacturersModelName": "Prisma",
  "Modality": "MR",
  "MultibandAccelerationFactor": 3,
  "PartialFourier": 1,
  "PatientPosition": "HFS",
  "PercentPhaseFOV": 100,
  "PhaseEncodingDirection": "j-",
  "PhaseEncodingSteps": 100,
  "PhaseResolution": 1,
  "PixelBandwidth": 2380,
  "ProcedureStepDescription": "BNU_P2018_64CH_Liu.Jia",
  "ProtocolName": "bold_100x100_s3_2x2x2_232",
  "PulseSequenceDetails": "%SiemensSeq%_ep2d_bold",
  "ReceiveCoilActiveElements": "HC1-7;NC1",
  "ReceiveCoilName": "HeadNeck_64",
  "ReconMatrixPE": 100,
  "RepetitionTime": 2,
  "SAR": 0.0714902,
  "ScanOptions": "FS",
  "ScanningSequence": "EP",
  "SequenceName": "_epfid2d1_100",
  "SequenceVariant": "SK",
  "SeriesDescription": "bold_100x100_s3_2x2x2_232",
  "SeriesNumber": 8,
  "ShimSetting": [-5453, -11451, -1235, 335, -11, -226, -214, 35],
  "SliceThickness": 2,
  "SliceTiming": [1.485, 0, 0.99, 0.0825, 1.0725, 0.165, 1.155, 0.2475, 1.2375, 0.33, 1.32, 0.4125, 1.4025, 0.5775, 1.5675, 0.66, 1.65, 0.7425, 1.7325, 0.825, 1.815, 0.9075, 1.8975, 0.495, 1.485, 0, 0.99, 0.0825, 1.0725, 0.165, 1.155, 0.2475, 1.2375, 0.33, 1.32, 0.4125, 1.4025, 0.5775, 1.5675, 0.66, 1.65, 0.7425, 1.7325, 0.825, 1.815, 0.9075, 1.8975, 0.495, 1.485, 0, 0.99, 0.0825, 1.0725, 0.165, 1.155, 0.2475, 1.2375, 0.33, 1.32, 0.4125, 1.4025, 0.5775, 1.5675, 0.66, 1.65, 0.7425, 1.7325, 0.825, 1.815, 0.9075, 1.8975, 0.495],
  "SoftwareVersions": "syngo_MR_E11",
  "SpacingBetweenSlices": 2,
  "StationName": "AWP166078",
  "TaskName": "motor",
  "TotalReadoutTime": 0.0534586,
  "TxRefAmp": 218.336,
  "dcmmeta_affine": [
    [-1.9998356103897095, 3.5499898132229646e-08, 0.02564157173037529, 100.52993774414062],
    [-0.0060712858103215694, 1.9431283473968506, -0.47351396083831787, -79.54772186279297],
    [0.02491244114935398, 0.4735528826713562, 1.9429686069488525, -86.23638153076172],
    [0.0, 0.0, 0.0, 1.0]
],
  "dcmmeta_reorient_transform": [
    [0.0, -1.0, 0.0, 99.0],
    [1.0, 0.0, 0.0, 0.0],
    [0.0, 0.0, 1.0, 0.0],
    [0.0, 0.0, 0.0, 1.0]
],
  "dcmmeta_shape": [100, 100, 72, 232],
  "dcmmeta_slice_dim": 2,
  "dcmmeta_version": 0.6,
  "global": {
    "const": {
      "AcquisitionMatrix": [100, 0, 0, 100],
      "AngioFlag": "N",
      "BitsAllocated": 16,
      "BitsStored": 12,
      "BodyPartExamined": "BRAIN",
      "Columns": 900,
      "EchoNumbers": 1,
      "EchoTime": 34.0,
      "EchoTrainLength": 100,
      "FlipAngle": 90.0,
      "HighBit": 11,
      "ImageOrientationPatient": [0.99991781034901, 0.00303564279715, 0.01245622011869, 1.7749949e-08, 0.97156415953846, -0.2367764428745],
      "ImagePositionPatient": [-900.46420465949, -892.5018206601, 140.10152979546],
      "ImageType": [
        "ORIGINAL",
        "PRIMARY",
        "M",
        "ND",
        "MOSAIC"
],
      "ImagedNucleus": "1H",
      "ImagingFrequency": 123.257827,
      "InPlanePhaseEncodingDirection": "COL",
      "MRAcquisitionType": "2D",
      "MagneticFieldStrength": 3.0,
      "Manufacturer": "SIEMENS",
      "ManufacturerModelName": "Prisma",
      "Modality": "MR",
      "NumberOfAverages": 1.0,
      "NumberOfPhaseEncodingSteps": 100,
      "PercentPhaseFieldOfView": 100.0,
      "PercentSampling": 100.0,
      "PerformedProcedureStepStartTime": "090236.023000",
      "PhotometricInterpretation": "MONOCHROME2",
      "PixelBandwidth": 2380.0,
      "PixelRepresentation": 0,
      "PixelSpacing": [2.0, 2.0],
      "ProtocolName": "bold_100x100_s3_2x2x2_232",
      "RepetitionTime": 2000.0,
      "Rows": 900,
      "SAR": 0.07149020973893,
      "SamplesPerPixel": 1,
      "ScanOptions": "FS",
      "ScanningSequence": "EP",
      "SequenceName": "*epfid2d1_100",
      "SequenceVariant": "SK",
      "SeriesDescription": "bold_100x100_s3_2x2x2_232",
      "SeriesNumber": 8,
      "SeriesTime": "093628.003000",
      "SliceLocation": -63.654941748074,
      "SliceThickness": 2.0,
      "SmallestImagePixelValue": 0,
      "SoftwareVersions": "syngo MR E11",
      "SpacingBetweenSlices": 1.99999999991,
      "SpecificCharacterSet": "ISO_IR 100",
      "StudyID": "1",
      "StudyTime": "090235.848000",
      "TransmitCoilName": "Body",
      "VariableFlipAngleFlag": "N",
      "WindowCenterWidthExplanation": "Algo1",
      "dBdt": 0.0},
    "slices": {}
  },
  "time": {
    "samples": {
      "AcquisitionNumber": [1, 2, 3, 4, 5, 6, 7, 8, 9, 10, 11, 12, 13, 14, 15, 16, 17, 18, 19, 20, 21, 22, 23, 24, 25, 26, 27, 28, 29, 30, 31, 32, 33, 34, 35, 36, 37, 38, 39, 40, 41, 42, 43, 44, 45, 46, 47, 48, 49, 50, 51, 52, 53, 54, 55, 56, 57, 58, 59, 60, 61, 62, 63, 64, 65, 66, 67, 68, 69, 70, 71, 72, 73, 74, 75, 76, 77, 78, 79, 80, 81, 82, 83, 84, 85, 86, 87, 88, 89, 90, 91, 92, 93, 94, 95, 96, 97, 98, 99, 100, 101, 102, 103, 104, 105, 106, 107, 108, 109, 110, 111, 112, 113, 114, 115, 116, 117, 118, 119, 120, 121, 122, 123, 124, 125, 126, 127, 128, 129, 130, 131, 132, 133, 134, 135, 136, 137, 138, 139, 140, 141, 142, 143, 144, 145, 146, 147, 148, 149, 150, 151, 152, 153, 154, 155, 156, 157, 158, 159, 160, 161, 162, 163, 164, 165, 166, 167, 168, 169, 170, 171, 172, 173, 174, 175, 176, 177, 178, 179, 180, 181, 182, 183, 184, 185, 186, 187, 188, 189, 190, 191, 192, 193, 194, 195, 196, 197, 198, 199, 200, 201, 202, 203, 204, 205, 206, 207, 208, 209, 210, 211, 212, 213, 214, 215, 216, 217, 218, 219, 220, 221, 222, 223, 224, 225, 226, 227, 228, 229, 230, 231, 232],
      "AcquisitionTime": ["093625.607500", "093627.607500", "093629.607500", "093631.607500", "093633.607500", "093635.607500", "093637.607500", "093639.607500", "093641.607500", "093643.607500", "093645.607500", "093647.607500", "093649.607500", "093651.607500", "093653.607500", "093655.607500", "093657.607500", "093659.607500", "093701.607500", "093703.607500", "093705.607500", "093707.607500", "093709.607500", "093711.607500", "093713.607500", "093715.607500", "093717.607500", "093719.607500", "093721.607500", "093723.607500", "093725.607500", "093727.607500", "093729.607500", "093731.607500", "093733.607500", "093735.607500", "093737.607500", "093739.607500", "093741.607500", "093743.607500", "093745.607500", "093747.607500", "093749.607500", "093751.607500", "093753.607500", "093755.607500", "093757.607500", "093759.607500", "093801.607500", "093803.607500", "093805.607500", "093807.607500", "093809.607500", "093811.607500", "093813.607500", "093815.607500", "093817.607500", "093819.607500", "093821.607500", "093823.607500", "093825.607500", "093827.607500", "093829.607500", "093831.607500", "093833.607500", "093835.607500", "093837.607500", "093839.607500", "093841.607500", "093843.607500", "093845.607500", "093847.607500", "093849.607500", "093851.607500", "093853.607500", "093855.607500", "093857.607500", "093859.607500", "093901.607500", "093903.607500", "093905.607500", "093907.607500", "093909.607500", "093911.607500", "093913.607500", "093915.607500", "093917.607500", "093919.607500", "093921.607500", "093923.607500", "093925.607500", "093927.607500", "093929.607500", "093931.607500", "093933.607500", "093935.607500", "093937.607500", "093939.607500", "093941.607500", "093943.607500", "093945.607500", "093947.607500", "093949.607500", "093951.607500", "093953.607500", "093955.607500", "093957.607500", "093959.607500", "094001.607500", "094003.607500", "094005.607500", "094007.607500", "094009.607500", "094011.607500", "094013.607500", "094015.607500", "094017.607500", "094019.607500", "094021.607500", "094023.607500", "094025.607500", "094027.607500", "094029.607500", "094031.607500", "094033.607500", "094035.607500", "094037.607500", "094039.607500", "094041.607500", "094043.607500", "094045.607500", "094047.607500", "094049.607500", "094051.607500", "094053.607500", "094055.607500", "094057.607500", "094059.607500", "094101.607500", "094103.607500", "094105.607500", "094107.607500", "094109.607500", "094111.607500", "094113.607500", "094115.607500", "094117.607500", "094119.607500", "094121.607500", "094123.607500", "094125.607500", "094127.607500", "094129.607500", "094131.607500", "094133.607500", "094135.607500", "094137.607500", "094139.607500", "094141.607500", "094143.607500", "094145.607500", "094147.607500", "094149.607500", "094151.607500", "094153.607500", "094155.607500", "094157.607500", "094159.607500", "094201.607500", "094203.607500", "094205.607500", "094207.607500", "094209.607500", "094211.607500", "094213.607500", "094215.607500", "094217.607500", "094219.607500", "094221.607500", "094223.607500", "094225.607500", "094227.607500", "094229.607500", "094231.607500", "094233.607500", "094235.607500", "094237.607500", "094239.607500", "094241.607500", "094243.607500", "094245.607500", "094247.607500", "094249.607500", "094251.607500", "094253.607500", "094255.607500", "094257.607500", "094259.607500", "094301.607500", "094303.607500", "094305.607500", "094307.607500", "094309.607500", "094311.607500", "094313.607500", "094315.607500", "094317.607500", "094319.607500", "094321.607500", "094323.607500", "094325.607500", "094327.607500", "094329.607500", "094331.607500", "094333.607500", "094335.607500", "094337.607500", "094339.607500", "094341.607500", "094343.607500", "094345.607500", "094347.607500", "094349.607500", "094351.607500", "094353.607500", "094355.607500", "094357.607500", "094359.607500", "094401.607500", "094403.607500", "094405.607500", "094407.607500"],
      "ContentTime": ["093628.007000", "093629.502000", "093631.502000", "093633.502000", "093635.502000", "093637.502000", "093639.501000", "093641.502000", "093643.501000", "093645.501000", "093647.501000", "093649.503000", "093651.502000", "093653.502000", "093655.502000", "093657.502000", "093659.501000", "093701.502000", "093703.502000", "093705.502000", "093707.502000", "093709.501000", "093711.501000", "093713.502000", "093715.501000", "093717.501000", "093719.502000", "093721.502000", "093723.502000", "093725.503000", "093727.501000", "093729.502000", "093731.501000", "093733.501000", "093735.501000", "093737.502000", "093739.501000", "093741.502000", "093743.503000", "093745.502000", "093747.502000", "093749.501000", "093751.501000", "093753.502000", "093755.502000", "093757.501000", "093759.502000", "093801.503000", "093803.501000", "093805.502000", "093807.501000", "093809.501000", "093811.502000", "093813.501000", "093815.501000", "093817.503000", "093819.502000", "093821.501000", "093823.502000", "093825.502000", "093827.502000", "093829.502000", "093831.502000", "093833.502000", "093835.502000", "093837.501000", "093839.502000", "093841.502000", "093843.501000", "093845.502000", "093847.501000", "093849.502000", "093851.502000", "093853.502000", "093855.501000", "093857.502000", "093859.502000", "093901.501000", "093903.501000", "093905.501000", "093907.501000", "093909.503000", "093911.503000", "093913.501000", "093915.502000", "093917.502000", "093919.502000", "093921.501000", "093923.501000", "093925.502000", "093927.502000", "093929.502000", "093931.502000", "093933.502000", "093935.501000", "093937.501000", "093939.502000", "093941.502000", "093943.501000", "093945.503000", "093947.502000", "093949.501000", "093951.501000", "093953.501000", "093955.502000", "093957.501000", "093959.501000", "094001.503000", "094003.503000", "094005.501000", "094007.502000", "094009.501000", "094011.502000", "094013.502000", "094015.501000", "094017.501000", "094019.502000", "094021.504000", "094023.501000", "094025.502000", "094027.502000", "094029.501000", "094031.501000", "094033.502000", "094035.502000", "094037.502000", "094039.502000", "094041.501000", "094043.501000", "094045.502000", "094047.502000", "094049.502000", "094051.501000", "094053.502000", "094055.502000", "094057.501000", "094059.501000", "094101.501000", "094103.501000", "094105.501000", "094107.502000", "094109.502000", "094111.503000", "094113.503000", "094115.501000", "094117.501000", "094119.502000", "094121.502000", "094123.502000", "094125.501000", "094127.501000", "094129.502000", "094131.503000", "094133.501000", "094135.502000", "094137.501000", "094139.502000", "094141.502000", "094143.501000", "094145.502000", "094147.503000", "094149.501000", "094151.502000", "094153.501000", "094155.501000", "094157.501000", "094159.502000", "094201.502000", "094203.503000", "094205.503000", "094207.501000", "094209.501000", "094211.502000", "094213.501000", "094215.501000", "094217.502000", "094219.502000", "094221.502000", "094223.503000", "094225.501000", "094227.501000", "094229.502000", "094231.501000", "094233.501000", "094235.501000", "094237.501000", "094239.503000", "094241.521000", "094243.501000", "094245.502000", "094247.502000", "094249.501000", "094251.502000", "094253.501000", "094255.502000", "094257.502000", "094259.502000", "094301.502000", "094303.501000", "094305.502000", "094307.502000", "094309.502000", "094311.502000", "094313.503000", "094315.503000", "094317.501000", "094319.502000", "094321.502000", "094323.502000", "094325.502000", "094327.502000", "094329.501000", "094331.502000", "094333.503000", "094335.501000", "094337.501000", "094339.502000", "094341.501000", "094343.502000", "094345.501000", "094347.502000", "094349.502000", "094351.503000", "094353.501000", "094355.502000", "094357.501000", "094359.502000", "094401.502000", "094403.501000", "094405.501000", "094407.502000", "094409.094000"],
      "InstanceCreationTime": ["093628.007000", "093629.502000", "093631.502000", "093633.502000", "093635.502000", "093637.502000", "093639.501000", "093641.502000", "093643.501000", "093645.501000", "093647.501000", "093649.503000", "093651.502000", "093653.502000", "093655.502000", "093657.502000", "093659.501000", "093701.502000", "093703.502000", "093705.502000", "093707.502000", "093709.501000", "093711.501000", "093713.502000", "093715.501000", "093717.501000", "093719.502000", "093721.502000", "093723.502000", "093725.503000", "093727.501000", "093729.502000", "093731.501000", "093733.501000", "093735.501000", "093737.502000", "093739.501000", "093741.502000", "093743.503000", "093745.502000", "093747.502000", "093749.501000", "093751.501000", "093753.502000", "093755.502000", "093757.501000", "093759.502000", "093801.503000", "093803.501000", "093805.502000", "093807.501000", "093809.501000", "093811.502000", "093813.501000", "093815.501000", "093817.503000", "093819.502000", "093821.501000", "093823.502000", "093825.502000", "093827.502000", "093829.502000", "093831.502000", "093833.502000", "093835.502000", "093837.501000", "093839.502000", "093841.502000", "093843.501000", "093845.502000", "093847.501000", "093849.502000", "093851.502000", "093853.502000", "093855.501000", "093857.502000", "093859.502000", "093901.501000", "093903.501000", "093905.501000", "093907.501000", "093909.503000", "093911.503000", "093913.501000", "093915.502000", "093917.502000", "093919.502000", "093921.501000", "093923.501000", "093925.502000", "093927.502000", "093929.502000", "093931.502000", "093933.502000", "093935.501000", "093937.501000", "093939.502000", "093941.502000", "093943.501000", "093945.503000", "093947.502000", "093949.501000", "093951.501000", "093953.501000", "093955.502000", "093957.501000", "093959.501000", "094001.503000", "094003.503000", "094005.501000", "094007.502000", "094009.501000", "094011.502000", "094013.502000", "094015.501000", "094017.501000", "094019.502000", "094021.504000", "094023.501000", "094025.502000", "094027.502000", "094029.501000", "094031.501000", "094033.502000", "094035.502000", "094037.502000", "094039.502000", "094041.501000", "094043.501000", "094045.502000", "094047.502000", "094049.502000", "094051.501000", "094053.502000", "094055.502000", "094057.501000", "094059.501000", "094101.501000", "094103.501000", "094105.501000", "094107.502000", "094109.502000", "094111.503000", "094113.503000", "094115.501000", "094117.501000", "094119.502000", "094121.502000", "094123.502000", "094125.501000", "094127.501000", "094129.502000", "094131.503000", "094133.501000", "094135.502000", "094137.501000", "094139.502000", "094141.502000", "094143.501000", "094145.502000", "094147.503000", "094149.501000", "094151.502000", "094153.501000", "094155.501000", "094157.501000", "094159.502000", "094201.502000", "094203.503000", "094205.503000", "094207.501000", "094209.501000", "094211.502000", "094213.501000", "094215.501000", "094217.502000", "094219.502000", "094221.502000", "094223.503000", "094225.501000", "094227.501000", "094229.502000", "094231.501000", "094233.501000", "094235.501000", "094237.501000", "094239.503000", "094241.521000", "094243.501000", "094245.502000", "094247.502000", "094249.501000", "094251.502000", "094253.501000", "094255.502000", "094257.502000", "094259.502000", "094301.502000", "094303.501000", "094305.502000", "094307.502000", "094309.502000", "094311.502000", "094313.503000", "094315.503000", "094317.501000", "094319.502000", "094321.502000", "094323.502000", "094325.502000", "094327.502000", "094329.501000", "094331.502000", "094333.503000", "094335.501000", "094337.501000", "094339.502000", "094341.501000", "094343.502000", "094345.501000", "094347.502000", "094349.502000", "094351.503000", "094353.501000", "094355.502000", "094357.501000", "094359.502000", "094401.502000", "094403.501000", "094405.501000", "094407.502000", "094409.094000"],
      "InstanceNumber": [1, 2, 3, 4, 5, 6, 7, 8, 9, 10, 11, 12, 13, 14, 15, 16, 17, 18, 19, 20, 21, 22, 23, 24, 25, 26, 27, 28, 29, 30, 31, 32, 33, 34, 35, 36, 37, 38, 39, 40, 41, 42, 43, 44, 45, 46, 47, 48, 49, 50, 51, 52, 53, 54, 55, 56, 57, 58, 59, 60, 61, 62, 63, 64, 65, 66, 67, 68, 69, 70, 71, 72, 73, 74, 75, 76, 77, 78, 79, 80, 81, 82, 83, 84, 85, 86, 87, 88, 89, 90, 91, 92, 93, 94, 95, 96, 97, 98, 99, 100, 101, 102, 103, 104, 105, 106, 107, 108, 109, 110, 111, 112, 113, 114, 115, 116, 117, 118, 119, 120, 121, 122, 123, 124, 125, 126, 127, 128, 129, 130, 131, 132, 133, 134, 135, 136, 137, 138, 139, 140, 141, 142, 143, 144, 145, 146, 147, 148, 149, 150, 151, 152, 153, 154, 155, 156, 157, 158, 159, 160, 161, 162, 163, 164, 165, 166, 167, 168, 169, 170, 171, 172, 173, 174, 175, 176, 177, 178, 179, 180, 181, 182, 183, 184, 185, 186, 187, 188, 189, 190, 191, 192, 193, 194, 195, 196, 197, 198, 199, 200, 201, 202, 203, 204, 205, 206, 207, 208, 209, 210, 211, 212, 213, 214, 215, 216, 217, 218, 219, 220, 221, 222, 223, 224, 225, 226, 227, 228, 229, 230, 231, 232],
      "LargestImagePixelValue": [3404, 3315, 3329, 3313, 3326, 3296, 3315, 3301, 3300, 3340, 3292, 3342, 3309, 3337, 3286, 3300, 3318, 3308, 3313, 3293, 3299, 3281, 3279, 3276, 3258, 3240, 3321, 3202, 3191, 3219, 3219, 3215, 3210, 3162, 3266, 3286, 3288, 3272, 3285, 3284, 3274, 3245, 3239, 3230, 3255, 3372, 3273, 3258, 3222, 3204, 3265, 3267, 3276, 3240, 3206, 3277, 3252, 3320, 3225, 3199, 3186, 3138, 3211, 3201, 3270, 3172, 3256, 3226, 3208, 3235, 3224, 3215, 3214, 3147, 3203, 3200, 3208, 3212, 3211, 3249, 3202, 3204, 3224, 3196, 3241, 3210, 3222, 3202, 3245, 3266, 3205, 3257, 3206, 3212, 3210, 3209, 3221, 3201, 3277, 3205, 3425, 3227, 3220, 3264, 3242, 3209, 3146, 3152, 3180, 3177, 3125, 3148, 3173, 3182, 3213, 3260, 3196, 3288, 3197, 3227, 3226, 3227, 3269, 3260, 3245, 3334, 3303, 3279, 3275, 3220, 3224, 3277, 3217, 3243, 3196, 3220, 3173, 3185, 3180, 3170, 3145, 3165, 3205, 3173, 3246, 3330, 3263, 3211, 3179, 3153, 3200, 3144, 3180, 3195, 3227, 3252, 3254, 3212, 3256, 3257, 3238, 3215, 3221, 3194, 3265, 3200, 3217, 3222, 3210, 3207, 3230, 3218, 3243, 3190, 3163, 3171, 3159, 3135, 3162, 3172, 3191, 3206, 3174, 3131, 3147, 3112, 3156, 3170, 3188, 3164, 3157, 3141, 3142, 3158, 3149, 3177, 3253, 3237, 3219, 3197, 3170, 3146, 3369, 3196, 3225, 3206, 3173, 3200, 3302, 3272, 3233, 3287, 3278, 3227, 3245, 3136, 3072, 3232, 3148, 3147, 3165, 3210, 3153, 3215, 3154, 3200, 3199, 3231, 3207, 3203, 3252, 3217],
      "WindowCenter": [842.0, 840.0, 840.0, 839.0, 839.0, 839.0, 839.0, 839.0, 839.0, 839.0, 839.0, 840.0, 840.0, 840.0, 839.0, 838.0, 837.0, 837.0, 838.0, 838.0, 838.0, 838.0, 839.0, 839.0, 840.0, 839.0, 839.0, 836.0, 834.0, 833.0, 830.0, 832.0, 833.0, 833.0, 835.0, 837.0, 839.0, 840.0, 837.0, 834.0, 832.0, 831.0, 831.0, 833.0, 833.0, 835.0, 836.0, 836.0, 837.0, 837.0, 838.0, 838.0, 838.0, 837.0, 837.0, 837.0, 837.0, 837.0, 836.0, 836.0, 836.0, 836.0, 836.0, 836.0, 837.0, 837.0, 838.0, 839.0, 839.0, 838.0, 838.0, 838.0, 838.0, 837.0, 838.0, 838.0, 838.0, 839.0, 838.0, 838.0, 837.0, 838.0, 838.0, 838.0, 838.0, 838.0, 839.0, 839.0, 838.0, 838.0, 838.0, 838.0, 837.0, 837.0, 836.0, 836.0, 836.0, 836.0, 836.0, 836.0, 837.0, 835.0, 833.0, 833.0, 831.0, 826.0, 827.0, 824.0, 826.0, 828.0, 830.0, 831.0, 832.0, 833.0, 834.0, 835.0, 835.0, 835.0, 834.0, 834.0, 835.0, 835.0, 836.0, 835.0, 835.0, 835.0, 836.0, 837.0, 837.0, 835.0, 834.0, 834.0, 834.0, 835.0, 835.0, 835.0, 834.0, 834.0, 833.0, 833.0, 833.0, 832.0, 833.0, 833.0, 832.0, 830.0, 836.0, 833.0, 832.0, 832.0, 832.0, 832.0, 833.0, 833.0, 834.0, 835.0, 836.0, 837.0, 836.0, 835.0, 834.0, 834.0, 834.0, 834.0, 835.0, 835.0, 835.0, 836.0, 836.0, 837.0, 837.0, 838.0, 837.0, 837.0, 836.0, 836.0, 836.0, 836.0, 837.0, 837.0, 837.0, 837.0, 837.0, 836.0, 836.0, 836.0, 837.0, 838.0, 837.0, 836.0, 836.0, 836.0, 835.0, 836.0, 835.0, 836.0, 836.0, 836.0, 836.0, 836.0, 835.0, 834.0, 833.0, 832.0, 833.0, 832.0, 832.0, 834.0, 833.0, 835.0, 835.0, 836.0, 836.0, 835.0, 834.0, 833.0, 831.0, 832.0, 831.0, 831.0, 831.0, 831.0, 831.0, 833.0, 833.0, 834.0, 835.0, 836.0, 836.0, 836.0, 837.0, 837.0],
      "WindowWidth": [1823.0, 1819.0, 1818.0, 1816.0, 1815.0, 1815.0, 1815.0, 1814.0, 1815.0, 1815.0, 1816.0, 1818.0, 1819.0, 1820.0, 1815.0, 1813.0, 1811.0, 1811.0, 1812.0, 1811.0, 1812.0, 1812.0, 1814.0, 1816.0, 1817.0, 1815.0, 1814.0, 1806.0, 1800.0, 1797.0, 1791.0, 1794.0, 1798.0, 1799.0, 1804.0, 1809.0, 1814.0, 1816.0, 1809.0, 1800.0, 1794.0, 1792.0, 1793.0, 1798.0, 1799.0, 1805.0, 1806.0, 1806.0, 1808.0, 1809.0, 1811.0, 1811.0, 1811.0, 1809.0, 1808.0, 1809.0, 1809.0, 1810.0, 1807.0, 1807.0, 1807.0, 1807.0, 1808.0, 1807.0, 1809.0, 1809.0, 1814.0, 1814.0, 1814.0, 1814.0, 1813.0, 1813.0, 1811.0, 1809.0, 1811.0, 1812.0, 1812.0, 1814.0, 1813.0, 1812.0, 1810.0, 1812.0, 1812.0, 1812.0, 1813.0, 1813.0, 1815.0, 1815.0, 1813.0, 1813.0, 1811.0, 1810.0, 1808.0, 1808.0, 1807.0, 1808.0, 1806.0, 1807.0, 1806.0, 1807.0, 1809.0, 1804.0, 1799.0, 1799.0, 1793.0, 1780.0, 1780.0, 1773.0, 1779.0, 1785.0, 1788.0, 1791.0, 1795.0, 1797.0, 1801.0, 1803.0, 1802.0, 1803.0, 1800.0, 1800.0, 1803.0, 1804.0, 1805.0, 1803.0, 1803.0, 1805.0, 1806.0, 1809.0, 1808.0, 1802.0, 1801.0, 1800.0, 1801.0, 1803.0, 1804.0, 1803.0, 1800.0, 1799.0, 1798.0, 1798.0, 1797.0, 1796.0, 1796.0, 1796.0, 1796.0, 1791.0, 1807.0, 1798.0, 1795.0, 1793.0, 1795.0, 1794.0, 1796.0, 1798.0, 1799.0, 1804.0, 1807.0, 1807.0, 1806.0, 1803.0, 1799.0, 1800.0, 1800.0, 1800.0, 1803.0, 1802.0, 1804.0, 1805.0, 1806.0, 1807.0, 1809.0, 1810.0, 1810.0, 1808.0, 1806.0, 1806.0, 1806.0, 1806.0, 1807.0, 1808.0, 1807.0, 1807.0, 1807.0, 1806.0, 1805.0, 1804.0, 1807.0, 1810.0, 1808.0, 1806.0, 1806.0, 1805.0, 1803.0, 1804.0, 1804.0, 1805.0, 1805.0, 1805.0, 1805.0, 1804.0, 1803.0, 1800.0, 1799.0, 1794.0, 1796.0, 1794.0, 1795.0, 1798.0, 1799.0, 1802.0, 1803.0, 1805.0, 1805.0, 1802.0, 1800.0, 1795.0, 1790.0, 1793.0, 1791.0, 1792.0, 1791.0, 1793.0, 1792.0, 1796.0, 1796.0, 1800.0, 1804.0, 1807.0, 1806.0, 1806.0, 1807.0, 1808.0]
    },
    "slices": {}
  }
}