{
  "AcquisitionMatrixPE": 100,
  "AcquisitionNumber": 1,
  "AcquisitionTime": "09:24:13.477500",
  "BandwidthPerPixelPhaseEncode": 18.519,
  "BaseResolution": 100,
  "BodyPartExamined": "BRAIN",
  "ConsistencyInfo": "N4_VE11C_LATEST_20160120",
  "ConversionSoftware": "dcm2niix",
  "ConversionSoftwareVersion": "v1.0.20180622 GCC4.9.2",
  "DerivedVendorReportedEchoSpacing": 0.000539986,
  "DeviceSerialNumber": "166078",
  "DwellTime": 2.1e-06,
  "EchoTime": 0.034,
  "EchoTrainLength": 100,
  "EffectiveEchoSpacing": 0.000539986,
  "FlipAngle": 90,
  "ImageOrientationPatientDICOM": [0.999918, 0.00303564, 0.0124562, 1.77499e-08, 0.971564, -0.236776],
  "ImageType": [
    "ORIGINAL",
    "PRIMARY",
    "M",
    "ND",
    "MOSAIC"
],
  "InPlanePhaseEncodingDirectionDICOM": "COL",
  "InstitutionAddress": "Street_StreetNo_Bei_Jing_District_CN_ZIP",
  "InstitutionName": "BeiJing_Normal_University",
  "InstitutionalDepartmentName": "Department",
  "MRAcquisitionType": "2D",
  "MagneticFieldStrength": 3,
  "Manufacturer": "Siemens",
  "ManufacturersModelName": "Prisma",
  "Modality": "MR",
  "MultibandAccelerationFactor": 3,
  "PartialFourier": 1,
  "PatientPosition": "HFS",
  "PercentPhaseFOV": 100,
  "PhaseEncodingDirection": "j-",
  "PhaseEncodingSteps": 100,
  "PhaseResolution": 1,
  "PixelBandwidth": 2380,
  "ProcedureStepDescription": "BNU_P2018_64CH_Liu.Jia",
  "ProtocolName": "bold_100x100_s3_2x2x2_232",
  "PulseSequenceDetails": "%SiemensSeq%_ep2d_bold",
  "ReceiveCoilActiveElements": "HC1-7;NC1",
  "ReceiveCoilName": "HeadNeck_64",
  "ReconMatrixPE": 100,
  "RepetitionTime": 2,
  "SAR": 0.0714902,
  "ScanOptions": "FS",
  "ScanningSequence": "EP",
  "SequenceName": "_epfid2d1_100",
  "SequenceVariant": "SK",
  "SeriesDescription": "bold_100x100_s3_2x2x2_232",
  "SeriesNumber": 5,
  "ShimSetting": [-5453, -11451, -1235, 335, -11, -226, -214, 35],
  "SliceThickness": 2,
  "SliceTiming": [1.485, 0, 0.99, 0.0825, 1.0725, 0.165, 1.155, 0.2475, 1.2375, 0.33, 1.32, 0.4125, 1.4025, 0.5775, 1.5675, 0.66, 1.65, 0.7425, 1.7325, 0.825, 1.815, 0.9075, 1.8975, 0.495, 1.485, 0, 0.99, 0.0825, 1.0725, 0.165, 1.155, 0.2475, 1.2375, 0.33, 1.32, 0.4125, 1.4025, 0.5775, 1.5675, 0.66, 1.65, 0.7425, 1.7325, 0.825, 1.815, 0.9075, 1.8975, 0.495, 1.485, 0, 0.99, 0.0825, 1.0725, 0.165, 1.155, 0.2475, 1.2375, 0.33, 1.32, 0.4125, 1.4025, 0.5775, 1.5675, 0.66, 1.65, 0.7425, 1.7325, 0.825, 1.815, 0.9075, 1.8975, 0.495],
  "SoftwareVersions": "syngo_MR_E11",
  "SpacingBetweenSlices": 2,
  "StationName": "AWP166078",
  "TaskName": "motor",
  "TotalReadoutTime": 0.0534586,
  "TxRefAmp": 218.336,
  "dcmmeta_affine": [
    [-1.9998356103897095, 3.5499898132229646e-08, 0.02564157173037529, 100.52993774414062],
    [-0.0060712858103215694, 1.9431283473968506, -0.47351396083831787, -79.54772186279297],
    [0.02491244114935398, 0.4735528826713562, 1.9429686069488525, -86.23638153076172],
    [0.0, 0.0, 0.0, 1.0]
],
  "dcmmeta_reorient_transform": [
    [0.0, -1.0, 0.0, 99.0],
    [1.0, 0.0, 0.0, 0.0],
    [0.0, 0.0, 1.0, 0.0],
    [0.0, 0.0, 0.0, 1.0]
],
  "dcmmeta_shape": [100, 100, 72, 232],
  "dcmmeta_slice_dim": 2,
  "dcmmeta_version": 0.6,
  "global": {
    "const": {
      "AcquisitionMatrix": [100, 0, 0, 100],
      "AngioFlag": "N",
      "BitsAllocated": 16,
      "BitsStored": 12,
      "BodyPartExamined": "BRAIN",
      "Columns": 900,
      "EchoNumbers": 1,
      "EchoTime": 34.0,
      "EchoTrainLength": 100,
      "FlipAngle": 90.0,
      "HighBit": 11,
      "ImageOrientationPatient": [0.99991781034901, 0.00303564279715, 0.01245622011869, 1.7749949e-08, 0.97156415953846, -0.2367764428745],
      "ImagePositionPatient": [-900.46420465949, -892.5018206601, 140.10152979546],
      "ImageType": [
        "ORIGINAL",
        "PRIMARY",
        "M",
        "ND",
        "MOSAIC"
],
      "ImagedNucleus": "1H",
      "ImagingFrequency": 123.25783,
      "InPlanePhaseEncodingDirection": "COL",
      "MRAcquisitionType": "2D",
      "MagneticFieldStrength": 3.0,
      "Manufacturer": "SIEMENS",
      "ManufacturerModelName": "Prisma",
      "Modality": "MR",
      "NumberOfAverages": 1.0,
      "NumberOfPhaseEncodingSteps": 100,
      "PercentPhaseFieldOfView": 100.0,
      "PercentSampling": 100.0,
      "PerformedProcedureStepStartTime": "090236.023000",
      "PhotometricInterpretation": "MONOCHROME2",
      "PixelBandwidth": 2380.0,
      "PixelRepresentation": 0,
      "PixelSpacing": [2.0, 2.0],
      "ProtocolName": "bold_100x100_s3_2x2x2_232",
      "RepetitionTime": 2000.0,
      "Rows": 900,
      "SAR": 0.07149020973893,
      "SamplesPerPixel": 1,
      "ScanOptions": "FS",
      "ScanningSequence": "EP",
      "SequenceName": "*epfid2d1_100",
      "SequenceVariant": "SK",
      "SeriesDescription": "bold_100x100_s3_2x2x2_232",
      "SeriesNumber": 5,
      "SeriesTime": "092415.757000",
      "SliceLocation": -63.654941748074,
      "SliceThickness": 2.0,
      "SmallestImagePixelValue": 0,
      "SoftwareVersions": "syngo MR E11",
      "SpacingBetweenSlices": 1.99999999991,
      "SpecificCharacterSet": "ISO_IR 100",
      "StudyID": "1",
      "StudyTime": "090235.848000",
      "TransmitCoilName": "Body",
      "VariableFlipAngleFlag": "N",
      "WindowCenterWidthExplanation": "Algo1",
      "dBdt": 0.0},
    "slices": {}
  },
  "time": {
    "samples": {
      "AcquisitionNumber": [1, 2, 3, 4, 5, 6, 7, 8, 9, 10, 11, 12, 13, 14, 15, 16, 17, 18, 19, 20, 21, 22, 23, 24, 25, 26, 27, 28, 29, 30, 31, 32, 33, 34, 35, 36, 37, 38, 39, 40, 41, 42, 43, 44, 45, 46, 47, 48, 49, 50, 51, 52, 53, 54, 55, 56, 57, 58, 59, 60, 61, 62, 63, 64, 65, 66, 67, 68, 69, 70, 71, 72, 73, 74, 75, 76, 77, 78, 79, 80, 81, 82, 83, 84, 85, 86, 87, 88, 89, 90, 91, 92, 93, 94, 95, 96, 97, 98, 99, 100, 101, 102, 103, 104, 105, 106, 107, 108, 109, 110, 111, 112, 113, 114, 115, 116, 117, 118, 119, 120, 121, 122, 123, 124, 125, 126, 127, 128, 129, 130, 131, 132, 133, 134, 135, 136, 137, 138, 139, 140, 141, 142, 143, 144, 145, 146, 147, 148, 149, 150, 151, 152, 153, 154, 155, 156, 157, 158, 159, 160, 161, 162, 163, 164, 165, 166, 167, 168, 169, 170, 171, 172, 173, 174, 175, 176, 177, 178, 179, 180, 181, 182, 183, 184, 185, 186, 187, 188, 189, 190, 191, 192, 193, 194, 195, 196, 197, 198, 199, 200, 201, 202, 203, 204, 205, 206, 207, 208, 209, 210, 211, 212, 213, 214, 215, 216, 217, 218, 219, 220, 221, 222, 223, 224, 225, 226, 227, 228, 229, 230, 231, 232],
      "AcquisitionTime": ["092413.477500", "092415.477500", "092417.477500", "092419.477500", "092421.477500", "092423.477500", "092425.477500", "092427.477500", "092429.477500", "092431.477500", "092433.477500", "092435.477500", "092437.477500", "092439.477500", "092441.477500", "092443.477500", "092445.477500", "092447.477500", "092449.477500", "092451.477500", "092453.477500", "092455.477500", "092457.477500", "092459.477500", "092501.477500", "092503.477500", "092505.477500", "092507.477500", "092509.477500", "092511.477500", "092513.477500", "092515.477500", "092517.477500", "092519.477500", "092521.477500", "092523.477500", "092525.477500", "092527.477500", "092529.477500", "092531.477500", "092533.477500", "092535.477500", "092537.477500", "092539.477500", "092541.477500", "092543.477500", "092545.477500", "092547.477500", "092549.477500", "092551.477500", "092553.477500", "092555.477500", "092557.477500", "092559.477500", "092601.477500", "092603.477500", "092605.477500", "092607.477500", "092609.477500", "092611.477500", "092613.477500", "092615.477500", "092617.477500", "092619.477500", "092621.477500", "092623.477500", "092625.477500", "092627.477500", "092629.477500", "092631.477500", "092633.477500", "092635.477500", "092637.477500", "092639.477500", "092641.477500", "092643.477500", "092645.477500", "092647.477500", "092649.477500", "092651.477500", "092653.477500", "092655.477500", "092657.477500", "092659.477500", "092701.477500", "092703.477500", "092705.477500", "092707.477500", "092709.477500", "092711.477500", "092713.477500", "092715.477500", "092717.477500", "092719.477500", "092721.477500", "092723.477500", "092725.477500", "092727.477500", "092729.477500", "092731.477500", "092733.477500", "092735.477500", "092737.477500", "092739.477500", "092741.477500", "092743.477500", "092745.477500", "092747.477500", "092749.477500", "092751.477500", "092753.477500", "092755.477500", "092757.477500", "092759.477500", "092801.477500", "092803.477500", "092805.477500", "092807.477500", "092809.477500", "092811.477500", "092813.477500", "092815.477500", "092817.477500", "092819.477500", "092821.477500", "092823.477500", "092825.477500", "092827.477500", "092829.477500", "092831.477500", "092833.477500", "092835.477500", "092837.477500", "092839.477500", "092841.477500", "092843.477500", "092845.477500", "092847.477500", "092849.477500", "092851.477500", "092853.477500", "092855.477500", "092857.477500", "092859.477500", "092901.477500", "092903.477500", "092905.477500", "092907.477500", "092909.477500", "092911.477500", "092913.477500", "092915.477500", "092917.477500", "092919.477500", "092921.477500", "092923.477500", "092925.477500", "092927.477500", "092929.477500", "092931.477500", "092933.477500", "092935.477500", "092937.477500", "092939.477500", "092941.477500", "092943.477500", "092945.477500", "092947.477500", "092949.477500", "092951.477500", "092953.477500", "092955.477500", "092957.477500", "092959.477500", "093001.477500", "093003.477500", "093005.477500", "093007.477500", "093009.477500", "093011.477500", "093013.477500", "093015.477500", "093017.477500", "093019.477500", "093021.477500", "093023.477500", "093025.477500", "093027.477500", "093029.477500", "093031.477500", "093033.477500", "093035.477500", "093037.477500", "093039.477500", "093041.477500", "093043.477500", "093045.477500", "093047.477500", "093049.477500", "093051.477500", "093053.477500", "093055.477500", "093057.477500", "093059.477500", "093101.477500", "093103.477500", "093105.477500", "093107.477500", "093109.477500", "093111.477500", "093113.477500", "093115.477500", "093117.477500", "093119.477500", "093121.477500", "093123.477500", "093125.477500", "093127.477500", "093129.477500", "093131.477500", "093133.477500", "093135.477500", "093137.477500", "093139.477500", "093141.477500", "093143.477500", "093145.477500", "093147.477500", "093149.477500", "093151.477500", "093153.477500", "093155.477500"],
      "ContentTime": ["092415.761000", "092417.257000", "092419.257000", "092421.257000", "092423.257000", "092425.756000", "092427.256000", "092429.756000", "092431.256000", "092433.256000", "092435.257000", "092437.257000", "092439.758000", "092441.757000", "092443.256000", "092445.756000", "092447.756000", "092449.757000", "092451.257000", "092453.757000", "092455.757000", "092457.257000", "092459.756000", "092501.256000", "092503.756000", "092505.757000", "092507.256000", "092509.257000", "092511.757000", "092513.257000", "092515.257000", "092517.256000", "092519.256000", "092521.256000", "092523.257000", "092525.256000", "092527.757000", "092529.757000", "092531.257000", "092533.757000", "092535.756000", "092537.256000", "092539.756000", "092541.256000", "092543.256000", "092545.258000", "092547.757000", "092549.257000", "092551.257000", "092553.256000", "092555.256000", "092557.256000", "092559.257000", "092601.256000", "092603.257000", "092605.757000", "092607.258000", "092609.257000", "092611.256000", "092613.256000", "092615.756000", "092617.257000", "092619.256000", "092621.757000", "092623.758000", "092625.258000", "092627.256000", "092629.256000", "092631.256000", "092633.256000", "092635.756000", "092637.257000", "092639.257000", "092641.758000", "092643.257000", "092645.256000", "092647.256000", "092649.256000", "092651.256000", "092653.256000", "092655.257000", "092657.257000", "092659.257000", "092701.257000", "092703.256000", "092705.256000", "092707.256000", "092709.256000", "092711.256000", "092713.257000", "092715.257000", "092717.257000", "092719.756000", "092721.757000", "092723.256000", "092725.257000", "092727.256000", "092729.757000", "092731.257000", "092733.257000", "092735.757000", "092737.757000", "092739.256000", "092741.257000", "092743.756000", "092745.256000", "092747.257000", "092749.757000", "092751.757000", "092753.257000", "092755.756000", "092757.256000", "092759.756000", "092801.257000", "092803.256000", "092805.757000", "092807.757000", "092809.757000", "092811.257000", "092813.256000", "092815.257000", "092817.256000", "092819.256000", "092821.758000", "092823.758000", "092825.757000", "092827.257000", "092829.257000", "092831.257000", "092833.256000", "092835.256000", "092837.756000", "092839.758000", "092841.758000", "092843.257000", "092845.257000", "092847.256000", "092849.256000", "092851.757000", "092853.756000", "092855.756000", "092857.258000", "092859.257000", "092901.257000", "092903.757000", "092905.756000", "092907.757000", "092909.756000", "092911.756000", "092913.256000", "092915.258000", "092917.257000", "092919.757000", "092921.758000", "092923.257000", "092925.257000", "092927.757000", "092929.757000", "092931.257000", "092933.257000", "092935.257000", "092937.257000", "092939.757000", "092941.256000", "092943.757000", "092945.256000", "092947.756000", "092949.257000", "092951.257000", "092953.257000", "092955.257000", "092957.256000", "092959.756000", "093001.257000", "093003.756000", "093005.256000", "093007.757000", "093009.257000", "093011.758000", "093013.257000", "093015.756000", "093017.757000", "093019.257000", "093021.756000", "093023.756000", "093025.257000", "093027.257000", "093029.757000", "093031.758000", "093033.257000", "093035.256000", "093037.256000", "093039.256000", "093041.257000", "093043.758000", "093045.257000", "093047.758000", "093049.756000", "093051.256000", "093053.257000", "093055.256000", "093057.256000", "093059.757000", "093101.257000", "093103.757000", "093105.257000", "093107.756000", "093109.257000", "093111.757000", "093113.257000", "093115.757000", "093117.757000", "093119.758000", "093121.758000", "093123.258000", "093125.256000", "093127.256000", "093129.256000", "093131.757000", "093133.256000", "093135.758000", "093137.258000", "093139.257000", "093141.257000", "093143.256000", "093145.256000", "093147.256000", "093149.257000", "093151.757000", "093153.758000", "093155.257000", "093157.228000"],
      "InstanceCreationTime": ["092415.761000", "092417.257000", "092419.257000", "092421.257000", "092423.257000", "092425.756000", "092427.256000", "092429.756000", "092431.256000", "092433.256000", "092435.257000", "092437.257000", "092439.758000", "092441.757000", "092443.256000", "092445.756000", "092447.756000", "092449.757000", "092451.257000", "092453.757000", "092455.757000", "092457.257000", "092459.756000", "092501.256000", "092503.756000", "092505.757000", "092507.256000", "092509.257000", "092511.757000", "092513.257000", "092515.257000", "092517.256000", "092519.256000", "092521.256000", "092523.257000", "092525.256000", "092527.757000", "092529.757000", "092531.257000", "092533.757000", "092535.756000", "092537.256000", "092539.756000", "092541.256000", "092543.256000", "092545.258000", "092547.757000", "092549.257000", "092551.257000", "092553.256000", "092555.256000", "092557.256000", "092559.257000", "092601.256000", "092603.257000", "092605.757000", "092607.258000", "092609.257000", "092611.256000", "092613.256000", "092615.756000", "092617.257000", "092619.256000", "092621.757000", "092623.758000", "092625.258000", "092627.256000", "092629.256000", "092631.256000", "092633.256000", "092635.756000", "092637.257000", "092639.257000", "092641.758000", "092643.257000", "092645.256000", "092647.256000", "092649.256000", "092651.256000", "092653.256000", "092655.257000", "092657.257000", "092659.257000", "092701.257000", "092703.256000", "092705.256000", "092707.256000", "092709.256000", "092711.256000", "092713.257000", "092715.257000", "092717.257000", "092719.756000", "092721.757000", "092723.256000", "092725.257000", "092727.256000", "092729.757000", "092731.257000", "092733.257000", "092735.757000", "092737.757000", "092739.256000", "092741.257000", "092743.756000", "092745.256000", "092747.257000", "092749.757000", "092751.757000", "092753.257000", "092755.756000", "092757.256000", "092759.756000", "092801.257000", "092803.256000", "092805.757000", "092807.757000", "092809.757000", "092811.257000", "092813.256000", "092815.257000", "092817.256000", "092819.256000", "092821.758000", "092823.758000", "092825.757000", "092827.257000", "092829.257000", "092831.257000", "092833.256000", "092835.256000", "092837.756000", "092839.758000", "092841.758000", "092843.257000", "092845.257000", "092847.256000", "092849.256000", "092851.757000", "092853.756000", "092855.756000", "092857.258000", "092859.257000", "092901.257000", "092903.757000", "092905.756000", "092907.757000", "092909.756000", "092911.756000", "092913.256000", "092915.258000", "092917.257000", "092919.757000", "092921.758000", "092923.257000", "092925.257000", "092927.757000", "092929.757000", "092931.257000", "092933.257000", "092935.257000", "092937.257000", "092939.757000", "092941.256000", "092943.757000", "092945.256000", "092947.756000", "092949.257000", "092951.257000", "092953.257000", "092955.257000", "092957.256000", "092959.756000", "093001.257000", "093003.756000", "093005.256000", "093007.757000", "093009.257000", "093011.758000", "093013.257000", "093015.756000", "093017.757000", "093019.257000", "093021.756000", "093023.756000", "093025.257000", "093027.257000", "093029.757000", "093031.758000", "093033.257000", "093035.256000", "093037.256000", "093039.256000", "093041.257000", "093043.758000", "093045.257000", "093047.758000", "093049.756000", "093051.256000", "093053.257000", "093055.256000", "093057.256000", "093059.757000", "093101.257000", "093103.757000", "093105.257000", "093107.756000", "093109.257000", "093111.757000", "093113.257000", "093115.757000", "093117.757000", "093119.758000", "093121.758000", "093123.258000", "093125.256000", "093127.256000", "093129.256000", "093131.757000", "093133.256000", "093135.758000", "093137.258000", "093139.257000", "093141.257000", "093143.256000", "093145.256000", "093147.256000", "093149.257000", "093151.757000", "093153.758000", "093155.257000", "093157.228000"],
      "InstanceNumber": [1, 2, 3, 4, 5, 6, 7, 8, 9, 10, 11, 12, 13, 14, 15, 16, 17, 18, 19, 20, 21, 22, 23, 24, 25, 26, 27, 28, 29, 30, 31, 32, 33, 34, 35, 36, 37, 38, 39, 40, 41, 42, 43, 44, 45, 46, 47, 48, 49, 50, 51, 52, 53, 54, 55, 56, 57, 58, 59, 60, 61, 62, 63, 64, 65, 66, 67, 68, 69, 70, 71, 72, 73, 74, 75, 76, 77, 78, 79, 80, 81, 82, 83, 84, 85, 86, 87, 88, 89, 90, 91, 92, 93, 94, 95, 96, 97, 98, 99, 100, 101, 102, 103, 104, 105, 106, 107, 108, 109, 110, 111, 112, 113, 114, 115, 116, 117, 118, 119, 120, 121, 122, 123, 124, 125, 126, 127, 128, 129, 130, 131, 132, 133, 134, 135, 136, 137, 138, 139, 140, 141, 142, 143, 144, 145, 146, 147, 148, 149, 150, 151, 152, 153, 154, 155, 156, 157, 158, 159, 160, 161, 162, 163, 164, 165, 166, 167, 168, 169, 170, 171, 172, 173, 174, 175, 176, 177, 178, 179, 180, 181, 182, 183, 184, 185, 186, 187, 188, 189, 190, 191, 192, 193, 194, 195, 196, 197, 198, 199, 200, 201, 202, 203, 204, 205, 206, 207, 208, 209, 210, 211, 212, 213, 214, 215, 216, 217, 218, 219, 220, 221, 222, 223, 224, 225, 226, 227, 228, 229, 230, 231, 232],
      "LargestImagePixelValue": [3360, 3337, 3337, 3337, 3310, 3312, 3298, 3330, 3342, 3273, 3259, 3262, 3309, 3285, 3311, 3303, 3287, 3242, 3249, 3234, 3251, 3293, 3325, 3357, 3323, 3236, 3203, 3203, 3213, 3208, 3197, 3202, 3230, 3169, 3279, 3220, 3208, 3214, 3194, 3283, 3151, 3177, 3211, 3191, 3210, 3180, 3251, 3228, 3230, 3216, 3219, 3229, 3218, 3232, 3209, 3215, 3230, 3268, 3411, 3356, 3387, 3350, 3324, 3329, 3355, 3349, 3338, 3353, 3334, 3389, 3409, 3376, 3356, 3320, 3253, 3325, 3312, 3232, 3271, 3260, 3200, 3206, 3274, 3223, 3278, 3303, 3330, 3352, 3292, 3304, 3268, 3264, 3255, 3269, 3273, 3290, 3280, 3262, 3265, 3271, 3288, 3277, 3259, 3280, 3273, 3253, 3318, 3261, 3241, 3252, 3244, 3223, 3297, 3243, 3276, 3272, 3297, 3295, 3321, 3326, 3338, 3289, 3289, 3300, 3294, 3287, 3319, 3302, 3288, 3326, 3283, 3299, 3308, 3308, 3314, 3339, 3336, 3337, 3356, 3327, 3334, 3347, 3347, 3307, 3292, 3257, 3262, 3265, 3267, 3251, 3236, 3251, 3241, 3365, 3347, 3236, 3376, 3358, 3356, 3370, 3362, 3331, 3321, 3332, 3308, 3329, 3315, 3314, 3298, 3295, 3285, 3276, 3286, 3332, 3317, 3323, 3286, 3301, 3244, 3285, 3293, 3261, 3304, 3290, 3319, 3308, 3330, 3318, 3317, 3320, 3344, 3327, 3328, 3249, 3295, 3245, 3276, 3347, 3315, 3294, 3300, 3296, 3319, 3327, 3326, 3302, 3305, 3301, 3287, 3261, 3351, 3306, 3320, 3329, 3349, 3331, 3309, 3320, 3277, 3421, 3393, 3358, 3324, 3310, 3345, 3291, 3311, 3298, 3280, 3281, 3300, 3331],
      "WindowCenter": [840.0, 839.0, 839.0, 839.0, 838.0, 838.0, 839.0, 840.0, 840.0, 840.0, 840.0, 839.0, 839.0, 839.0, 839.0, 839.0, 839.0, 839.0, 839.0, 839.0, 840.0, 841.0, 841.0, 840.0, 838.0, 837.0, 837.0, 836.0, 836.0, 836.0, 836.0, 836.0, 837.0, 835.0, 836.0, 835.0, 833.0, 834.0, 834.0, 832.0, 828.0, 828.0, 828.0, 830.0, 830.0, 831.0, 833.0, 833.0, 833.0, 834.0, 835.0, 835.0, 835.0, 835.0, 835.0, 834.0, 835.0, 836.0, 838.0, 837.0, 837.0, 837.0, 836.0, 837.0, 837.0, 837.0, 838.0, 839.0, 840.0, 841.0, 839.0, 837.0, 836.0, 836.0, 836.0, 835.0, 833.0, 832.0, 832.0, 832.0, 834.0, 835.0, 836.0, 837.0, 838.0, 839.0, 840.0, 841.0, 840.0, 838.0, 838.0, 838.0, 837.0, 837.0, 836.0, 837.0, 837.0, 838.0, 838.0, 838.0, 838.0, 837.0, 836.0, 836.0, 835.0, 834.0, 834.0, 834.0, 835.0, 835.0, 833.0, 831.0, 832.0, 831.0, 832.0, 833.0, 833.0, 834.0, 835.0, 836.0, 836.0, 836.0, 837.0, 838.0, 838.0, 839.0, 839.0, 839.0, 838.0, 839.0, 839.0, 839.0, 839.0, 840.0, 840.0, 840.0, 840.0, 839.0, 840.0, 839.0, 839.0, 839.0, 839.0, 839.0, 839.0, 839.0, 839.0, 839.0, 838.0, 837.0, 836.0, 836.0, 835.0, 834.0, 834.0, 830.0, 836.0, 836.0, 836.0, 836.0, 836.0, 837.0, 837.0, 837.0, 838.0, 837.0, 835.0, 833.0, 833.0, 833.0, 833.0, 834.0, 833.0, 833.0, 833.0, 833.0, 834.0, 835.0, 835.0, 838.0, 838.0, 837.0, 837.0, 837.0, 837.0, 837.0, 836.0, 836.0, 836.0, 836.0, 835.0, 835.0, 834.0, 833.0, 832.0, 833.0, 833.0, 833.0, 834.0, 833.0, 835.0, 835.0, 836.0, 836.0, 834.0, 833.0, 832.0, 832.0, 832.0, 833.0, 835.0, 836.0, 837.0, 837.0, 837.0, 836.0, 836.0, 836.0, 833.0, 836.0, 834.0, 835.0, 834.0, 835.0, 836.0, 836.0, 837.0, 837.0, 837.0, 837.0, 836.0, 836.0],
      "WindowWidth": [1819.0, 1816.0, 1816.0, 1815.0, 1814.0, 1814.0, 1816.0, 1820.0, 1819.0, 1819.0, 1818.0, 1817.0, 1817.0, 1815.0, 1815.0, 1815.0, 1815.0, 1814.0, 1814.0, 1815.0, 1818.0, 1821.0, 1821.0, 1819.0, 1814.0, 1809.0, 1809.0, 1807.0, 1807.0, 1806.0, 1808.0, 1808.0, 1809.0, 1805.0, 1808.0, 1803.0, 1799.0, 1803.0, 1802.0, 1798.0, 1786.0, 1786.0, 1786.0, 1789.0, 1792.0, 1794.0, 1798.0, 1798.0, 1800.0, 1801.0, 1804.0, 1804.0, 1804.0, 1804.0, 1803.0, 1802.0, 1804.0, 1808.0, 1813.0, 1810.0, 1811.0, 1810.0, 1809.0, 1810.0, 1811.0, 1812.0, 1815.0, 1817.0, 1819.0, 1821.0, 1816.0, 1810.0, 1809.0, 1807.0, 1807.0, 1805.0, 1799.0, 1797.0, 1797.0, 1797.0, 1801.0, 1805.0, 1808.0, 1809.0, 1813.0, 1816.0, 1819.0, 1821.0, 1818.0, 1814.0, 1813.0, 1813.0, 1809.0, 1809.0, 1808.0, 1810.0, 1812.0, 1812.0, 1812.0, 1812.0, 1812.0, 1811.0, 1808.0, 1807.0, 1805.0, 1803.0, 1803.0, 1801.0, 1804.0, 1805.0, 1800.0, 1794.0, 1796.0, 1794.0, 1797.0, 1798.0, 1800.0, 1802.0, 1804.0, 1806.0, 1808.0, 1808.0, 1810.0, 1813.0, 1814.0, 1814.0, 1816.0, 1814.0, 1814.0, 1815.0, 1815.0, 1816.0, 1817.0, 1817.0, 1817.0, 1819.0, 1817.0, 1816.0, 1819.0, 1817.0, 1816.0, 1816.0, 1817.0, 1816.0, 1816.0, 1814.0, 1815.0, 1815.0, 1812.0, 1809.0, 1807.0, 1806.0, 1805.0, 1802.0, 1803.0, 1790.0, 1808.0, 1806.0, 1808.0, 1809.0, 1809.0, 1809.0, 1809.0, 1812.0, 1812.0, 1811.0, 1805.0, 1800.0, 1799.0, 1799.0, 1800.0, 1801.0, 1800.0, 1799.0, 1797.0, 1799.0, 1800.0, 1804.0, 1803.0, 1811.0, 1811.0, 1810.0, 1811.0, 1809.0, 1809.0, 1808.0, 1808.0, 1809.0, 1808.0, 1808.0, 1805.0, 1803.0, 1801.0, 1798.0, 1795.0, 1799.0, 1799.0, 1800.0, 1802.0, 1799.0, 1803.0, 1805.0, 1808.0, 1806.0, 1803.0, 1797.0, 1794.0, 1794.0, 1796.0, 1800.0, 1805.0, 1807.0, 1810.0, 1810.0, 1810.0, 1808.0, 1807.0, 1807.0, 1798.0, 1806.0, 1802.0, 1803.0, 1802.0, 1803.0, 1807.0, 1808.0, 1809.0, 1809.0, 1809.0, 1809.0, 1808.0, 1808.0]
    },
    "slices": {}
  }
}