{
  "AcquisitionMatrixPE": 100,
  "AcquisitionNumber": 1,
  "AcquisitionTime": "09:06:22.487500",
  "BandwidthPerPixelPhaseEncode": 18.519,
  "BaseResolution": 100,
  "BodyPartExamined": "BRAIN",
  "ConsistencyInfo": "N4_VE11C_LATEST_20160120",
  "ConversionSoftware": "dcm2niix",
  "ConversionSoftwareVersion": "v1.0.20180622 GCC4.9.2",
  "DerivedVendorReportedEchoSpacing": 0.000539986,
  "DeviceSerialNumber": "166078",
  "DwellTime": 2.1e-06,
  "EchoTime": 0.034,
  "EchoTrainLength": 100,
  "EffectiveEchoSpacing": 0.000539986,
  "FlipAngle": 90,
  "ImageOrientationPatientDICOM": [0.999918, 0.00303564, 0.0124562, 1.77499e-08, 0.971564, -0.236776],
  "ImageType": [
    "ORIGINAL",
    "PRIMARY",
    "M",
    "ND",
    "MOSAIC"
],
  "InPlanePhaseEncodingDirectionDICOM": "COL",
  "InstitutionAddress": "Street_StreetNo_Bei_Jing_District_CN_ZIP",
  "InstitutionName": "BeiJing_Normal_University",
  "InstitutionalDepartmentName": "Department",
  "MRAcquisitionType": "2D",
  "MagneticFieldStrength": 3,
  "Manufacturer": "Siemens",
  "ManufacturersModelName": "Prisma",
  "Modality": "MR",
  "MultibandAccelerationFactor": 3,
  "PartialFourier": 1,
  "PatientPosition": "HFS",
  "PercentPhaseFOV": 100,
  "PhaseEncodingDirection": "j-",
  "PhaseEncodingSteps": 100,
  "PhaseResolution": 1,
  "PixelBandwidth": 2380,
  "ProcedureStepDescription": "BNU_P2018_64CH_Liu.Jia",
  "ProtocolName": "bold_100x100_s3_2x2x2_232",
  "PulseSequenceDetails": "%SiemensSeq%_ep2d_bold",
  "ReceiveCoilActiveElements": "HC1-7;NC1",
  "ReceiveCoilName": "HeadNeck_64",
  "ReconMatrixPE": 100,
  "RepetitionTime": 2,
  "SAR": 0.0714902,
  "ScanOptions": "FS",
  "ScanningSequence": "EP",
  "SequenceName": "_epfid2d1_100",
  "SequenceVariant": "SK",
  "SeriesDescription": "bold_100x100_s3_2x2x2_232",
  "SeriesNumber": 3,
  "ShimSetting": [-5453, -11451, -1235, 335, -11, -226, -214, 35],
  "SliceThickness": 2,
  "SliceTiming": [1.4825, 0, 0.9875, 0.0825, 1.07, 0.165, 1.1525, 0.2475, 1.235, 0.33, 1.3175, 0.41, 1.4, 0.575, 1.565, 0.6575, 1.6475, 0.74, 1.73, 0.8225, 1.8125, 0.905, 1.895, 0.4925, 1.4825, 0, 0.9875, 0.0825, 1.07, 0.165, 1.1525, 0.2475, 1.235, 0.33, 1.3175, 0.41, 1.4, 0.575, 1.565, 0.6575, 1.6475, 0.74, 1.73, 0.8225, 1.8125, 0.905, 1.895, 0.4925, 1.4825, 0, 0.9875, 0.0825, 1.07, 0.165, 1.1525, 0.2475, 1.235, 0.33, 1.3175, 0.41, 1.4, 0.575, 1.565, 0.6575, 1.6475, 0.74, 1.73, 0.8225, 1.8125, 0.905, 1.895, 0.4925],
  "SoftwareVersions": "syngo_MR_E11",
  "SpacingBetweenSlices": 2,
  "StationName": "AWP166078",
  "TaskName": "motor",
  "TotalReadoutTime": 0.0534586,
  "TxRefAmp": 218.336,
  "dcmmeta_affine": [
    [-1.9998356103897095, 3.5499898132229646e-08, 0.02564157173037529, 100.52993774414062],
    [-0.0060712858103215694, 1.9431283473968506, -0.47351396083831787, -79.54772186279297],
    [0.02491244114935398, 0.4735528826713562, 1.9429686069488525, -86.23638153076172],
    [0.0, 0.0, 0.0, 1.0]
],
  "dcmmeta_reorient_transform": [
    [0.0, -1.0, 0.0, 99.0],
    [1.0, 0.0, 0.0, 0.0],
    [0.0, 0.0, 1.0, 0.0],
    [0.0, 0.0, 0.0, 1.0]
],
  "dcmmeta_shape": [100, 100, 72, 232],
  "dcmmeta_slice_dim": 2,
  "dcmmeta_version": 0.6,
  "global": {
    "const": {
      "AcquisitionMatrix": [100, 0, 0, 100],
      "AngioFlag": "N",
      "BitsAllocated": 16,
      "BitsStored": 12,
      "BodyPartExamined": "BRAIN",
      "Columns": 900,
      "EchoNumbers": 1,
      "EchoTime": 34.0,
      "EchoTrainLength": 100,
      "FlipAngle": 90.0,
      "HighBit": 11,
      "ImageOrientationPatient": [0.99991781034901, 0.00303564279715, 0.01245622011869, 1.7749949e-08, 0.97156415953846, -0.2367764428745],
      "ImagePositionPatient": [-900.46420465949, -892.5018206601, 140.10152979546],
      "ImageType": [
        "ORIGINAL",
        "PRIMARY",
        "M",
        "ND",
        "MOSAIC"
],
      "ImagedNucleus": "1H",
      "ImagingFrequency": 123.25782,
      "InPlanePhaseEncodingDirection": "COL",
      "MRAcquisitionType": "2D",
      "MagneticFieldStrength": 3.0,
      "Manufacturer": "SIEMENS",
      "ManufacturerModelName": "Prisma",
      "Modality": "MR",
      "NumberOfAverages": 1.0,
      "NumberOfPhaseEncodingSteps": 100,
      "PercentPhaseFieldOfView": 100.0,
      "PercentSampling": 100.0,
      "PerformedProcedureStepStartTime": "090236.023000",
      "PhotometricInterpretation": "MONOCHROME2",
      "PixelBandwidth": 2380.0,
      "PixelRepresentation": 0,
      "PixelSpacing": [2.0, 2.0],
      "ProtocolName": "bold_100x100_s3_2x2x2_232",
      "RepetitionTime": 2000.0,
      "Rows": 900,
      "SAR": 0.07149020973893,
      "SamplesPerPixel": 1,
      "ScanOptions": "FS",
      "ScanningSequence": "EP",
      "SequenceName": "*epfid2d1_100",
      "SequenceVariant": "SK",
      "SeriesDescription": "bold_100x100_s3_2x2x2_232",
      "SeriesNumber": 3,
      "SeriesTime": "090625.804000",
      "SliceLocation": -63.654941748074,
      "SliceThickness": 2.0,
      "SmallestImagePixelValue": 0,
      "SoftwareVersions": "syngo MR E11",
      "SpacingBetweenSlices": 1.99999999991,
      "SpecificCharacterSet": "ISO_IR 100",
      "StudyID": "1",
      "StudyTime": "090235.848000",
      "TransmitCoilName": "Body",
      "VariableFlipAngleFlag": "N",
      "WindowCenterWidthExplanation": "Algo1",
      "dBdt": 0.0},
    "slices": {}
  },
  "time": {
    "samples": {
      "AcquisitionNumber": [1, 2, 3, 4, 5, 6, 7, 8, 9, 10, 11, 12, 13, 14, 15, 16, 17, 18, 19, 20, 21, 22, 23, 24, 25, 26, 27, 28, 29, 30, 31, 32, 33, 34, 35, 36, 37, 38, 39, 40, 41, 42, 43, 44, 45, 46, 47, 48, 49, 50, 51, 52, 53, 54, 55, 56, 57, 58, 59, 60, 61, 62, 63, 64, 65, 66, 67, 68, 69, 70, 71, 72, 73, 74, 75, 76, 77, 78, 79, 80, 81, 82, 83, 84, 85, 86, 87, 88, 89, 90, 91, 92, 93, 94, 95, 96, 97, 98, 99, 100, 101, 102, 103, 104, 105, 106, 107, 108, 109, 110, 111, 112, 113, 114, 115, 116, 117, 118, 119, 120, 121, 122, 123, 124, 125, 126, 127, 128, 129, 130, 131, 132, 133, 134, 135, 136, 137, 138, 139, 140, 141, 142, 143, 144, 145, 146, 147, 148, 149, 150, 151, 152, 153, 154, 155, 156, 157, 158, 159, 160, 161, 162, 163, 164, 165, 166, 167, 168, 169, 170, 171, 172, 173, 174, 175, 176, 177, 178, 179, 180, 181, 182, 183, 184, 185, 186, 187, 188, 189, 190, 191, 192, 193, 194, 195, 196, 197, 198, 199, 200, 201, 202, 203, 204, 205, 206, 207, 208, 209, 210, 211, 212, 213, 214, 215, 216, 217, 218, 219, 220, 221, 222, 223, 224, 225, 226, 227, 228, 229, 230, 231, 232],
      "AcquisitionTime": ["090622.487500", "090624.487500", "090626.487500", "090628.487500", "090630.487500", "090632.487500", "090634.487500", "090636.487500", "090638.487500", "090640.487500", "090642.487500", "090644.487500", "090646.487500", "090648.487500", "090650.487500", "090652.487500", "090654.487500", "090656.487500", "090658.487500", "090700.487500", "090702.487500", "090704.487500", "090706.487500", "090708.487500", "090710.487500", "090712.487500", "090714.487500", "090716.487500", "090718.487500", "090720.487500", "090722.487500", "090724.487500", "090726.487500", "090728.487500", "090730.487500", "090732.487500", "090734.487500", "090736.487500", "090738.487500", "090740.487500", "090742.487500", "090744.487500", "090746.487500", "090748.487500", "090750.487500", "090752.487500", "090754.487500", "090756.487500", "090758.487500", "090800.487500", "090802.487500", "090804.487500", "090806.487500", "090808.487500", "090810.487500", "090812.487500", "090814.487500", "090816.487500", "090818.487500", "090820.487500", "090822.487500", "090824.487500", "090826.487500", "090828.487500", "090830.487500", "090832.487500", "090834.487500", "090836.487500", "090838.487500", "090840.487500", "090842.487500", "090844.487500", "090846.487500", "090848.487500", "090850.487500", "090852.487500", "090854.487500", "090856.487500", "090858.487500", "090900.487500", "090902.487500", "090904.487500", "090906.487500", "090908.487500", "090910.487500", "090912.487500", "090914.487500", "090916.487500", "090918.487500", "090920.487500", "090922.487500", "090924.487500", "090926.487500", "090928.487500", "090930.487500", "090932.487500", "090934.487500", "090936.487500", "090938.487500", "090940.487500", "090942.487500", "090944.487500", "090946.487500", "090948.487500", "090950.487500", "090952.487500", "090954.487500", "090956.487500", "090958.487500", "091000.487500", "091002.487500", "091004.487500", "091006.487500", "091008.487500", "091010.487500", "091012.487500", "091014.487500", "091016.487500", "091018.487500", "091020.487500", "091022.487500", "091024.487500", "091026.487500", "091028.487500", "091030.487500", "091032.487500", "091034.487500", "091036.487500", "091038.487500", "091040.487500", "091042.487500", "091044.487500", "091046.487500", "091048.487500", "091050.487500", "091052.487500", "091054.487500", "091056.487500", "091058.487500", "091100.487500", "091102.487500", "091104.487500", "091106.487500", "091108.487500", "091110.487500", "091112.487500", "091114.487500", "091116.487500", "091118.487500", "091120.487500", "091122.487500", "091124.487500", "091126.487500", "091128.487500", "091130.487500", "091132.487500", "091134.487500", "091136.487500", "091138.487500", "091140.487500", "091142.487500", "091144.487500", "091146.487500", "091148.487500", "091150.487500", "091152.487500", "091154.487500", "091156.487500", "091158.487500", "091200.487500", "091202.487500", "091204.487500", "091206.487500", "091208.487500", "091210.487500", "091212.487500", "091214.487500", "091216.487500", "091218.487500", "091220.487500", "091222.487500", "091224.487500", "091226.487500", "091228.487500", "091230.487500", "091232.487500", "091234.487500", "091236.487500", "091238.487500", "091240.487500", "091242.487500", "091244.487500", "091246.487500", "091248.487500", "091250.487500", "091252.487500", "091254.487500", "091256.487500", "091258.487500", "091300.487500", "091302.487500", "091304.487500", "091306.487500", "091308.487500", "091310.487500", "091312.487500", "091314.487500", "091316.487500", "091318.487500", "091320.487500", "091322.487500", "091324.487500", "091326.487500", "091328.487500", "091330.487500", "091332.487500", "091334.487500", "091336.487500", "091338.487500", "091340.487500", "091342.487500", "091344.487500", "091346.487500", "091348.487500", "091350.487500", "091352.487500", "091354.487500", "091356.487500", "091358.487500", "091400.487500", "091402.487500", "091404.487500"],
      "ContentTime": ["090625.808000", "090627.303000", "090629.302000", "090630.803000", "090632.804000", "090635.303000", "090636.803000", "090638.804000", "090641.303000", "090642.803000", "090644.803000", "090646.803000", "090648.803000", "090651.303000", "090652.803000", "090654.803000", "090656.803000", "090659.303000", "090700.804000", "090703.302000", "090704.802000", "090706.803000", "090708.803000", "090710.803000", "090712.804000", "090714.803000", "090716.804000", "090718.803000", "090720.802000", "090722.802000", "090724.803000", "090726.803000", "090729.303000", "090730.803000", "090732.803000", "090734.804000", "090736.803000", "090738.803000", "090740.824000", "090742.804000", "090744.803000", "090746.803000", "090748.803000", "090751.303000", "090752.803000", "090754.803000", "090756.802000", "090758.803000", "090801.303000", "090802.803000", "090805.303000", "090806.803000", "090808.803000", "090810.803000", "090812.803000", "090814.803000", "090816.803000", "090818.803000", "090820.804000", "090822.804000", "090824.803000", "090826.804000", "090829.304000", "090830.803000", "090832.802000", "090834.803000", "090836.823000", "090838.803000", "090840.803000", "090842.804000", "090844.804000", "090846.804000", "090848.802000", "090851.303000", "090852.803000", "090854.803000", "090856.803000", "090858.804000", "090900.804000", "090902.803000", "090904.803000", "090906.802000", "090908.803000", "090911.304000", "090912.803000", "090915.303000", "090917.303000", "090918.804000", "090920.804000", "090922.803000", "090924.802000", "090926.803000", "090928.804000", "090930.803000", "090932.803000", "090934.804000", "090936.803000", "090938.803000", "090940.802000", "090942.803000", "090944.803000", "090946.803000", "090948.803000", "090950.803000", "090952.803000", "090954.803000", "090956.803000", "090958.802000", "091000.803000", "091002.803000", "091004.803000", "091006.804000", "091008.803000", "091010.803000", "091012.803000", "091014.803000", "091016.803000", "091018.803000", "091020.803000", "091022.804000", "091024.804000", "091026.803000", "091028.803000", "091030.804000", "091032.802000", "091034.802000", "091036.804000", "091038.804000", "091040.804000", "091042.803000", "091044.803000", "091047.303000", "091048.803000", "091051.302000", "091052.804000", "091054.804000", "091056.804000", "091058.803000", "091100.803000", "091102.803000", "091104.803000", "091106.804000", "091108.802000", "091110.803000", "091112.803000", "091114.803000", "091116.803000", "091118.804000", "091121.303000", "091123.304000", "091124.804000", "091126.803000", "091128.803000", "091131.304000", "091132.804000", "091134.804000", "091136.804000", "091138.803000", "091140.803000", "091142.803000", "091144.803000", "091147.303000", "091148.803000", "091150.803000", "091153.304000", "091154.816000", "091156.803000", "091159.303000", "091200.802000", "091202.804000", "091204.803000", "091206.803000", "091208.803000", "091210.803000", "091212.803000", "091214.803000", "091216.804000", "091218.803000", "091220.803000", "091222.803000", "091224.803000", "091226.804000", "091228.803000", "091230.804000", "091232.803000", "091234.803000", "091236.802000", "091238.803000", "091240.803000", "091242.804000", "091244.803000", "091246.803000", "091248.803000", "091250.803000", "091252.803000", "091254.802000", "091256.803000", "091258.804000", "091301.303000", "091302.804000", "091304.804000", "091306.804000", "091309.303000", "091310.802000", "091312.803000", "091315.304000", "091316.804000", "091318.803000", "091321.303000", "091322.804000", "091324.804000", "091326.803000", "091328.802000", "091331.303000", "091332.803000", "091334.804000", "091336.803000", "091338.803000", "091340.803000", "091342.803000", "091345.303000", "091346.802000", "091348.804000", "091350.804000", "091352.803000", "091354.803000", "091356.803000", "091359.303000", "091400.803000", "091402.802000", "091404.803000", "091406.708000"],
      "InstanceCreationTime": ["090625.808000", "090627.303000", "090629.302000", "090630.803000", "090632.804000", "090635.303000", "090636.803000", "090638.804000", "090641.303000", "090642.803000", "090644.803000", "090646.803000", "090648.803000", "090651.303000", "090652.803000", "090654.803000", "090656.803000", "090659.303000", "090700.804000", "090703.302000", "090704.802000", "090706.803000", "090708.803000", "090710.803000", "090712.804000", "090714.803000", "090716.804000", "090718.803000", "090720.802000", "090722.802000", "090724.803000", "090726.803000", "090729.303000", "090730.803000", "090732.803000", "090734.804000", "090736.803000", "090738.803000", "090740.824000", "090742.804000", "090744.803000", "090746.803000", "090748.803000", "090751.303000", "090752.803000", "090754.803000", "090756.802000", "090758.803000", "090801.303000", "090802.803000", "090805.303000", "090806.803000", "090808.803000", "090810.803000", "090812.803000", "090814.803000", "090816.803000", "090818.803000", "090820.804000", "090822.804000", "090824.803000", "090826.804000", "090829.304000", "090830.803000", "090832.802000", "090834.803000", "090836.823000", "090838.803000", "090840.803000", "090842.804000", "090844.804000", "090846.804000", "090848.802000", "090851.303000", "090852.803000", "090854.803000", "090856.803000", "090858.804000", "090900.804000", "090902.803000", "090904.803000", "090906.802000", "090908.803000", "090911.304000", "090912.803000", "090915.303000", "090917.303000", "090918.804000", "090920.804000", "090922.803000", "090924.802000", "090926.803000", "090928.804000", "090930.803000", "090932.803000", "090934.804000", "090936.803000", "090938.803000", "090940.802000", "090942.803000", "090944.803000", "090946.803000", "090948.803000", "090950.803000", "090952.803000", "090954.803000", "090956.803000", "090958.802000", "091000.803000", "091002.803000", "091004.803000", "091006.804000", "091008.803000", "091010.803000", "091012.803000", "091014.803000", "091016.803000", "091018.803000", "091020.803000", "091022.804000", "091024.804000", "091026.803000", "091028.803000", "091030.804000", "091032.802000", "091034.802000", "091036.804000", "091038.804000", "091040.804000", "091042.803000", "091044.803000", "091047.303000", "091048.803000", "091051.302000", "091052.804000", "091054.804000", "091056.804000", "091058.803000", "091100.803000", "091102.803000", "091104.803000", "091106.804000", "091108.802000", "091110.803000", "091112.803000", "091114.803000", "091116.803000", "091118.804000", "091121.303000", "091123.304000", "091124.804000", "091126.803000", "091128.803000", "091131.304000", "091132.804000", "091134.804000", "091136.804000", "091138.803000", "091140.803000", "091142.803000", "091144.803000", "091147.303000", "091148.803000", "091150.803000", "091153.304000", "091154.816000", "091156.803000", "091159.303000", "091200.802000", "091202.804000", "091204.803000", "091206.803000", "091208.803000", "091210.803000", "091212.803000", "091214.803000", "091216.804000", "091218.803000", "091220.803000", "091222.803000", "091224.803000", "091226.804000", "091228.803000", "091230.804000", "091232.803000", "091234.803000", "091236.802000", "091238.803000", "091240.803000", "091242.804000", "091244.803000", "091246.803000", "091248.803000", "091250.803000", "091252.803000", "091254.802000", "091256.803000", "091258.804000", "091301.303000", "091302.804000", "091304.804000", "091306.804000", "091309.303000", "091310.802000", "091312.803000", "091315.304000", "091316.804000", "091318.803000", "091321.303000", "091322.804000", "091324.804000", "091326.803000", "091328.802000", "091331.303000", "091332.803000", "091334.804000", "091336.803000", "091338.803000", "091340.803000", "091342.803000", "091345.303000", "091346.802000", "091348.804000", "091350.804000", "091352.803000", "091354.803000", "091356.803000", "091359.303000", "091400.803000", "091402.802000", "091404.803000", "091406.708000"],
      "InstanceNumber": [1, 2, 3, 4, 5, 6, 7, 8, 9, 10, 11, 12, 13, 14, 15, 16, 17, 18, 19, 20, 21, 22, 23, 24, 25, 26, 27, 28, 29, 30, 31, 32, 33, 34, 35, 36, 37, 38, 39, 40, 41, 42, 43, 44, 45, 46, 47, 48, 49, 50, 51, 52, 53, 54, 55, 56, 57, 58, 59, 60, 61, 62, 63, 64, 65, 66, 67, 68, 69, 70, 71, 72, 73, 74, 75, 76, 77, 78, 79, 80, 81, 82, 83, 84, 85, 86, 87, 88, 89, 90, 91, 92, 93, 94, 95, 96, 97, 98, 99, 100, 101, 102, 103, 104, 105, 106, 107, 108, 109, 110, 111, 112, 113, 114, 115, 116, 117, 118, 119, 120, 121, 122, 123, 124, 125, 126, 127, 128, 129, 130, 131, 132, 133, 134, 135, 136, 137, 138, 139, 140, 141, 142, 143, 144, 145, 146, 147, 148, 149, 150, 151, 152, 153, 154, 155, 156, 157, 158, 159, 160, 161, 162, 163, 164, 165, 166, 167, 168, 169, 170, 171, 172, 173, 174, 175, 176, 177, 178, 179, 180, 181, 182, 183, 184, 185, 186, 187, 188, 189, 190, 191, 192, 193, 194, 195, 196, 197, 198, 199, 200, 201, 202, 203, 204, 205, 206, 207, 208, 209, 210, 211, 212, 213, 214, 215, 216, 217, 218, 219, 220, 221, 222, 223, 224, 225, 226, 227, 228, 229, 230, 231, 232],
      "LargestImagePixelValue": [3327, 3260, 3266, 3259, 3293, 3284, 3228, 3255, 3282, 3338, 3328, 3328, 3332, 3362, 3326, 3361, 3325, 3328, 3322, 3285, 3288, 3308, 3311, 3308, 3303, 3293, 3239, 3296, 3320, 3273, 3277, 3426, 3271, 3243, 3294, 3339, 3309, 3219, 3278, 3215, 3260, 3360, 3321, 3293, 3310, 3304, 3242, 3255, 3266, 3284, 3354, 3353, 3320, 3199, 3219, 3436, 3358, 3286, 3272, 3214, 3204, 3146, 3198, 3187, 3150, 3220, 3298, 3259, 3373, 3398, 3352, 3336, 3323, 3258, 3300, 3363, 3335, 3339, 3387, 3359, 3379, 3323, 3319, 3305, 3295, 3345, 3356, 3310, 3300, 3337, 3308, 3299, 3336, 3403, 3400, 3373, 3381, 3403, 3355, 3294, 3248, 3237, 3219, 3260, 3193, 3255, 3234, 3210, 3276, 3274, 3304, 3241, 3291, 3258, 3248, 3243, 3273, 3257, 3276, 3264, 3304, 3260, 3261, 3292, 3294, 3276, 3268, 3257, 3279, 3297, 3298, 3265, 3220, 3209, 3237, 3258, 3259, 3328, 3251, 3226, 3225, 3212, 3244, 3226, 3238, 3232, 3236, 3221, 3184, 3197, 3221, 3228, 3246, 3162, 3230, 3285, 3222, 3215, 3187, 3274, 3191, 3208, 3219, 3289, 3184, 3228, 3160, 3231, 3226, 3204, 3189, 3211, 3258, 3227, 3231, 3231, 3223, 3173, 3198, 3192, 3161, 3149, 3154, 3144, 3203, 3140, 3182, 3194, 3238, 3180, 3230, 3256, 3243, 3228, 3220, 3214, 3236, 3226, 3245, 3235, 3246, 3254, 3272, 3411, 3378, 3331, 3307, 3433, 3373, 3346, 3345, 3341, 3375, 3313, 3303, 3336, 3356, 3255, 3260, 3246, 3271, 3280, 3298, 3252, 3245, 3235, 3340, 3311, 3215, 3173, 3121, 3108],
      "WindowCenter": [841.0, 841.0, 841.0, 842.0, 842.0, 841.0, 841.0, 842.0, 842.0, 843.0, 844.0, 844.0, 844.0, 843.0, 843.0, 844.0, 844.0, 844.0, 843.0, 843.0, 843.0, 842.0, 842.0, 842.0, 841.0, 841.0, 840.0, 842.0, 841.0, 841.0, 839.0, 841.0, 841.0, 841.0, 842.0, 842.0, 842.0, 841.0, 840.0, 840.0, 840.0, 840.0, 840.0, 839.0, 838.0, 838.0, 837.0, 837.0, 838.0, 837.0, 836.0, 838.0, 837.0, 836.0, 834.0, 839.0, 834.0, 839.0, 838.0, 837.0, 836.0, 835.0, 836.0, 835.0, 835.0, 836.0, 837.0, 839.0, 838.0, 838.0, 837.0, 835.0, 835.0, 835.0, 836.0, 836.0, 836.0, 836.0, 836.0, 836.0, 837.0, 836.0, 837.0, 837.0, 838.0, 838.0, 838.0, 837.0, 837.0, 838.0, 838.0, 838.0, 839.0, 840.0, 839.0, 838.0, 837.0, 835.0, 832.0, 835.0, 834.0, 831.0, 831.0, 830.0, 831.0, 833.0, 833.0, 834.0, 836.0, 836.0, 836.0, 835.0, 835.0, 835.0, 834.0, 833.0, 833.0, 833.0, 833.0, 833.0, 833.0, 833.0, 834.0, 835.0, 836.0, 836.0, 836.0, 836.0, 836.0, 833.0, 832.0, 829.0, 830.0, 830.0, 830.0, 831.0, 831.0, 831.0, 832.0, 832.0, 832.0, 833.0, 833.0, 832.0, 832.0, 831.0, 830.0, 831.0, 830.0, 830.0, 831.0, 829.0, 830.0, 829.0, 830.0, 832.0, 832.0, 831.0, 831.0, 831.0, 831.0, 832.0, 830.0, 831.0, 829.0, 829.0, 828.0, 827.0, 826.0, 828.0, 829.0, 829.0, 829.0, 828.0, 828.0, 829.0, 828.0, 822.0, 823.0, 825.0, 827.0, 826.0, 827.0, 827.0, 825.0, 830.0, 831.0, 831.0, 832.0, 830.0, 831.0, 830.0, 830.0, 830.0, 831.0, 831.0, 831.0, 832.0, 832.0, 832.0, 832.0, 833.0, 834.0, 836.0, 838.0, 837.0, 837.0, 837.0, 837.0, 836.0, 836.0, 836.0, 836.0, 836.0, 835.0, 835.0, 835.0, 833.0, 833.0, 833.0, 834.0, 834.0, 834.0, 832.0, 831.0, 831.0, 833.0, 835.0, 833.0, 833.0, 832.0, 831.0],
      "WindowWidth": [1824.0, 1823.0, 1825.0, 1827.0, 1828.0, 1825.0, 1824.0, 1826.0, 1827.0, 1830.0, 1831.0, 1832.0, 1832.0, 1831.0, 1831.0, 1832.0, 1833.0, 1831.0, 1831.0, 1829.0, 1828.0, 1828.0, 1827.0, 1826.0, 1825.0, 1824.0, 1820.0, 1826.0, 1825.0, 1824.0, 1819.0, 1824.0, 1822.0, 1824.0, 1827.0, 1828.0, 1825.0, 1822.0, 1822.0, 1820.0, 1820.0, 1822.0, 1820.0, 1817.0, 1814.0, 1814.0, 1812.0, 1812.0, 1814.0, 1812.0, 1810.0, 1814.0, 1812.0, 1808.0, 1804.0, 1819.0, 1806.0, 1819.0, 1816.0, 1811.0, 1808.0, 1805.0, 1808.0, 1807.0, 1807.0, 1809.0, 1811.0, 1816.0, 1814.0, 1816.0, 1812.0, 1807.0, 1805.0, 1806.0, 1810.0, 1810.0, 1810.0, 1809.0, 1810.0, 1810.0, 1811.0, 1808.0, 1812.0, 1812.0, 1813.0, 1815.0, 1813.0, 1812.0, 1811.0, 1813.0, 1813.0, 1815.0, 1818.0, 1820.0, 1817.0, 1815.0, 1812.0, 1806.0, 1799.0, 1804.0, 1803.0, 1795.0, 1794.0, 1792.0, 1794.0, 1799.0, 1801.0, 1804.0, 1808.0, 1807.0, 1807.0, 1805.0, 1805.0, 1805.0, 1803.0, 1800.0, 1800.0, 1799.0, 1800.0, 1800.0, 1800.0, 1800.0, 1802.0, 1806.0, 1807.0, 1807.0, 1807.0, 1807.0, 1807.0, 1800.0, 1796.0, 1789.0, 1792.0, 1790.0, 1792.0, 1793.0, 1792.0, 1793.0, 1796.0, 1796.0, 1797.0, 1798.0, 1798.0, 1796.0, 1795.0, 1794.0, 1792.0, 1794.0, 1791.0, 1792.0, 1792.0, 1789.0, 1790.0, 1789.0, 1791.0, 1797.0, 1796.0, 1793.0, 1792.0, 1793.0, 1792.0, 1795.0, 1791.0, 1792.0, 1788.0, 1787.0, 1784.0, 1783.0, 1778.0, 1785.0, 1788.0, 1789.0, 1788.0, 1785.0, 1786.0, 1786.0, 1785.0, 1769.0, 1770.0, 1777.0, 1781.0, 1779.0, 1781.0, 1781.0, 1776.0, 1789.0, 1793.0, 1793.0, 1794.0, 1790.0, 1792.0, 1790.0, 1790.0, 1790.0, 1793.0, 1793.0, 1793.0, 1794.0, 1795.0, 1795.0, 1796.0, 1797.0, 1799.0, 1808.0, 1811.0, 1810.0, 1809.0, 1810.0, 1808.0, 1806.0, 1806.0, 1805.0, 1806.0, 1805.0, 1803.0, 1804.0, 1803.0, 1798.0, 1797.0, 1797.0, 1800.0, 1801.0, 1800.0, 1796.0, 1792.0, 1793.0, 1798.0, 1802.0, 1799.0, 1797.0, 1794.0, 1793.0]
    },
    "slices": {}
  }
}