{
  "AcquisitionMatrixPE": 100,
  "AcquisitionNumber": 1,
  "AcquisitionTime": "09:45:35.492500",
  "BandwidthPerPixelPhaseEncode": 18.519,
  "BaseResolution": 100,
  "BodyPartExamined": "BRAIN",
  "ConsistencyInfo": "N4_VE11C_LATEST_20160120",
  "ConversionSoftware": "dcm2niix",
  "ConversionSoftwareVersion": "v1.0.20180622 GCC4.9.2",
  "DerivedVendorReportedEchoSpacing": 0.000539986,
  "DeviceSerialNumber": "166078",
  "DwellTime": 2.1e-06,
  "EchoTime": 0.034,
  "EchoTrainLength": 100,
  "EffectiveEchoSpacing": 0.000539986,
  "FlipAngle": 90,
  "ImageOrientationPatientDICOM": [0.999918, 0.00303564, 0.0124562, 1.77499e-08, 0.971564, -0.236776],
  "ImageType": [
    "ORIGINAL",
    "PRIMARY",
    "M",
    "ND",
    "MOSAIC"
],
  "InPlanePhaseEncodingDirectionDICOM": "COL",
  "InstitutionAddress": "Street_StreetNo_Bei_Jing_District_CN_ZIP",
  "InstitutionName": "BeiJing_Normal_University",
  "InstitutionalDepartmentName": "Department",
  "MRAcquisitionType": "2D",
  "MagneticFieldStrength": 3,
  "Manufacturer": "Siemens",
  "ManufacturersModelName": "Prisma",
  "Modality": "MR",
  "MultibandAccelerationFactor": 3,
  "PartialFourier": 1,
  "PatientPosition": "HFS",
  "PercentPhaseFOV": 100,
  "PhaseEncodingDirection": "j-",
  "PhaseEncodingSteps": 100,
  "PhaseResolution": 1,
  "PixelBandwidth": 2380,
  "ProcedureStepDescription": "BNU_P2018_64CH_Liu.Jia",
  "ProtocolName": "bold_100x100_s3_2x2x2_232",
  "PulseSequenceDetails": "%SiemensSeq%_ep2d_bold",
  "ReceiveCoilActiveElements": "HC1-7;NC1",
  "ReceiveCoilName": "HeadNeck_64",
  "ReconMatrixPE": 100,
  "RepetitionTime": 2,
  "SAR": 0.0714902,
  "ScanOptions": "FS",
  "ScanningSequence": "EP",
  "SequenceName": "_epfid2d1_100",
  "SequenceVariant": "SK",
  "SeriesDescription": "bold_100x100_s3_2x2x2_232",
  "SeriesNumber": 9,
  "ShimSetting": [-5453, -11451, -1235, 335, -11, -226, -214, 35],
  "SliceThickness": 2,
  "SliceTiming": [1.485, 0, 0.99, 0.0825, 1.0725, 0.165, 1.155, 0.2475, 1.2375, 0.33, 1.32, 0.4125, 1.4025, 0.5775, 1.5675, 0.66, 1.65, 0.7425, 1.7325, 0.825, 1.815, 0.9075, 1.8975, 0.495, 1.485, 0, 0.99, 0.0825, 1.0725, 0.165, 1.155, 0.2475, 1.2375, 0.33, 1.32, 0.4125, 1.4025, 0.5775, 1.5675, 0.66, 1.65, 0.7425, 1.7325, 0.825, 1.815, 0.9075, 1.8975, 0.495, 1.485, 0, 0.99, 0.0825, 1.0725, 0.165, 1.155, 0.2475, 1.2375, 0.33, 1.32, 0.4125, 1.4025, 0.5775, 1.5675, 0.66, 1.65, 0.7425, 1.7325, 0.825, 1.815, 0.9075, 1.8975, 0.495],
  "SoftwareVersions": "syngo_MR_E11",
  "SpacingBetweenSlices": 2,
  "StationName": "AWP166078",
  "TaskName": "motor",
  "TotalReadoutTime": 0.0534586,
  "TxRefAmp": 218.336,
  "dcmmeta_affine": [
    [-1.9998356103897095, 3.5499898132229646e-08, 0.02564157173037529, 100.52993774414062],
    [-0.0060712858103215694, 1.9431283473968506, -0.47351396083831787, -79.54772186279297],
    [0.02491244114935398, 0.4735528826713562, 1.9429686069488525, -86.23638153076172],
    [0.0, 0.0, 0.0, 1.0]
],
  "dcmmeta_reorient_transform": [
    [0.0, -1.0, 0.0, 99.0],
    [1.0, 0.0, 0.0, 0.0],
    [0.0, 0.0, 1.0, 0.0],
    [0.0, 0.0, 0.0, 1.0]
],
  "dcmmeta_shape": [100, 100, 72, 232],
  "dcmmeta_slice_dim": 2,
  "dcmmeta_version": 0.6,
  "global": {
    "const": {
      "AcquisitionMatrix": [100, 0, 0, 100],
      "AngioFlag": "N",
      "BitsAllocated": 16,
      "BitsStored": 12,
      "BodyPartExamined": "BRAIN",
      "Columns": 900,
      "EchoNumbers": 1,
      "EchoTime": 34.0,
      "EchoTrainLength": 100,
      "FlipAngle": 90.0,
      "HighBit": 11,
      "ImageOrientationPatient": [0.99991781034901, 0.00303564279715, 0.01245622011869, 1.7749949e-08, 0.97156415953846, -0.2367764428745],
      "ImagePositionPatient": [-900.46420465949, -892.5018206601, 140.10152979546],
      "ImageType": [
        "ORIGINAL",
        "PRIMARY",
        "M",
        "ND",
        "MOSAIC"
],
      "ImagedNucleus": "1H",
      "ImagingFrequency": 123.257832,
      "InPlanePhaseEncodingDirection": "COL",
      "MRAcquisitionType": "2D",
      "MagneticFieldStrength": 3.0,
      "Manufacturer": "SIEMENS",
      "ManufacturerModelName": "Prisma",
      "Modality": "MR",
      "NumberOfAverages": 1.0,
      "NumberOfPhaseEncodingSteps": 100,
      "PercentPhaseFieldOfView": 100.0,
      "PercentSampling": 100.0,
      "PerformedProcedureStepStartTime": "090236.023000",
      "PhotometricInterpretation": "MONOCHROME2",
      "PixelBandwidth": 2380.0,
      "PixelRepresentation": 0,
      "PixelSpacing": [2.0, 2.0],
      "ProtocolName": "bold_100x100_s3_2x2x2_232",
      "RepetitionTime": 2000.0,
      "Rows": 900,
      "SAR": 0.07149020973893,
      "SamplesPerPixel": 1,
      "ScanOptions": "FS",
      "ScanningSequence": "EP",
      "SequenceName": "*epfid2d1_100",
      "SequenceVariant": "SK",
      "SeriesDescription": "bold_100x100_s3_2x2x2_232",
      "SeriesNumber": 9,
      "SeriesTime": "094538.687000",
      "SliceLocation": -63.654941748074,
      "SliceThickness": 2.0,
      "SmallestImagePixelValue": 0,
      "SoftwareVersions": "syngo MR E11",
      "SpacingBetweenSlices": 1.99999999991,
      "SpecificCharacterSet": "ISO_IR 100",
      "StudyID": "1",
      "StudyTime": "090235.848000",
      "TransmitCoilName": "Body",
      "VariableFlipAngleFlag": "N",
      "WindowCenterWidthExplanation": "Algo1",
      "dBdt": 0.0},
    "slices": {}
  },
  "time": {
    "samples": {
      "AcquisitionNumber": [1, 2, 3, 4, 5, 6, 7, 8, 9, 10, 11, 12, 13, 14, 15, 16, 17, 18, 19, 20, 21, 22, 23, 24, 25, 26, 27, 28, 29, 30, 31, 32, 33, 34, 35, 36, 37, 38, 39, 40, 41, 42, 43, 44, 45, 46, 47, 48, 49, 50, 51, 52, 53, 54, 55, 56, 57, 58, 59, 60, 61, 62, 63, 64, 65, 66, 67, 68, 69, 70, 71, 72, 73, 74, 75, 76, 77, 78, 79, 80, 81, 82, 83, 84, 85, 86, 87, 88, 89, 90, 91, 92, 93, 94, 95, 96, 97, 98, 99, 100, 101, 102, 103, 104, 105, 106, 107, 108, 109, 110, 111, 112, 113, 114, 115, 116, 117, 118, 119, 120, 121, 122, 123, 124, 125, 126, 127, 128, 129, 130, 131, 132, 133, 134, 135, 136, 137, 138, 139, 140, 141, 142, 143, 144, 145, 146, 147, 148, 149, 150, 151, 152, 153, 154, 155, 156, 157, 158, 159, 160, 161, 162, 163, 164, 165, 166, 167, 168, 169, 170, 171, 172, 173, 174, 175, 176, 177, 178, 179, 180, 181, 182, 183, 184, 185, 186, 187, 188, 189, 190, 191, 192, 193, 194, 195, 196, 197, 198, 199, 200, 201, 202, 203, 204, 205, 206, 207, 208, 209, 210, 211, 212, 213, 214, 215, 216, 217, 218, 219, 220, 221, 222, 223, 224, 225, 226, 227, 228, 229, 230, 231, 232],
      "AcquisitionTime": ["094535.492500", "094537.492500", "094539.492500", "094541.492500", "094543.492500", "094545.492500", "094547.492500", "094549.492500", "094551.492500", "094553.492500", "094555.492500", "094557.492500", "094559.492500", "094601.492500", "094603.492500", "094605.492500", "094607.492500", "094609.492500", "094611.492500", "094613.492500", "094615.492500", "094617.492500", "094619.492500", "094621.492500", "094623.492500", "094625.492500", "094627.492500", "094629.492500", "094631.492500", "094633.492500", "094635.492500", "094637.492500", "094639.492500", "094641.492500", "094643.492500", "094645.492500", "094647.492500", "094649.492500", "094651.492500", "094653.492500", "094655.492500", "094657.492500", "094659.492500", "094701.492500", "094703.492500", "094705.492500", "094707.492500", "094709.492500", "094711.492500", "094713.492500", "094715.492500", "094717.492500", "094719.492500", "094721.492500", "094723.492500", "094725.492500", "094727.492500", "094729.492500", "094731.492500", "094733.492500", "094735.492500", "094737.492500", "094739.492500", "094741.492500", "094743.492500", "094745.492500", "094747.492500", "094749.492500", "094751.492500", "094753.492500", "094755.492500", "094757.492500", "094759.492500", "094801.492500", "094803.492500", "094805.492500", "094807.492500", "094809.492500", "094811.492500", "094813.492500", "094815.492500", "094817.492500", "094819.492500", "094821.492500", "094823.492500", "094825.492500", "094827.492500", "094829.492500", "094831.492500", "094833.492500", "094835.492500", "094837.492500", "094839.492500", "094841.492500", "094843.492500", "094845.492500", "094847.492500", "094849.492500", "094851.492500", "094853.492500", "094855.492500", "094857.492500", "094859.492500", "094901.492500", "094903.492500", "094905.492500", "094907.492500", "094909.492500", "094911.492500", "094913.492500", "094915.492500", "094917.492500", "094919.492500", "094921.492500", "094923.492500", "094925.492500", "094927.492500", "094929.492500", "094931.492500", "094933.492500", "094935.492500", "094937.492500", "094939.492500", "094941.492500", "094943.492500", "094945.492500", "094947.492500", "094949.492500", "094951.492500", "094953.492500", "094955.492500", "094957.492500", "094959.492500", "095001.492500", "095003.492500", "095005.492500", "095007.492500", "095009.492500", "095011.492500", "095013.492500", "095015.492500", "095017.492500", "095019.492500", "095021.492500", "095023.492500", "095025.492500", "095027.492500", "095029.492500", "095031.492500", "095033.492500", "095035.492500", "095037.492500", "095039.492500", "095041.492500", "095043.492500", "095045.492500", "095047.492500", "095049.492500", "095051.492500", "095053.492500", "095055.492500", "095057.492500", "095059.492500", "095101.492500", "095103.492500", "095105.492500", "095107.492500", "095109.492500", "095111.492500", "095113.492500", "095115.492500", "095117.492500", "095119.492500", "095121.492500", "095123.492500", "095125.492500", "095127.492500", "095129.492500", "095131.492500", "095133.492500", "095135.492500", "095137.492500", "095139.492500", "095141.492500", "095143.492500", "095145.492500", "095147.492500", "095149.492500", "095151.492500", "095153.492500", "095155.492500", "095157.492500", "095159.492500", "095201.492500", "095203.492500", "095205.492500", "095207.492500", "095209.492500", "095211.492500", "095213.492500", "095215.492500", "095217.492500", "095219.492500", "095221.492500", "095223.492500", "095225.492500", "095227.492500", "095229.492500", "095231.492500", "095233.492500", "095235.492500", "095237.492500", "095239.492500", "095241.492500", "095243.492500", "095245.492500", "095247.492500", "095249.492500", "095251.492500", "095253.492500", "095255.492500", "095257.492500", "095259.492500", "095301.492500", "095303.492500", "095305.492500", "095307.492500", "095309.492500", "095311.492500", "095313.492500", "095315.492500", "095317.492500"],
      "ContentTime": ["094538.691000", "094540.186000", "094541.686000", "094543.686000", "094545.686000", "094547.686000", "094549.686000", "094551.687000", "094553.687000", "094556.186000", "094558.186000", "094559.686000", "094601.686000", "094604.186000", "094605.686000", "094608.187000", "094610.188000", "094612.187000", "094614.186000", "094616.187000", "094618.186000", "094619.686000", "094622.186000", "094623.686000", "094625.686000", "094628.188000", "094630.188000", "094631.686000", "094633.686000", "094635.686000", "094637.686000", "094640.187000", "094641.686000", "094644.187000", "094645.687000", "094647.687000", "094649.686000", "094651.686000", "094654.186000", "094655.687000", "094658.187000", "094700.187000", "094702.188000", "094704.187000", "094705.687000", "094707.687000", "094710.187000", "094711.686000", "094714.186000", "094716.186000", "094717.687000", "094719.688000", "094721.687000", "094723.687000", "094725.686000", "094727.686000", "094729.686000", "094731.686000", "094734.186000", "094736.187000", "094737.687000", "094740.187000", "094741.686000", "094744.186000", "094746.186000", "094748.187000", "094749.686000", "094751.686000", "094753.687000", "094755.687000", "094757.687000", "094759.686000", "094801.686000", "094804.186000", "094806.186000", "094808.186000", "094810.186000", "094812.187000", "094814.187000", "094815.687000", "094817.686000", "094819.687000", "094821.686000", "094824.187000", "094825.686000", "094827.686000", "094829.688000", "094832.187000", "094833.686000", "094835.686000", "094838.186000", "094840.187000", "094841.687000", "094843.686000", "094846.187000", "094848.187000", "094850.187000", "094852.186000", "094854.186000", "094856.186000", "094858.186000", "094900.187000", "094901.687000", "094904.188000", "094905.687000", "094908.187000", "094909.686000", "094911.686000", "094914.187000", "094916.186000", "094917.686000", "094919.687000", "094922.187000", "094924.187000", "094926.186000", "094927.686000", "094930.186000", "094931.686000", "094934.187000", "094935.686000", "094937.687000", "094940.188000", "094942.187000", "094943.686000", "094946.186000", "094948.186000", "094950.186000", "094952.186000", "094954.186000", "094956.188000", "094957.687000", "095000.187000", "095001.687000", "095003.686000", "095005.686000", "095008.186000", "095009.687000", "095012.186000", "095014.188000", "095016.187000", "095018.187000", "095019.686000", "095022.186000", "095024.187000", "095025.686000", "095027.687000", "095029.686000", "095031.688000", "095034.187000", "095035.687000", "095038.187000", "095040.186000", "095042.186000", "095043.687000", "095045.686000", "095047.686000", "095049.687000", "095051.687000", "095054.186000", "095056.187000", "095057.686000", "095100.186000", "095102.186000", "095104.186000", "095106.188000", "095107.688000", "095110.187000", "095111.687000", "095113.686000", "095116.186000", "095117.686000", "095120.186000", "095121.686000", "095123.687000", "095126.188000", "095128.187000", "095130.186000", "095132.187000", "095134.187000", "095136.187000", "095137.686000", "095140.186000", "095142.187000", "095144.187000", "095146.186000", "095147.687000", "095149.686000", "095151.686000", "095153.686000", "095155.686000", "095158.187000", "095159.687000", "095201.687000", "095203.687000", "095205.686000", "095208.186000", "095209.686000", "095212.186000", "095214.203000", "095216.188000", "095217.687000", "095219.688000", "095222.186000", "095223.686000", "095225.686000", "095227.687000", "095229.686000", "095231.686000", "095234.187000", "095236.188000", "095237.688000", "095240.186000", "095242.186000", "095244.187000", "095245.687000", "095247.686000", "095250.187000", "095252.187000", "095254.188000", "095255.688000", "095257.686000", "095259.686000", "095301.687000", "095304.186000", "095306.186000", "095308.188000", "095310.187000", "095311.687000", "095313.686000", "095316.186000", "095318.186000", "095319.633000"],
      "InstanceCreationTime": ["094538.691000", "094540.186000", "094541.686000", "094543.686000", "094545.686000", "094547.686000", "094549.686000", "094551.687000", "094553.687000", "094556.186000", "094558.186000", "094559.686000", "094601.686000", "094604.186000", "094605.686000", "094608.187000", "094610.188000", "094612.187000", "094614.186000", "094616.187000", "094618.186000", "094619.686000", "094622.186000", "094623.686000", "094625.686000", "094628.188000", "094630.188000", "094631.686000", "094633.686000", "094635.686000", "094637.686000", "094640.187000", "094641.686000", "094644.187000", "094645.687000", "094647.687000", "094649.686000", "094651.686000", "094654.186000", "094655.687000", "094658.187000", "094700.187000", "094702.188000", "094704.187000", "094705.687000", "094707.687000", "094710.187000", "094711.686000", "094714.186000", "094716.186000", "094717.687000", "094719.688000", "094721.687000", "094723.687000", "094725.686000", "094727.686000", "094729.686000", "094731.686000", "094734.186000", "094736.187000", "094737.687000", "094740.187000", "094741.686000", "094744.186000", "094746.186000", "094748.187000", "094749.686000", "094751.686000", "094753.687000", "094755.687000", "094757.687000", "094759.686000", "094801.686000", "094804.186000", "094806.186000", "094808.186000", "094810.186000", "094812.187000", "094814.187000", "094815.687000", "094817.686000", "094819.687000", "094821.686000", "094824.187000", "094825.686000", "094827.686000", "094829.688000", "094832.187000", "094833.686000", "094835.686000", "094838.186000", "094840.187000", "094841.687000", "094843.686000", "094846.187000", "094848.187000", "094850.187000", "094852.186000", "094854.186000", "094856.186000", "094858.186000", "094900.187000", "094901.687000", "094904.188000", "094905.687000", "094908.187000", "094909.686000", "094911.686000", "094914.187000", "094916.186000", "094917.686000", "094919.687000", "094922.187000", "094924.187000", "094926.186000", "094927.686000", "094930.186000", "094931.686000", "094934.187000", "094935.686000", "094937.687000", "094940.188000", "094942.187000", "094943.686000", "094946.186000", "094948.186000", "094950.186000", "094952.186000", "094954.186000", "094956.188000", "094957.687000", "095000.187000", "095001.687000", "095003.686000", "095005.686000", "095008.186000", "095009.687000", "095012.186000", "095014.188000", "095016.187000", "095018.187000", "095019.686000", "095022.186000", "095024.187000", "095025.686000", "095027.687000", "095029.686000", "095031.688000", "095034.187000", "095035.687000", "095038.187000", "095040.186000", "095042.186000", "095043.687000", "095045.686000", "095047.686000", "095049.687000", "095051.687000", "095054.186000", "095056.187000", "095057.686000", "095100.186000", "095102.186000", "095104.186000", "095106.188000", "095107.688000", "095110.187000", "095111.687000", "095113.686000", "095116.186000", "095117.686000", "095120.186000", "095121.686000", "095123.687000", "095126.188000", "095128.187000", "095130.186000", "095132.187000", "095134.187000", "095136.187000", "095137.686000", "095140.186000", "095142.187000", "095144.187000", "095146.186000", "095147.687000", "095149.686000", "095151.686000", "095153.686000", "095155.686000", "095158.187000", "095159.687000", "095201.687000", "095203.687000", "095205.686000", "095208.186000", "095209.686000", "095212.186000", "095214.203000", "095216.188000", "095217.687000", "095219.688000", "095222.186000", "095223.686000", "095225.686000", "095227.687000", "095229.686000", "095231.686000", "095234.187000", "095236.188000", "095237.688000", "095240.186000", "095242.186000", "095244.187000", "095245.687000", "095247.686000", "095250.187000", "095252.187000", "095254.188000", "095255.688000", "095257.686000", "095259.686000", "095301.687000", "095304.186000", "095306.186000", "095308.188000", "095310.187000", "095311.687000", "095313.686000", "095316.186000", "095318.186000", "095319.633000"],
      "InstanceNumber": [1, 2, 3, 4, 5, 6, 7, 8, 9, 10, 11, 12, 13, 14, 15, 16, 17, 18, 19, 20, 21, 22, 23, 24, 25, 26, 27, 28, 29, 30, 31, 32, 33, 34, 35, 36, 37, 38, 39, 40, 41, 42, 43, 44, 45, 46, 47, 48, 49, 50, 51, 52, 53, 54, 55, 56, 57, 58, 59, 60, 61, 62, 63, 64, 65, 66, 67, 68, 69, 70, 71, 72, 73, 74, 75, 76, 77, 78, 79, 80, 81, 82, 83, 84, 85, 86, 87, 88, 89, 90, 91, 92, 93, 94, 95, 96, 97, 98, 99, 100, 101, 102, 103, 104, 105, 106, 107, 108, 109, 110, 111, 112, 113, 114, 115, 116, 117, 118, 119, 120, 121, 122, 123, 124, 125, 126, 127, 128, 129, 130, 131, 132, 133, 134, 135, 136, 137, 138, 139, 140, 141, 142, 143, 144, 145, 146, 147, 148, 149, 150, 151, 152, 153, 154, 155, 156, 157, 158, 159, 160, 161, 162, 163, 164, 165, 166, 167, 168, 169, 170, 171, 172, 173, 174, 175, 176, 177, 178, 179, 180, 181, 182, 183, 184, 185, 186, 187, 188, 189, 190, 191, 192, 193, 194, 195, 196, 197, 198, 199, 200, 201, 202, 203, 204, 205, 206, 207, 208, 209, 210, 211, 212, 213, 214, 215, 216, 217, 218, 219, 220, 221, 222, 223, 224, 225, 226, 227, 228, 229, 230, 231, 232],
      "LargestImagePixelValue": [3219, 3165, 3155, 3172, 3156, 3129, 3131, 3153, 3155, 3147, 3164, 3115, 3200, 3113, 3143, 3155, 3229, 3137, 3188, 3314, 3261, 3243, 3149, 3212, 3138, 3151, 3178, 3076, 3187, 3069, 3147, 3072, 3125, 3084, 3236, 3269, 3195, 3268, 3179, 3265, 3251, 3257, 3324, 3264, 3254, 3235, 3218, 3239, 3228, 3114, 3180, 3140, 3189, 3301, 3376, 3206, 3184, 3206, 3118, 3193, 3179, 3191, 3201, 3189, 3232, 3178, 3177, 3260, 3203, 3289, 3235, 3224, 3210, 3267, 3186, 3216, 3262, 3274, 3261, 3198, 3283, 3210, 3150, 3214, 3106, 3193, 3145, 3228, 3207, 3176, 3198, 3198, 3186, 3194, 3132, 3203, 3143, 3162, 3125, 3142, 3148, 3117, 3130, 3131, 3131, 3124, 3125, 3133, 3097, 3329, 3260, 3337, 3343, 3188, 3269, 3143, 3167, 3133, 3117, 3139, 3125, 3106, 3041, 3409, 3198, 3325, 3323, 3273, 3360, 3152, 3215, 3220, 3218, 3166, 3118, 3115, 3218, 3198, 3234, 3284, 3308, 3308, 3160, 3078, 3103, 3122, 3140, 3120, 3153, 3114, 3120, 3107, 3117, 3215, 3178, 3167, 3089, 3113, 3114, 3100, 3128, 3075, 3083, 3091, 3122, 3182, 3269, 3216, 3162, 3103, 3058, 3068, 3083, 3047, 3052, 3063, 3077, 3137, 3116, 3302, 3172, 3171, 3165, 3094, 3145, 3076, 3129, 3165, 3141, 3165, 3087, 3138, 3161, 3168, 3180, 3340, 3301, 3231, 3266, 3233, 3252, 3251, 3241, 3206, 3190, 3244, 3200, 3219, 3215, 3243, 3220, 3259, 3249, 3255, 3238, 3273, 3232, 3209, 3193, 3291, 3175, 3224, 3381, 3193, 3365, 3242, 3246, 3250, 3257, 3264, 3192, 3190],
      "WindowCenter": [841.0, 840.0, 840.0, 841.0, 840.0, 839.0, 839.0, 839.0, 839.0, 839.0, 840.0, 839.0, 838.0, 837.0, 836.0, 837.0, 838.0, 837.0, 837.0, 838.0, 838.0, 837.0, 836.0, 835.0, 834.0, 834.0, 834.0, 833.0, 833.0, 833.0, 834.0, 833.0, 834.0, 834.0, 835.0, 835.0, 835.0, 836.0, 836.0, 837.0, 837.0, 838.0, 839.0, 839.0, 839.0, 839.0, 838.0, 838.0, 837.0, 837.0, 837.0, 836.0, 835.0, 836.0, 835.0, 833.0, 832.0, 831.0, 828.0, 827.0, 828.0, 829.0, 830.0, 831.0, 833.0, 833.0, 834.0, 835.0, 835.0, 835.0, 836.0, 836.0, 836.0, 836.0, 837.0, 836.0, 836.0, 837.0, 836.0, 837.0, 837.0, 838.0, 838.0, 838.0, 837.0, 837.0, 837.0, 838.0, 838.0, 837.0, 838.0, 839.0, 839.0, 839.0, 837.0, 836.0, 834.0, 834.0, 835.0, 835.0, 835.0, 835.0, 836.0, 836.0, 836.0, 836.0, 837.0, 840.0, 838.0, 839.0, 839.0, 837.0, 838.0, 836.0, 836.0, 835.0, 834.0, 834.0, 833.0, 833.0, 834.0, 829.0, 831.0, 835.0, 836.0, 835.0, 833.0, 831.0, 835.0, 832.0, 832.0, 833.0, 834.0, 834.0, 835.0, 835.0, 836.0, 837.0, 838.0, 839.0, 838.0, 836.0, 833.0, 831.0, 831.0, 831.0, 831.0, 832.0, 833.0, 834.0, 835.0, 835.0, 835.0, 836.0, 835.0, 835.0, 834.0, 834.0, 835.0, 835.0, 837.0, 837.0, 837.0, 838.0, 840.0, 841.0, 841.0, 840.0, 836.0, 834.0, 832.0, 832.0, 832.0, 832.0, 833.0, 834.0, 836.0, 835.0, 833.0, 835.0, 835.0, 835.0, 835.0, 832.0, 831.0, 830.0, 830.0, 830.0, 831.0, 832.0, 833.0, 834.0, 833.0, 832.0, 829.0, 835.0, 834.0, 833.0, 833.0, 833.0, 834.0, 834.0, 834.0, 835.0, 835.0, 837.0, 837.0, 838.0, 839.0, 838.0, 839.0, 840.0, 839.0, 838.0, 836.0, 835.0, 833.0, 834.0, 834.0, 834.0, 834.0, 831.0, 834.0, 832.0, 831.0, 832.0, 833.0, 833.0, 832.0, 832.0, 832.0, 832.0],
      "WindowWidth": [1819.0, 1817.0, 1817.0, 1818.0, 1817.0, 1814.0, 1813.0, 1814.0, 1815.0, 1814.0, 1816.0, 1813.0, 1812.0, 1808.0, 1805.0, 1810.0, 1811.0, 1809.0, 1810.0, 1813.0, 1811.0, 1810.0, 1806.0, 1803.0, 1799.0, 1799.0, 1800.0, 1796.0, 1797.0, 1796.0, 1799.0, 1798.0, 1800.0, 1800.0, 1803.0, 1804.0, 1803.0, 1806.0, 1805.0, 1809.0, 1810.0, 1811.0, 1814.0, 1814.0, 1814.0, 1814.0, 1812.0, 1811.0, 1809.0, 1808.0, 1808.0, 1806.0, 1804.0, 1807.0, 1805.0, 1797.0, 1795.0, 1790.0, 1782.0, 1782.0, 1783.0, 1787.0, 1790.0, 1792.0, 1795.0, 1795.0, 1799.0, 1802.0, 1801.0, 1802.0, 1804.0, 1804.0, 1805.0, 1806.0, 1807.0, 1806.0, 1806.0, 1807.0, 1806.0, 1806.0, 1809.0, 1809.0, 1809.0, 1810.0, 1808.0, 1809.0, 1808.0, 1810.0, 1810.0, 1809.0, 1811.0, 1813.0, 1813.0, 1812.0, 1807.0, 1804.0, 1800.0, 1800.0, 1802.0, 1801.0, 1802.0, 1802.0, 1803.0, 1803.0, 1804.0, 1806.0, 1807.0, 1815.0, 1810.0, 1815.0, 1813.0, 1809.0, 1811.0, 1804.0, 1805.0, 1801.0, 1800.0, 1799.0, 1797.0, 1797.0, 1799.0, 1787.0, 1791.0, 1802.0, 1804.0, 1803.0, 1797.0, 1793.0, 1802.0, 1794.0, 1795.0, 1796.0, 1798.0, 1800.0, 1801.0, 1801.0, 1805.0, 1807.0, 1812.0, 1813.0, 1810.0, 1806.0, 1797.0, 1791.0, 1789.0, 1790.0, 1792.0, 1793.0, 1796.0, 1799.0, 1801.0, 1802.0, 1803.0, 1805.0, 1802.0, 1802.0, 1798.0, 1800.0, 1802.0, 1802.0, 1806.0, 1807.0, 1808.0, 1811.0, 1815.0, 1818.0, 1819.0, 1815.0, 1806.0, 1800.0, 1794.0, 1793.0, 1793.0, 1792.0, 1797.0, 1800.0, 1803.0, 1803.0, 1797.0, 1803.0, 1803.0, 1801.0, 1802.0, 1794.0, 1791.0, 1789.0, 1789.0, 1790.0, 1791.0, 1794.0, 1795.0, 1799.0, 1797.0, 1794.0, 1785.0, 1802.0, 1799.0, 1797.0, 1797.0, 1798.0, 1799.0, 1799.0, 1799.0, 1801.0, 1803.0, 1807.0, 1808.0, 1811.0, 1812.0, 1811.0, 1812.0, 1815.0, 1813.0, 1811.0, 1805.0, 1801.0, 1798.0, 1799.0, 1800.0, 1799.0, 1798.0, 1792.0, 1801.0, 1793.0, 1793.0, 1793.0, 1796.0, 1797.0, 1795.0, 1794.0, 1793.0, 1794.0]
    },
    "slices": {}
  }
}