{
  "AcquisitionMatrixPE": 100,
  "AcquisitionNumber": 1,
  "AcquisitionTime": "13:23:4.972500",
  "BandwidthPerPixelPhaseEncode": 18.519,
  "BaseResolution": 100,
  "BodyPartExamined": "BRAIN",
  "ConsistencyInfo": "N4_VE11C_LATEST_20160120",
  "ConversionSoftware": "dcm2niix",
  "ConversionSoftwareVersion": "v1.0.20180622 GCC4.9.2",
  "DerivedVendorReportedEchoSpacing": 0.000539986,
  "DeviceSerialNumber": "166078",
  "DwellTime": 2.1e-06,
  "EchoTime": 0.034,
  "EchoTrainLength": 100,
  "EffectiveEchoSpacing": 0.000539986,
  "FlipAngle": 90,
  "ImageOrientationPatientDICOM": [0.998888, 0.0128091, -0.0453663, -0.0209237, 0.982853, -0.183198],
  "ImageType": [
    "ORIGINAL",
    "PRIMARY",
    "M",
    "ND",
    "MOSAIC"
],
  "InPlanePhaseEncodingDirectionDICOM": "COL",
  "InstitutionAddress": "Street_StreetNo_Bei_Jing_District_CN_ZIP",
  "InstitutionName": "BeiJing_Normal_University",
  "InstitutionalDepartmentName": "Department",
  "MRAcquisitionType": "2D",
  "MagneticFieldStrength": 3,
  "Manufacturer": "Siemens",
  "ManufacturersModelName": "Prisma",
  "Modality": "MR",
  "MultibandAccelerationFactor": 3,
  "PartialFourier": 1,
  "PatientPosition": "HFS",
  "PercentPhaseFOV": 100,
  "PhaseEncodingDirection": "j-",
  "PhaseEncodingSteps": 100,
  "PhaseResolution": 1,
  "PixelBandwidth": 2380,
  "ProcedureStepDescription": "BNU_P2018_64CH_Liu.Jia",
  "ProtocolName": "bold_100x100_s3_2x2x2_232",
  "PulseSequenceDetails": "%SiemensSeq%_ep2d_bold",
  "ReceiveCoilActiveElements": "HC1-7;NC1",
  "ReceiveCoilName": "HeadNeck_64",
  "ReconMatrixPE": 100,
  "RepetitionTime": 2,
  "SAR": 0.0809563,
  "ScanOptions": "FS",
  "ScanningSequence": "EP",
  "SequenceName": "_epfid2d1_100",
  "SequenceVariant": "SK",
  "SeriesDescription": "bold_100x100_s3_2x2x2_232",
  "SeriesNumber": 10,
  "ShimSetting": [-5487, -11493, -1261, 371, -57, -188, -114, 122],
  "SliceThickness": 2,
  "SliceTiming": [1.485, 0, 0.99, 0.0825, 1.0725, 0.165, 1.155, 0.2475, 1.2375, 0.33, 1.32, 0.4125, 1.4025, 0.5775, 1.5675, 0.66, 1.65, 0.7425, 1.7325, 0.825, 1.815, 0.9075, 1.8975, 0.495, 1.485, 0, 0.99, 0.0825, 1.0725, 0.165, 1.155, 0.2475, 1.2375, 0.33, 1.32, 0.4125, 1.4025, 0.5775, 1.5675, 0.66, 1.65, 0.7425, 1.7325, 0.825, 1.815, 0.9075, 1.8975, 0.495, 1.485, 0, 0.99, 0.0825, 1.0725, 0.165, 1.155, 0.2475, 1.2375, 0.33, 1.32, 0.4125, 1.4025, 0.5775, 1.5675, 0.66, 1.65, 0.7425, 1.7325, 0.825, 1.815, 0.9075, 1.8975, 0.495],
  "SoftwareVersions": "syngo_MR_E11",
  "SpacingBetweenSlices": 2,
  "StationName": "AWP166078",
  "TaskName": "motor",
  "TotalReadoutTime": 0.0534586,
  "TxRefAmp": 231.205,
  "dcmmeta_affine": [
    [-1.9977766275405884, -0.04184741526842117, -0.08448369055986404, 104.87811279296875],
    [-0.02561810612678528, 1.9657065868377686, -0.3678874671459198, -79.38216400146484],
    [-0.090732641518116, 0.36639630794525146, 1.9640573263168335, -82.52085876464844],
    [0.0, 0.0, 0.0, 1.0]
],
  "dcmmeta_reorient_transform": [
    [0.0, -1.0, 0.0, 99.0],
    [1.0, 0.0, 0.0, 0.0],
    [0.0, 0.0, 1.0, 0.0],
    [0.0, 0.0, 0.0, 1.0]
],
  "dcmmeta_shape": [100, 100, 72, 232],
  "dcmmeta_slice_dim": 2,
  "dcmmeta_version": 0.6,
  "global": {
    "const": {
      "AcquisitionMatrix": [100, 0, 0, 100],
      "AngioFlag": "N",
      "BitsAllocated": 16,
      "BitsStored": 12,
      "BodyPartExamined": "BRAIN",
      "Columns": 900,
      "EchoNumbers": 1,
      "EchoTime": 34.0,
      "EchoTrainLength": 100,
      "FlipAngle": 90.0,
      "HighBit": 11,
      "ImageOrientationPatient": [0.9988882945342, 0.01280905282077, -0.0453663224032, -0.0209237077025, 0.98285331218052, -0.1831981582652],
      "ImagePositionPatient": [-883.10688437599, -911.75268653797, 136.60396003073],
      "ImageType": [
        "ORIGINAL",
        "PRIMARY",
        "M",
        "ND",
        "MOSAIC"
],
      "ImagedNucleus": "1H",
      "ImagingFrequency": 123.257827,
      "InPlanePhaseEncodingDirection": "COL",
      "MRAcquisitionType": "2D",
      "MagneticFieldStrength": 3.0,
      "Manufacturer": "SIEMENS",
      "ManufacturerModelName": "Prisma",
      "Modality": "MR",
      "NumberOfAverages": 1.0,
      "NumberOfPhaseEncodingSteps": 100,
      "PercentPhaseFieldOfView": 100.0,
      "PercentSampling": 100.0,
      "PerformedProcedureStepStartTime": "123106.889000",
      "PhotometricInterpretation": "MONOCHROME2",
      "PixelBandwidth": 2380.0,
      "PixelRepresentation": 0,
      "PixelSpacing": [2.0, 2.0],
      "ProtocolName": "bold_100x100_s3_2x2x2_232",
      "RepetitionTime": 2000.0,
      "Rows": 900,
      "SAR": 0.08095629789906,
      "SamplesPerPixel": 1,
      "ScanOptions": "FS",
      "ScanningSequence": "EP",
      "SequenceName": "*epfid2d1_100",
      "SequenceVariant": "SK",
      "SeriesDescription": "bold_100x100_s3_2x2x2_232",
      "SeriesNumber": 10,
      "SeriesTime": "132306.888000",
      "SliceLocation": -70.866245415765,
      "SliceThickness": 2.0,
      "SmallestImagePixelValue": 0,
      "SoftwareVersions": "syngo MR E11",
      "SpacingBetweenSlices": 2.0000000194743,
      "SpecificCharacterSet": "ISO_IR 100",
      "StudyID": "1",
      "StudyTime": "123106.794000",
      "TransmitCoilName": "Body",
      "VariableFlipAngleFlag": "N",
      "WindowCenterWidthExplanation": "Algo1",
      "dBdt": 0.0},
    "slices": {}
  },
  "time": {
    "samples": {
      "AcquisitionNumber": [1, 2, 3, 4, 5, 6, 7, 8, 9, 10, 11, 12, 13, 14, 15, 16, 17, 18, 19, 20, 21, 22, 23, 24, 25, 26, 27, 28, 29, 30, 31, 32, 33, 34, 35, 36, 37, 38, 39, 40, 41, 42, 43, 44, 45, 46, 47, 48, 49, 50, 51, 52, 53, 54, 55, 56, 57, 58, 59, 60, 61, 62, 63, 64, 65, 66, 67, 68, 69, 70, 71, 72, 73, 74, 75, 76, 77, 78, 79, 80, 81, 82, 83, 84, 85, 86, 87, 88, 89, 90, 91, 92, 93, 94, 95, 96, 97, 98, 99, 100, 101, 102, 103, 104, 105, 106, 107, 108, 109, 110, 111, 112, 113, 114, 115, 116, 117, 118, 119, 120, 121, 122, 123, 124, 125, 126, 127, 128, 129, 130, 131, 132, 133, 134, 135, 136, 137, 138, 139, 140, 141, 142, 143, 144, 145, 146, 147, 148, 149, 150, 151, 152, 153, 154, 155, 156, 157, 158, 159, 160, 161, 162, 163, 164, 165, 166, 167, 168, 169, 170, 171, 172, 173, 174, 175, 176, 177, 178, 179, 180, 181, 182, 183, 184, 185, 186, 187, 188, 189, 190, 191, 192, 193, 194, 195, 196, 197, 198, 199, 200, 201, 202, 203, 204, 205, 206, 207, 208, 209, 210, 211, 212, 213, 214, 215, 216, 217, 218, 219, 220, 221, 222, 223, 224, 225, 226, 227, 228, 229, 230, 231, 232],
      "AcquisitionTime": ["132304.972500", "132306.972500", "132308.972500", "132310.972500", "132312.972500", "132314.972500", "132316.972500", "132318.972500", "132320.972500", "132322.972500", "132324.972500", "132326.972500", "132328.972500", "132330.972500", "132332.972500", "132334.972500", "132336.972500", "132338.972500", "132340.972500", "132342.972500", "132344.972500", "132346.972500", "132348.972500", "132350.972500", "132352.972500", "132354.972500", "132356.972500", "132358.972500", "132400.972500", "132402.972500", "132404.972500", "132406.972500", "132408.972500", "132410.972500", "132412.972500", "132414.972500", "132416.972500", "132418.972500", "132420.972500", "132422.972500", "132424.972500", "132426.972500", "132428.972500", "132430.972500", "132432.972500", "132434.972500", "132436.972500", "132438.972500", "132440.972500", "132442.972500", "132444.972500", "132446.972500", "132448.972500", "132450.972500", "132452.972500", "132454.972500", "132456.972500", "132458.972500", "132500.972500", "132502.972500", "132504.972500", "132506.972500", "132508.972500", "132510.972500", "132512.972500", "132514.972500", "132516.972500", "132518.972500", "132520.972500", "132522.972500", "132524.972500", "132526.972500", "132528.972500", "132530.972500", "132532.972500", "132534.972500", "132536.972500", "132538.972500", "132540.972500", "132542.972500", "132544.972500", "132546.972500", "132548.972500", "132550.972500", "132552.972500", "132554.972500", "132556.972500", "132558.972500", "132600.972500", "132602.972500", "132604.972500", "132606.972500", "132608.972500", "132610.972500", "132612.972500", "132614.972500", "132616.972500", "132618.972500", "132620.972500", "132622.972500", "132624.972500", "132626.972500", "132628.972500", "132630.972500", "132632.972500", "132634.972500", "132636.972500", "132638.972500", "132640.972500", "132642.972500", "132644.972500", "132646.972500", "132648.972500", "132650.972500", "132652.972500", "132654.972500", "132656.972500", "132658.972500", "132700.972500", "132702.972500", "132704.972500", "132706.972500", "132708.972500", "132710.972500", "132712.972500", "132714.972500", "132716.972500", "132718.972500", "132720.972500", "132722.972500", "132724.972500", "132726.972500", "132728.972500", "132730.972500", "132732.972500", "132734.972500", "132736.972500", "132738.972500", "132740.972500", "132742.972500", "132744.972500", "132746.972500", "132748.972500", "132750.972500", "132752.972500", "132754.972500", "132756.972500", "132758.972500", "132800.972500", "132802.972500", "132804.972500", "132806.972500", "132808.972500", "132810.972500", "132812.972500", "132814.972500", "132816.972500", "132818.972500", "132820.972500", "132822.972500", "132824.972500", "132826.972500", "132828.972500", "132830.972500", "132832.972500", "132834.972500", "132836.972500", "132838.972500", "132840.972500", "132842.972500", "132844.972500", "132846.972500", "132848.972500", "132850.972500", "132852.972500", "132854.972500", "132856.972500", "132858.972500", "132900.972500", "132902.972500", "132904.972500", "132906.972500", "132908.972500", "132910.972500", "132912.972500", "132914.972500", "132916.972500", "132918.972500", "132920.972500", "132922.972500", "132924.972500", "132926.972500", "132928.972500", "132930.972500", "132932.972500", "132934.972500", "132936.972500", "132938.972500", "132940.972500", "132942.972500", "132944.972500", "132946.972500", "132948.972500", "132950.972500", "132952.972500", "132954.972500", "132956.972500", "132958.972500", "133000.972500", "133002.972500", "133004.972500", "133006.972500", "133008.972500", "133010.972500", "133012.972500", "133014.972500", "133016.972500", "133018.972500", "133020.972500", "133022.972500", "133024.972500", "133026.972500", "133028.972500", "133030.972500", "133032.972500", "133034.972500", "133036.972500", "133038.972500", "133040.972500", "133042.972500", "133044.972500", "133046.972500"],
      "ContentTime": ["132306.891000", "132308.371000", "132310.872000", "132312.371000", "132314.372000", "132316.871000", "132318.370000", "132320.370000", "132322.371000", "132324.871000", "132326.871000", "132328.871000", "132330.371000", "132332.372000", "132334.871000", "132336.871000", "132338.371000", "132340.372000", "132342.371000", "132344.372000", "132346.371000", "132348.372000", "132350.371000", "132352.371000", "132354.870000", "132356.872000", "132358.391000", "132400.371000", "132402.871000", "132404.371000", "132406.371000", "132408.871000", "132410.871000", "132412.370000", "132414.872000", "132416.372000", "132418.371000", "132420.372000", "132422.372000", "132424.371000", "132426.371000", "132428.370000", "132430.370000", "132432.372000", "132434.371000", "132436.371000", "132438.871000", "132440.372000", "132442.872000", "132444.371000", "132446.370000", "132448.371000", "132450.372000", "132452.372000", "132454.372000", "132456.371000", "132458.372000", "132500.372000", "132502.371000", "132504.370000", "132506.372000", "132508.371000", "132510.372000", "132512.371000", "132514.871000", "132516.371000", "132518.872000", "132520.371000", "132522.871000", "132524.871000", "132526.372000", "132528.371000", "132530.372000", "132532.871000", "132534.371000", "132536.371000", "132538.370000", "132540.871000", "132542.371000", "132544.372000", "132546.372000", "132548.371000", "132550.371000", "132552.872000", "132554.372000", "132556.871000", "132558.372000", "132600.372000", "132602.372000", "132604.371000", "132606.872000", "132608.371000", "132610.872000", "132612.371000", "132614.871000", "132616.871000", "132618.371000", "132620.371000", "132622.871000", "132624.371000", "132626.371000", "132628.371000", "132630.870000", "132632.370000", "132634.372000", "132636.871000", "132638.871000", "132640.371000", "132642.371000", "132644.372000", "132646.371000", "132648.870000", "132650.871000", "132652.871000", "132654.371000", "132656.371000", "132658.371000", "132700.371000", "132702.371000", "132704.872000", "132706.870000", "132708.371000", "132710.872000", "132712.872000", "132714.872000", "132716.371000", "132718.871000", "132720.871000", "132722.371000", "132724.870000", "132726.871000", "132728.371000", "132730.372000", "132732.372000", "132734.871000", "132736.371000", "132738.872000", "132740.371000", "132742.870000", "132744.371000", "132746.872000", "132748.371000", "132750.371000", "132752.872000", "132754.371000", "132756.872000", "132758.370000", "132800.872000", "132802.371000", "132804.872000", "132806.371000", "132808.872000", "132810.871000", "132812.871000", "132814.371000", "132816.870000", "132818.371000", "132820.871000", "132822.371000", "132824.371000", "132826.372000", "132828.371000", "132830.371000", "132832.872000", "132834.370000", "132836.872000", "132838.872000", "132840.372000", "132842.872000", "132844.372000", "132846.372000", "132848.871000", "132850.371000", "132852.370000", "132854.871000", "132856.371000", "132858.872000", "132900.371000", "132902.871000", "132904.872000", "132906.371000", "132908.871000", "132910.370000", "132912.871000", "132914.872000", "132916.372000", "132918.371000", "132920.873000", "132922.871000", "132924.371000", "132926.370000", "132928.371000", "132930.371000", "132932.872000", "132934.371000", "132936.371000", "132938.871000", "132940.372000", "132942.372000", "132944.370000", "132946.371000", "132948.372000", "132950.872000", "132952.371000", "132954.872000", "132956.371000", "132958.371000", "133000.372000", "133002.370000", "133004.371000", "133006.371000", "133008.371000", "133010.871000", "133012.372000", "133014.871000", "133016.872000", "133018.371000", "133020.370000", "133022.372000", "133024.371000", "133026.372000", "133028.371000", "133030.872000", "133032.372000", "133034.391000", "133036.371000", "133038.372000", "133040.371000", "133042.872000", "133044.372000", "133046.372000", "133048.328000"],
      "InstanceCreationTime": ["132306.891000", "132308.371000", "132310.872000", "132312.371000", "132314.372000", "132316.871000", "132318.370000", "132320.370000", "132322.371000", "132324.871000", "132326.871000", "132328.871000", "132330.371000", "132332.372000", "132334.871000", "132336.871000", "132338.371000", "132340.372000", "132342.371000", "132344.372000", "132346.371000", "132348.372000", "132350.371000", "132352.371000", "132354.870000", "132356.872000", "132358.391000", "132400.371000", "132402.871000", "132404.371000", "132406.371000", "132408.871000", "132410.871000", "132412.370000", "132414.872000", "132416.372000", "132418.371000", "132420.372000", "132422.372000", "132424.371000", "132426.371000", "132428.370000", "132430.370000", "132432.372000", "132434.371000", "132436.371000", "132438.871000", "132440.372000", "132442.872000", "132444.371000", "132446.370000", "132448.371000", "132450.372000", "132452.372000", "132454.372000", "132456.371000", "132458.372000", "132500.372000", "132502.371000", "132504.370000", "132506.372000", "132508.371000", "132510.372000", "132512.371000", "132514.871000", "132516.371000", "132518.872000", "132520.371000", "132522.871000", "132524.871000", "132526.372000", "132528.371000", "132530.372000", "132532.871000", "132534.371000", "132536.371000", "132538.370000", "132540.871000", "132542.371000", "132544.372000", "132546.372000", "132548.371000", "132550.371000", "132552.872000", "132554.372000", "132556.871000", "132558.372000", "132600.372000", "132602.372000", "132604.371000", "132606.872000", "132608.371000", "132610.872000", "132612.371000", "132614.871000", "132616.871000", "132618.371000", "132620.371000", "132622.871000", "132624.371000", "132626.371000", "132628.371000", "132630.870000", "132632.370000", "132634.372000", "132636.871000", "132638.871000", "132640.371000", "132642.371000", "132644.372000", "132646.371000", "132648.870000", "132650.871000", "132652.871000", "132654.371000", "132656.371000", "132658.371000", "132700.371000", "132702.371000", "132704.872000", "132706.870000", "132708.371000", "132710.872000", "132712.872000", "132714.872000", "132716.371000", "132718.871000", "132720.871000", "132722.371000", "132724.870000", "132726.871000", "132728.371000", "132730.372000", "132732.372000", "132734.871000", "132736.371000", "132738.872000", "132740.371000", "132742.870000", "132744.371000", "132746.872000", "132748.371000", "132750.371000", "132752.872000", "132754.371000", "132756.872000", "132758.370000", "132800.872000", "132802.371000", "132804.872000", "132806.371000", "132808.872000", "132810.871000", "132812.871000", "132814.371000", "132816.870000", "132818.371000", "132820.871000", "132822.371000", "132824.371000", "132826.372000", "132828.371000", "132830.371000", "132832.872000", "132834.370000", "132836.872000", "132838.872000", "132840.372000", "132842.872000", "132844.372000", "132846.372000", "132848.871000", "132850.371000", "132852.370000", "132854.871000", "132856.371000", "132858.872000", "132900.371000", "132902.871000", "132904.872000", "132906.371000", "132908.871000", "132910.370000", "132912.871000", "132914.872000", "132916.372000", "132918.371000", "132920.873000", "132922.871000", "132924.371000", "132926.370000", "132928.371000", "132930.371000", "132932.872000", "132934.371000", "132936.371000", "132938.871000", "132940.372000", "132942.372000", "132944.370000", "132946.371000", "132948.372000", "132950.872000", "132952.371000", "132954.872000", "132956.371000", "132958.371000", "133000.372000", "133002.370000", "133004.371000", "133006.371000", "133008.371000", "133010.871000", "133012.372000", "133014.871000", "133016.872000", "133018.371000", "133020.370000", "133022.372000", "133024.371000", "133026.372000", "133028.371000", "133030.872000", "133032.372000", "133034.391000", "133036.371000", "133038.372000", "133040.371000", "133042.872000", "133044.372000", "133046.372000", "133048.328000"],
      "InstanceNumber": [1, 2, 3, 4, 5, 6, 7, 8, 9, 10, 11, 12, 13, 14, 15, 16, 17, 18, 19, 20, 21, 22, 23, 24, 25, 26, 27, 28, 29, 30, 31, 32, 33, 34, 35, 36, 37, 38, 39, 40, 41, 42, 43, 44, 45, 46, 47, 48, 49, 50, 51, 52, 53, 54, 55, 56, 57, 58, 59, 60, 61, 62, 63, 64, 65, 66, 67, 68, 69, 70, 71, 72, 73, 74, 75, 76, 77, 78, 79, 80, 81, 82, 83, 84, 85, 86, 87, 88, 89, 90, 91, 92, 93, 94, 95, 96, 97, 98, 99, 100, 101, 102, 103, 104, 105, 106, 107, 108, 109, 110, 111, 112, 113, 114, 115, 116, 117, 118, 119, 120, 121, 122, 123, 124, 125, 126, 127, 128, 129, 130, 131, 132, 133, 134, 135, 136, 137, 138, 139, 140, 141, 142, 143, 144, 145, 146, 147, 148, 149, 150, 151, 152, 153, 154, 155, 156, 157, 158, 159, 160, 161, 162, 163, 164, 165, 166, 167, 168, 169, 170, 171, 172, 173, 174, 175, 176, 177, 178, 179, 180, 181, 182, 183, 184, 185, 186, 187, 188, 189, 190, 191, 192, 193, 194, 195, 196, 197, 198, 199, 200, 201, 202, 203, 204, 205, 206, 207, 208, 209, 210, 211, 212, 213, 214, 215, 216, 217, 218, 219, 220, 221, 222, 223, 224, 225, 226, 227, 228, 229, 230, 231, 232],
      "LargestImagePixelValue": [4095, 4095, 4095, 4095, 4095, 4095, 4095, 4095, 4095, 4095, 4095, 4095, 4095, 4095, 4095, 4095, 4095, 4095, 4095, 4095, 4095, 4095, 4095, 4095, 4095, 4095, 4095, 4095, 4095, 4095, 4095, 4095, 4095, 4095, 4095, 4095, 4095, 4095, 4095, 4095, 4095, 4095, 4095, 4095, 4005, 4095, 4095, 4085, 4095, 4095, 4095, 4095, 4095, 4095, 4095, 4095, 4095, 4095, 4095, 4095, 4095, 4095, 4095, 4095, 4095, 4095, 4095, 4095, 4095, 4095, 4095, 4095, 4095, 4095, 4095, 4095, 4095, 4095, 4095, 4095, 4095, 4095, 4095, 4095, 4095, 4095, 4095, 4095, 4095, 4095, 4095, 4095, 4095, 4095, 4095, 4095, 4095, 4095, 4095, 4095, 4095, 4095, 4095, 4095, 4095, 4095, 4095, 4095, 4095, 4095, 4095, 4095, 4095, 4095, 4095, 4095, 4095, 4095, 4095, 4095, 4095, 4095, 4095, 4095, 4095, 4095, 4095, 4095, 4095, 4095, 4095, 4095, 4095, 4095, 4095, 4095, 4095, 4095, 4095, 4095, 4095, 4095, 4095, 4095, 4095, 4095, 4095, 4095, 4095, 4095, 4095, 4095, 4095, 4095, 4095, 4095, 4095, 4095, 4095, 4095, 4095, 4095, 4095, 4095, 4095, 4095, 4095, 4095, 4095, 4095, 4095, 4095, 4095, 4095, 4095, 4095, 4095, 4095, 4095, 4095, 4095, 4095, 4095, 4095, 4095, 4095, 4095, 4095, 4095, 4095, 4095, 4095, 4095, 4095, 4095, 4095, 4095, 4095, 4095, 4095, 4095, 4095, 4095, 4095, 4095, 4095, 4095, 4095, 4095, 4095, 4095, 4095, 4095, 4095, 4095, 4095, 4095, 4095, 4095, 4095, 4095, 4095, 4095, 4095, 4095, 4095, 4095, 4095, 4095, 4095, 4095, 4095],
      "WindowCenter": [852.0, 851.0, 850.0, 852.0, 852.0, 852.0, 852.0, 851.0, 850.0, 852.0, 853.0, 852.0, 853.0, 853.0, 852.0, 852.0, 853.0, 854.0, 854.0, 854.0, 854.0, 855.0, 855.0, 855.0, 855.0, 855.0, 855.0, 854.0, 854.0, 854.0, 854.0, 852.0, 853.0, 854.0, 854.0, 854.0, 854.0, 853.0, 852.0, 852.0, 847.0, 843.0, 846.0, 854.0, 838.0, 852.0, 855.0, 842.0, 852.0, 854.0, 853.0, 853.0, 854.0, 854.0, 854.0, 854.0, 854.0, 854.0, 854.0, 854.0, 854.0, 855.0, 855.0, 852.0, 844.0, 840.0, 837.0, 844.0, 840.0, 845.0, 836.0, 845.0, 853.0, 855.0, 855.0, 855.0, 857.0, 856.0, 856.0, 857.0, 855.0, 857.0, 859.0, 858.0, 856.0, 856.0, 855.0, 856.0, 856.0, 857.0, 858.0, 857.0, 857.0, 855.0, 854.0, 855.0, 855.0, 853.0, 854.0, 855.0, 854.0, 851.0, 850.0, 849.0, 850.0, 852.0, 851.0, 851.0, 851.0, 852.0, 853.0, 852.0, 853.0, 854.0, 856.0, 856.0, 854.0, 854.0, 854.0, 854.0, 855.0, 854.0, 852.0, 854.0, 855.0, 854.0, 854.0, 854.0, 855.0, 854.0, 855.0, 854.0, 853.0, 851.0, 853.0, 852.0, 852.0, 853.0, 853.0, 853.0, 851.0, 851.0, 852.0, 853.0, 854.0, 854.0, 855.0, 853.0, 851.0, 851.0, 852.0, 852.0, 852.0, 853.0, 854.0, 854.0, 855.0, 855.0, 853.0, 852.0, 851.0, 845.0, 850.0, 847.0, 846.0, 857.0, 848.0, 853.0, 849.0, 852.0, 853.0, 854.0, 854.0, 855.0, 856.0, 856.0, 853.0, 852.0, 854.0, 854.0, 850.0, 850.0, 852.0, 854.0, 850.0, 845.0, 852.0, 842.0, 858.0, 855.0, 850.0, 855.0, 856.0, 855.0, 856.0, 855.0, 855.0, 856.0, 857.0, 857.0, 857.0, 857.0, 856.0, 857.0, 857.0, 856.0, 856.0, 856.0, 857.0, 857.0, 858.0, 858.0, 856.0, 855.0, 855.0, 856.0, 856.0, 856.0, 857.0, 856.0, 854.0, 854.0, 854.0, 854.0, 854.0, 853.0, 852.0, 852.0, 853.0, 854.0, 855.0, 853.0],
      "WindowWidth": [1854.0, 1852.0, 1850.0, 1853.0, 1854.0, 1854.0, 1853.0, 1851.0, 1849.0, 1855.0, 1855.0, 1855.0, 1856.0, 1857.0, 1853.0, 1853.0, 1856.0, 1859.0, 1860.0, 1860.0, 1861.0, 1863.0, 1864.0, 1864.0, 1862.0, 1864.0, 1863.0, 1861.0, 1861.0, 1859.0, 1859.0, 1856.0, 1857.0, 1860.0, 1859.0, 1860.0, 1860.0, 1856.0, 1855.0, 1855.0, 1842.0, 1833.0, 1841.0, 1862.0, 1820.0, 1859.0, 1864.0, 1828.0, 1856.0, 1860.0, 1859.0, 1858.0, 1860.0, 1860.0, 1861.0, 1860.0, 1860.0, 1861.0, 1860.0, 1859.0, 1861.0, 1862.0, 1862.0, 1854.0, 1834.0, 1827.0, 1819.0, 1838.0, 1824.0, 1840.0, 1817.0, 1840.0, 1858.0, 1861.0, 1862.0, 1863.0, 1867.0, 1865.0, 1867.0, 1868.0, 1863.0, 1867.0, 1872.0, 1870.0, 1865.0, 1865.0, 1863.0, 1865.0, 1865.0, 1868.0, 1870.0, 1868.0, 1867.0, 1863.0, 1861.0, 1863.0, 1864.0, 1857.0, 1859.0, 1861.0, 1859.0, 1851.0, 1848.0, 1846.0, 1849.0, 1855.0, 1853.0, 1852.0, 1851.0, 1854.0, 1857.0, 1856.0, 1857.0, 1859.0, 1864.0, 1865.0, 1860.0, 1859.0, 1858.0, 1860.0, 1862.0, 1860.0, 1854.0, 1859.0, 1862.0, 1860.0, 1860.0, 1861.0, 1861.0, 1860.0, 1861.0, 1858.0, 1856.0, 1852.0, 1856.0, 1854.0, 1853.0, 1856.0, 1857.0, 1856.0, 1852.0, 1852.0, 1855.0, 1857.0, 1859.0, 1858.0, 1861.0, 1856.0, 1852.0, 1852.0, 1854.0, 1853.0, 1854.0, 1856.0, 1859.0, 1860.0, 1862.0, 1862.0, 1858.0, 1855.0, 1852.0, 1839.0, 1851.0, 1843.0, 1841.0, 1869.0, 1845.0, 1860.0, 1851.0, 1854.0, 1858.0, 1858.0, 1859.0, 1861.0, 1864.0, 1864.0, 1857.0, 1855.0, 1861.0, 1858.0, 1850.0, 1850.0, 1854.0, 1859.0, 1849.0, 1837.0, 1856.0, 1829.0, 1873.0, 1863.0, 1851.0, 1865.0, 1866.0, 1862.0, 1864.0, 1863.0, 1864.0, 1865.0, 1867.0, 1868.0, 1868.0, 1868.0, 1865.0, 1868.0, 1868.0, 1866.0, 1865.0, 1866.0, 1868.0, 1867.0, 1870.0, 1871.0, 1864.0, 1862.0, 1863.0, 1864.0, 1865.0, 1866.0, 1867.0, 1865.0, 1860.0, 1859.0, 1860.0, 1860.0, 1859.0, 1856.0, 1855.0, 1854.0, 1857.0, 1858.0, 1860.0, 1856.0]
    },
    "slices": {}
  }
}