{
  "AcquisitionMatrixPE": 100,
  "AcquisitionNumber": 1,
  "AcquisitionTime": "12:36:16.400000",
  "BandwidthPerPixelPhaseEncode": 18.519,
  "BaseResolution": 100,
  "BodyPartExamined": "BRAIN",
  "ConsistencyInfo": "N4_VE11C_LATEST_20160120",
  "ConversionSoftware": "dcm2niix",
  "ConversionSoftwareVersion": "v1.0.20180622 GCC4.9.2",
  "DerivedVendorReportedEchoSpacing": 0.000539986,
  "DeviceSerialNumber": "166078",
  "DwellTime": 2.1e-06,
  "EchoTime": 0.034,
  "EchoTrainLength": 100,
  "EffectiveEchoSpacing": 0.000539986,
  "FlipAngle": 90,
  "ImageOrientationPatientDICOM": [0.998888, 0.0128091, -0.0453663, -0.0209237, 0.982853, -0.183198],
  "ImageType": [
    "ORIGINAL",
    "PRIMARY",
    "M",
    "ND",
    "MOSAIC"
],
  "InPlanePhaseEncodingDirectionDICOM": "COL",
  "InstitutionAddress": "Street_StreetNo_Bei_Jing_District_CN_ZIP",
  "InstitutionName": "BeiJing_Normal_University",
  "InstitutionalDepartmentName": "Department",
  "MRAcquisitionType": "2D",
  "MagneticFieldStrength": 3,
  "Manufacturer": "Siemens",
  "ManufacturersModelName": "Prisma",
  "Modality": "MR",
  "MultibandAccelerationFactor": 3,
  "PartialFourier": 1,
  "PatientPosition": "HFS",
  "PercentPhaseFOV": 100,
  "PhaseEncodingDirection": "j-",
  "PhaseEncodingSteps": 100,
  "PhaseResolution": 1,
  "PixelBandwidth": 2380,
  "ProcedureStepDescription": "BNU_P2018_64CH_Liu.Jia",
  "ProtocolName": "bold_100x100_s3_2x2x2_232",
  "PulseSequenceDetails": "%SiemensSeq%_ep2d_bold",
  "ReceiveCoilActiveElements": "HC1-7;NC1",
  "ReceiveCoilName": "HeadNeck_64",
  "ReconMatrixPE": 100,
  "RepetitionTime": 2,
  "SAR": 0.0809563,
  "ScanOptions": "FS",
  "ScanningSequence": "EP",
  "SequenceName": "_epfid2d1_100",
  "SequenceVariant": "SK",
  "SeriesDescription": "bold_100x100_s3_2x2x2_232",
  "SeriesNumber": 3,
  "ShimSetting": [-5487, -11493, -1261, 371, -57, -188, -114, 122],
  "SliceThickness": 2,
  "SliceTiming": [1.485, 0, 0.99, 0.0825, 1.0725, 0.165, 1.155, 0.2475, 1.2375, 0.33, 1.32, 0.4125, 1.4025, 0.5775, 1.5675, 0.66, 1.65, 0.7425, 1.7325, 0.825, 1.815, 0.9075, 1.8975, 0.495, 1.485, 0, 0.99, 0.0825, 1.0725, 0.165, 1.155, 0.2475, 1.2375, 0.33, 1.32, 0.4125, 1.4025, 0.5775, 1.5675, 0.66, 1.65, 0.7425, 1.7325, 0.825, 1.815, 0.9075, 1.8975, 0.495, 1.485, 0, 0.99, 0.0825, 1.0725, 0.165, 1.155, 0.2475, 1.2375, 0.33, 1.32, 0.4125, 1.4025, 0.5775, 1.5675, 0.66, 1.65, 0.7425, 1.7325, 0.825, 1.815, 0.9075, 1.8975, 0.495],
  "SoftwareVersions": "syngo_MR_E11",
  "SpacingBetweenSlices": 2,
  "StationName": "AWP166078",
  "TaskName": "motor",
  "TotalReadoutTime": 0.0534586,
  "TxRefAmp": 231.205,
  "dcmmeta_affine": [
    [-1.9977766275405884, -0.04184741526842117, -0.08448369055986404, 104.87811279296875],
    [-0.02561810612678528, 1.9657065868377686, -0.3678874671459198, -79.38216400146484],
    [-0.090732641518116, 0.36639630794525146, 1.9640573263168335, -82.52085876464844],
    [0.0, 0.0, 0.0, 1.0]
],
  "dcmmeta_reorient_transform": [
    [0.0, -1.0, 0.0, 99.0],
    [1.0, 0.0, 0.0, 0.0],
    [0.0, 0.0, 1.0, 0.0],
    [0.0, 0.0, 0.0, 1.0]
],
  "dcmmeta_shape": [100, 100, 72, 232],
  "dcmmeta_slice_dim": 2,
  "dcmmeta_version": 0.6,
  "global": {
    "const": {
      "AcquisitionMatrix": [100, 0, 0, 100],
      "AngioFlag": "N",
      "BitsAllocated": 16,
      "BitsStored": 12,
      "BodyPartExamined": "BRAIN",
      "Columns": 900,
      "EchoNumbers": 1,
      "EchoTime": 34.0,
      "EchoTrainLength": 100,
      "FlipAngle": 90.0,
      "HighBit": 11,
      "ImageOrientationPatient": [0.9988882945342, 0.01280905282077, -0.0453663224032, -0.0209237077025, 0.98285331218052, -0.1831981582652],
      "ImagePositionPatient": [-883.10688437599, -911.75268653797, 136.60396003073],
      "ImageType": [
        "ORIGINAL",
        "PRIMARY",
        "M",
        "ND",
        "MOSAIC"
],
      "ImagedNucleus": "1H",
      "ImagingFrequency": 123.257811,
      "InPlanePhaseEncodingDirection": "COL",
      "MRAcquisitionType": "2D",
      "MagneticFieldStrength": 3.0,
      "Manufacturer": "SIEMENS",
      "ManufacturerModelName": "Prisma",
      "Modality": "MR",
      "NumberOfAverages": 1.0,
      "NumberOfPhaseEncodingSteps": 100,
      "PercentPhaseFieldOfView": 100.0,
      "PercentSampling": 100.0,
      "PerformedProcedureStepStartTime": "123106.889000",
      "PhotometricInterpretation": "MONOCHROME2",
      "PixelBandwidth": 2380.0,
      "PixelRepresentation": 0,
      "PixelSpacing": [2.0, 2.0],
      "ProtocolName": "bold_100x100_s3_2x2x2_232",
      "RepetitionTime": 2000.0,
      "Rows": 900,
      "SAR": 0.08095629789906,
      "SamplesPerPixel": 1,
      "ScanOptions": "FS",
      "ScanningSequence": "EP",
      "SequenceName": "*epfid2d1_100",
      "SequenceVariant": "SK",
      "SeriesDescription": "bold_100x100_s3_2x2x2_232",
      "SeriesNumber": 3,
      "SeriesTime": "123619.110000",
      "SliceLocation": -70.866245415765,
      "SliceThickness": 2.0,
      "SmallestImagePixelValue": 0,
      "SoftwareVersions": "syngo MR E11",
      "SpacingBetweenSlices": 2.0000000194743,
      "SpecificCharacterSet": "ISO_IR 100",
      "StudyID": "1",
      "StudyTime": "123106.794000",
      "TransmitCoilName": "Body",
      "VariableFlipAngleFlag": "N",
      "WindowCenterWidthExplanation": "Algo1",
      "dBdt": 0.0},
    "slices": {}
  },
  "time": {
    "samples": {
      "AcquisitionNumber": [1, 2, 3, 4, 5, 6, 7, 8, 9, 10, 11, 12, 13, 14, 15, 16, 17, 18, 19, 20, 21, 22, 23, 24, 25, 26, 27, 28, 29, 30, 31, 32, 33, 34, 35, 36, 37, 38, 39, 40, 41, 42, 43, 44, 45, 46, 47, 48, 49, 50, 51, 52, 53, 54, 55, 56, 57, 58, 59, 60, 61, 62, 63, 64, 65, 66, 67, 68, 69, 70, 71, 72, 73, 74, 75, 76, 77, 78, 79, 80, 81, 82, 83, 84, 85, 86, 87, 88, 89, 90, 91, 92, 93, 94, 95, 96, 97, 98, 99, 100, 101, 102, 103, 104, 105, 106, 107, 108, 109, 110, 111, 112, 113, 114, 115, 116, 117, 118, 119, 120, 121, 122, 123, 124, 125, 126, 127, 128, 129, 130, 131, 132, 133, 134, 135, 136, 137, 138, 139, 140, 141, 142, 143, 144, 145, 146, 147, 148, 149, 150, 151, 152, 153, 154, 155, 156, 157, 158, 159, 160, 161, 162, 163, 164, 165, 166, 167, 168, 169, 170, 171, 172, 173, 174, 175, 176, 177, 178, 179, 180, 181, 182, 183, 184, 185, 186, 187, 188, 189, 190, 191, 192, 193, 194, 195, 196, 197, 198, 199, 200, 201, 202, 203, 204, 205, 206, 207, 208, 209, 210, 211, 212, 213, 214, 215, 216, 217, 218, 219, 220, 221, 222, 223, 224, 225, 226, 227, 228, 229, 230, 231, 232],
      "AcquisitionTime": ["123616.400000", "123618.400000", "123620.400000", "123622.400000", "123624.400000", "123626.400000", "123628.400000", "123630.400000", "123632.400000", "123634.400000", "123636.400000", "123638.400000", "123640.400000", "123642.400000", "123644.400000", "123646.400000", "123648.400000", "123650.400000", "123652.400000", "123654.400000", "123656.400000", "123658.400000", "123700.400000", "123702.400000", "123704.400000", "123706.400000", "123708.400000", "123710.400000", "123712.400000", "123714.400000", "123716.400000", "123718.400000", "123720.400000", "123722.400000", "123724.400000", "123726.400000", "123728.400000", "123730.400000", "123732.400000", "123734.400000", "123736.400000", "123738.400000", "123740.400000", "123742.400000", "123744.400000", "123746.400000", "123748.400000", "123750.400000", "123752.400000", "123754.400000", "123756.400000", "123758.400000", "123800.400000", "123802.400000", "123804.400000", "123806.400000", "123808.400000", "123810.400000", "123812.400000", "123814.400000", "123816.400000", "123818.400000", "123820.400000", "123822.400000", "123824.400000", "123826.400000", "123828.400000", "123830.400000", "123832.400000", "123834.400000", "123836.400000", "123838.400000", "123840.400000", "123842.400000", "123844.400000", "123846.400000", "123848.400000", "123850.400000", "123852.400000", "123854.400000", "123856.400000", "123858.400000", "123900.400000", "123902.400000", "123904.400000", "123906.400000", "123908.400000", "123910.400000", "123912.400000", "123914.400000", "123916.400000", "123918.400000", "123920.400000", "123922.400000", "123924.400000", "123926.400000", "123928.400000", "123930.400000", "123932.400000", "123934.400000", "123936.400000", "123938.400000", "123940.400000", "123942.400000", "123944.400000", "123946.400000", "123948.400000", "123950.400000", "123952.400000", "123954.400000", "123956.400000", "123958.400000", "124000.400000", "124002.400000", "124004.400000", "124006.400000", "124008.400000", "124010.400000", "124012.400000", "124014.400000", "124016.400000", "124018.400000", "124020.400000", "124022.400000", "124024.400000", "124026.400000", "124028.400000", "124030.400000", "124032.400000", "124034.400000", "124036.400000", "124038.400000", "124040.400000", "124042.400000", "124044.400000", "124046.400000", "124048.400000", "124050.400000", "124052.400000", "124054.400000", "124056.400000", "124058.400000", "124100.400000", "124102.400000", "124104.400000", "124106.400000", "124108.400000", "124110.400000", "124112.400000", "124114.400000", "124116.400000", "124118.400000", "124120.400000", "124122.400000", "124124.400000", "124126.400000", "124128.400000", "124130.400000", "124132.400000", "124134.400000", "124136.400000", "124138.400000", "124140.400000", "124142.400000", "124144.400000", "124146.400000", "124148.400000", "124150.400000", "124152.400000", "124154.400000", "124156.400000", "124158.400000", "124200.400000", "124202.400000", "124204.400000", "124206.400000", "124208.400000", "124210.400000", "124212.400000", "124214.400000", "124216.400000", "124218.400000", "124220.400000", "124222.400000", "124224.400000", "124226.400000", "124228.400000", "124230.400000", "124232.400000", "124234.400000", "124236.400000", "124238.400000", "124240.400000", "124242.400000", "124244.400000", "124246.400000", "124248.400000", "124250.400000", "124252.400000", "124254.400000", "124256.400000", "124258.400000", "124300.400000", "124302.400000", "124304.400000", "124306.400000", "124308.400000", "124310.400000", "124312.400000", "124314.400000", "124316.400000", "124318.400000", "124320.400000", "124322.400000", "124324.400000", "124326.400000", "124328.400000", "124330.400000", "124332.400000", "124334.400000", "124336.400000", "124338.400000", "124340.400000", "124342.400000", "124344.400000", "124346.400000", "124348.400000", "124350.400000", "124352.400000", "124354.400000", "124356.400000", "124358.400000"],
      "ContentTime": ["123619.113000", "123620.609000", "123622.609000", "123624.608000", "123626.609000", "123628.610000", "123630.609000", "123632.609000", "123634.609000", "123636.609000", "123638.609000", "123640.609000", "123642.609000", "123644.609000", "123646.610000", "123648.609000", "123650.609000", "123652.609000", "123654.609000", "123656.609000", "123658.610000", "123700.609000", "123702.609000", "123704.609000", "123706.610000", "123708.609000", "123710.609000", "123712.609000", "123714.610000", "123716.608000", "123718.609000", "123720.609000", "123722.610000", "123724.609000", "123726.610000", "123728.609000", "123730.610000", "123732.610000", "123734.609000", "123736.609000", "123738.609000", "123740.609000", "123742.609000", "123744.609000", "123746.609000", "123748.610000", "123750.609000", "123752.608000", "123754.609000", "123756.610000", "123758.629000", "123800.609000", "123802.609000", "123804.609000", "123806.609000", "123808.609000", "123810.609000", "123812.609000", "123814.609000", "123816.609000", "123818.609000", "123820.610000", "123822.610000", "123824.609000", "123826.609000", "123828.609000", "123830.609000", "123832.610000", "123834.610000", "123836.609000", "123838.609000", "123840.609000", "123842.610000", "123844.608000", "123846.609000", "123848.609000", "123850.610000", "123852.610000", "123854.609000", "123856.609000", "123858.609000", "123900.610000", "123902.608000", "123904.629000", "123906.609000", "123908.609000", "123910.609000", "123912.609000", "123914.610000", "123916.609000", "123918.610000", "123920.608000", "123922.609000", "123924.609000", "123926.609000", "123928.609000", "123930.609000", "123932.609000", "123934.609000", "123936.608000", "123938.610000", "123940.609000", "123942.609000", "123944.610000", "123946.610000", "123948.609000", "123950.609000", "123952.609000", "123954.609000", "123956.610000", "123958.609000", "124000.610000", "124002.609000", "124004.609000", "124006.609000", "124008.609000", "124010.609000", "124012.608000", "124014.610000", "124016.610000", "124018.610000", "124020.610000", "124022.609000", "124024.609000", "124026.609000", "124028.609000", "124030.608000", "124032.609000", "124034.609000", "124036.610000", "124038.609000", "124040.609000", "124042.610000", "124044.609000", "124046.609000", "124048.609000", "124050.610000", "124052.609000", "124054.609000", "124056.609000", "124058.609000", "124101.110000", "124102.609000", "124104.608000", "124106.609000", "124108.609000", "124110.609000", "124112.610000", "124114.609000", "124116.609000", "124118.609000", "124120.610000", "124122.609000", "124124.609000", "124126.609000", "124128.610000", "124130.609000", "124132.609000", "124134.609000", "124136.610000", "124138.609000", "124140.608000", "124142.609000", "124144.609000", "124146.609000", "124148.609000", "124150.610000", "124152.609000", "124154.609000", "124156.608000", "124158.610000", "124200.610000", "124202.610000", "124204.610000", "124206.610000", "124208.609000", "124210.609000", "124212.609000", "124214.608000", "124216.609000", "124218.609000", "124220.609000", "124222.609000", "124224.610000", "124226.610000", "124228.609000", "124230.610000", "124232.609000", "124234.609000", "124236.609000", "124238.609000", "124240.610000", "124242.610000", "124244.610000", "124246.610000", "124248.609000", "124250.609000", "124252.610000", "124254.609000", "124256.610000", "124258.610000", "124300.610000", "124302.609000", "124304.609000", "124306.608000", "124308.609000", "124310.610000", "124312.609000", "124314.609000", "124316.609000", "124318.610000", "124320.609000", "124322.610000", "124324.608000", "124326.609000", "124328.609000", "124330.609000", "124332.609000", "124334.609000", "124336.610000", "124338.610000", "124340.609000", "124342.608000", "124344.610000", "124346.609000", "124348.610000", "124350.609000", "124352.610000", "124354.609000", "124356.609000", "124358.609000", "124400.451000"],
      "InstanceCreationTime": ["123619.113000", "123620.609000", "123622.609000", "123624.608000", "123626.609000", "123628.610000", "123630.609000", "123632.609000", "123634.609000", "123636.609000", "123638.609000", "123640.609000", "123642.609000", "123644.609000", "123646.610000", "123648.609000", "123650.609000", "123652.609000", "123654.609000", "123656.609000", "123658.610000", "123700.609000", "123702.609000", "123704.609000", "123706.610000", "123708.609000", "123710.609000", "123712.609000", "123714.610000", "123716.608000", "123718.609000", "123720.609000", "123722.610000", "123724.609000", "123726.610000", "123728.609000", "123730.610000", "123732.610000", "123734.609000", "123736.609000", "123738.609000", "123740.609000", "123742.609000", "123744.609000", "123746.609000", "123748.610000", "123750.609000", "123752.608000", "123754.609000", "123756.610000", "123758.629000", "123800.609000", "123802.609000", "123804.609000", "123806.609000", "123808.609000", "123810.609000", "123812.609000", "123814.609000", "123816.609000", "123818.609000", "123820.610000", "123822.610000", "123824.609000", "123826.609000", "123828.609000", "123830.609000", "123832.610000", "123834.610000", "123836.609000", "123838.609000", "123840.609000", "123842.610000", "123844.608000", "123846.609000", "123848.609000", "123850.610000", "123852.610000", "123854.609000", "123856.609000", "123858.609000", "123900.610000", "123902.608000", "123904.629000", "123906.609000", "123908.609000", "123910.609000", "123912.609000", "123914.610000", "123916.609000", "123918.610000", "123920.608000", "123922.609000", "123924.609000", "123926.609000", "123928.609000", "123930.609000", "123932.609000", "123934.609000", "123936.608000", "123938.610000", "123940.609000", "123942.609000", "123944.610000", "123946.610000", "123948.609000", "123950.609000", "123952.609000", "123954.609000", "123956.610000", "123958.609000", "124000.610000", "124002.609000", "124004.609000", "124006.609000", "124008.609000", "124010.609000", "124012.608000", "124014.610000", "124016.610000", "124018.610000", "124020.610000", "124022.609000", "124024.609000", "124026.609000", "124028.609000", "124030.608000", "124032.609000", "124034.609000", "124036.610000", "124038.609000", "124040.609000", "124042.610000", "124044.609000", "124046.609000", "124048.609000", "124050.610000", "124052.609000", "124054.609000", "124056.609000", "124058.609000", "124101.110000", "124102.609000", "124104.608000", "124106.609000", "124108.609000", "124110.609000", "124112.610000", "124114.609000", "124116.609000", "124118.609000", "124120.610000", "124122.609000", "124124.609000", "124126.609000", "124128.610000", "124130.609000", "124132.609000", "124134.609000", "124136.610000", "124138.609000", "124140.608000", "124142.609000", "124144.609000", "124146.609000", "124148.609000", "124150.610000", "124152.609000", "124154.609000", "124156.608000", "124158.610000", "124200.610000", "124202.610000", "124204.610000", "124206.610000", "124208.609000", "124210.609000", "124212.609000", "124214.608000", "124216.609000", "124218.609000", "124220.609000", "124222.609000", "124224.610000", "124226.610000", "124228.609000", "124230.610000", "124232.609000", "124234.609000", "124236.609000", "124238.609000", "124240.610000", "124242.610000", "124244.610000", "124246.610000", "124248.609000", "124250.609000", "124252.610000", "124254.609000", "124256.610000", "124258.610000", "124300.610000", "124302.609000", "124304.609000", "124306.608000", "124308.609000", "124310.610000", "124312.609000", "124314.609000", "124316.609000", "124318.610000", "124320.609000", "124322.610000", "124324.608000", "124326.609000", "124328.609000", "124330.609000", "124332.609000", "124334.609000", "124336.610000", "124338.610000", "124340.609000", "124342.608000", "124344.610000", "124346.609000", "124348.610000", "124350.609000", "124352.610000", "124354.609000", "124356.609000", "124358.609000", "124400.451000"],
      "InstanceNumber": [1, 2, 3, 4, 5, 6, 7, 8, 9, 10, 11, 12, 13, 14, 15, 16, 17, 18, 19, 20, 21, 22, 23, 24, 25, 26, 27, 28, 29, 30, 31, 32, 33, 34, 35, 36, 37, 38, 39, 40, 41, 42, 43, 44, 45, 46, 47, 48, 49, 50, 51, 52, 53, 54, 55, 56, 57, 58, 59, 60, 61, 62, 63, 64, 65, 66, 67, 68, 69, 70, 71, 72, 73, 74, 75, 76, 77, 78, 79, 80, 81, 82, 83, 84, 85, 86, 87, 88, 89, 90, 91, 92, 93, 94, 95, 96, 97, 98, 99, 100, 101, 102, 103, 104, 105, 106, 107, 108, 109, 110, 111, 112, 113, 114, 115, 116, 117, 118, 119, 120, 121, 122, 123, 124, 125, 126, 127, 128, 129, 130, 131, 132, 133, 134, 135, 136, 137, 138, 139, 140, 141, 142, 143, 144, 145, 146, 147, 148, 149, 150, 151, 152, 153, 154, 155, 156, 157, 158, 159, 160, 161, 162, 163, 164, 165, 166, 167, 168, 169, 170, 171, 172, 173, 174, 175, 176, 177, 178, 179, 180, 181, 182, 183, 184, 185, 186, 187, 188, 189, 190, 191, 192, 193, 194, 195, 196, 197, 198, 199, 200, 201, 202, 203, 204, 205, 206, 207, 208, 209, 210, 211, 212, 213, 214, 215, 216, 217, 218, 219, 220, 221, 222, 223, 224, 225, 226, 227, 228, 229, 230, 231, 232],
      "LargestImagePixelValue": [4095, 4095, 4095, 4095, 4095, 4095, 4095, 4095, 4095, 4095, 4095, 4095, 4095, 4095, 4095, 4095, 4095, 4095, 4095, 4095, 4095, 4095, 4095, 4095, 4095, 4095, 4095, 4095, 4095, 4095, 4095, 4095, 4095, 4095, 4095, 4095, 4095, 4014, 4095, 4095, 4095, 4095, 4095, 4095, 4095, 4095, 4095, 4095, 4095, 4095, 4095, 4095, 4095, 4095, 4095, 4095, 4095, 4095, 4095, 4095, 4095, 4095, 4095, 4095, 4095, 4095, 4095, 4095, 4095, 4095, 4095, 4095, 4095, 4095, 4095, 4095, 4095, 4095, 4095, 4095, 4095, 4095, 4095, 4095, 4095, 4095, 4095, 4095, 4095, 4095, 4095, 4095, 4095, 4095, 4095, 4095, 4095, 4095, 4073, 4095, 4095, 4095, 4095, 4095, 4095, 4095, 4095, 4095, 4095, 4095, 4095, 4095, 4095, 4095, 4095, 4095, 4095, 4095, 4095, 4095, 4095, 4095, 4095, 4095, 4095, 4095, 4095, 4095, 4095, 4095, 4095, 4095, 4095, 4095, 4095, 4095, 4095, 4095, 4095, 4095, 4095, 4095, 4095, 4095, 4095, 4095, 4095, 4095, 4095, 4095, 4095, 4095, 4095, 4095, 4095, 4095, 4095, 4095, 4095, 4095, 4095, 4095, 4095, 4095, 4095, 4095, 4095, 4095, 4095, 4095, 4095, 4095, 4095, 4095, 4095, 4095, 4095, 4095, 4095, 4095, 4095, 4095, 4095, 4095, 4095, 4095, 4095, 4095, 4095, 4095, 4095, 4095, 4095, 4095, 4095, 4095, 4095, 4095, 4095, 4095, 4095, 4095, 4095, 4095, 4095, 4095, 4095, 4095, 4095, 4095, 4095, 4095, 4095, 4095, 4095, 4095, 4095, 4095, 4095, 4095, 4095, 4095, 4095, 4095, 4095, 4095, 4095, 4095, 4095, 4095, 4095, 4095],
      "WindowCenter": [847.0, 847.0, 848.0, 851.0, 849.0, 848.0, 847.0, 849.0, 849.0, 851.0, 853.0, 852.0, 849.0, 848.0, 848.0, 849.0, 849.0, 850.0, 851.0, 850.0, 848.0, 847.0, 846.0, 847.0, 848.0, 849.0, 849.0, 848.0, 848.0, 849.0, 850.0, 850.0, 849.0, 848.0, 842.0, 842.0, 847.0, 841.0, 849.0, 844.0, 852.0, 851.0, 852.0, 852.0, 851.0, 851.0, 852.0, 852.0, 851.0, 851.0, 852.0, 851.0, 850.0, 849.0, 849.0, 850.0, 851.0, 852.0, 854.0, 852.0, 850.0, 849.0, 849.0, 850.0, 850.0, 846.0, 845.0, 843.0, 848.0, 844.0, 848.0, 846.0, 850.0, 850.0, 853.0, 854.0, 853.0, 854.0, 854.0, 854.0, 852.0, 852.0, 852.0, 851.0, 852.0, 853.0, 854.0, 854.0, 854.0, 857.0, 856.0, 854.0, 854.0, 854.0, 855.0, 854.0, 853.0, 853.0, 854.0, 852.0, 851.0, 849.0, 850.0, 850.0, 849.0, 851.0, 851.0, 850.0, 850.0, 850.0, 850.0, 849.0, 850.0, 851.0, 854.0, 853.0, 851.0, 849.0, 849.0, 850.0, 851.0, 851.0, 852.0, 850.0, 850.0, 850.0, 851.0, 850.0, 850.0, 850.0, 852.0, 852.0, 851.0, 850.0, 850.0, 850.0, 850.0, 851.0, 850.0, 849.0, 850.0, 851.0, 851.0, 851.0, 851.0, 852.0, 851.0, 851.0, 852.0, 850.0, 849.0, 851.0, 852.0, 852.0, 854.0, 853.0, 852.0, 852.0, 850.0, 850.0, 850.0, 848.0, 847.0, 848.0, 845.0, 846.0, 845.0, 850.0, 848.0, 850.0, 852.0, 850.0, 849.0, 848.0, 849.0, 850.0, 850.0, 851.0, 851.0, 851.0, 850.0, 850.0, 850.0, 852.0, 851.0, 851.0, 854.0, 853.0, 852.0, 850.0, 850.0, 852.0, 849.0, 836.0, 851.0, 844.0, 842.0, 850.0, 837.0, 847.0, 851.0, 848.0, 850.0, 850.0, 850.0, 851.0, 851.0, 852.0, 851.0, 853.0, 852.0, 851.0, 851.0, 849.0, 849.0, 848.0, 848.0, 849.0, 850.0, 851.0, 851.0, 850.0, 850.0, 851.0, 851.0, 851.0, 853.0, 852.0, 851.0, 851.0, 851.0, 851.0],
      "WindowWidth": [1845.0, 1843.0, 1847.0, 1854.0, 1849.0, 1845.0, 1845.0, 1848.0, 1849.0, 1856.0, 1859.0, 1855.0, 1849.0, 1846.0, 1847.0, 1848.0, 1848.0, 1852.0, 1854.0, 1850.0, 1844.0, 1841.0, 1840.0, 1841.0, 1844.0, 1847.0, 1846.0, 1846.0, 1846.0, 1848.0, 1850.0, 1849.0, 1847.0, 1845.0, 1830.0, 1832.0, 1844.0, 1828.0, 1849.0, 1835.0, 1855.0, 1853.0, 1857.0, 1855.0, 1853.0, 1855.0, 1856.0, 1856.0, 1855.0, 1854.0, 1855.0, 1853.0, 1850.0, 1847.0, 1848.0, 1850.0, 1854.0, 1857.0, 1861.0, 1857.0, 1849.0, 1847.0, 1848.0, 1850.0, 1850.0, 1840.0, 1838.0, 1832.0, 1845.0, 1836.0, 1847.0, 1841.0, 1851.0, 1851.0, 1860.0, 1860.0, 1859.0, 1860.0, 1862.0, 1861.0, 1855.0, 1855.0, 1855.0, 1854.0, 1854.0, 1858.0, 1861.0, 1861.0, 1861.0, 1869.0, 1866.0, 1861.0, 1860.0, 1863.0, 1863.0, 1862.0, 1858.0, 1860.0, 1858.0, 1855.0, 1851.0, 1847.0, 1848.0, 1849.0, 1846.0, 1851.0, 1852.0, 1849.0, 1850.0, 1851.0, 1850.0, 1848.0, 1850.0, 1852.0, 1860.0, 1858.0, 1851.0, 1848.0, 1848.0, 1850.0, 1851.0, 1851.0, 1855.0, 1850.0, 1848.0, 1849.0, 1852.0, 1851.0, 1849.0, 1850.0, 1854.0, 1854.0, 1851.0, 1848.0, 1848.0, 1850.0, 1850.0, 1850.0, 1850.0, 1847.0, 1850.0, 1852.0, 1851.0, 1852.0, 1852.0, 1853.0, 1851.0, 1852.0, 1853.0, 1849.0, 1847.0, 1851.0, 1854.0, 1854.0, 1859.0, 1856.0, 1853.0, 1853.0, 1850.0, 1847.0, 1848.0, 1844.0, 1841.0, 1844.0, 1837.0, 1838.0, 1836.0, 1849.0, 1844.0, 1848.0, 1853.0, 1850.0, 1846.0, 1844.0, 1846.0, 1849.0, 1849.0, 1851.0, 1851.0, 1852.0, 1849.0, 1851.0, 1851.0, 1856.0, 1853.0, 1851.0, 1859.0, 1858.0, 1855.0, 1850.0, 1849.0, 1855.0, 1848.0, 1816.0, 1857.0, 1835.0, 1832.0, 1851.0, 1819.0, 1844.0, 1854.0, 1844.0, 1848.0, 1849.0, 1850.0, 1852.0, 1853.0, 1854.0, 1853.0, 1856.0, 1854.0, 1851.0, 1851.0, 1846.0, 1845.0, 1843.0, 1844.0, 1845.0, 1849.0, 1852.0, 1852.0, 1849.0, 1848.0, 1851.0, 1852.0, 1853.0, 1856.0, 1853.0, 1851.0, 1852.0, 1851.0, 1851.0]
    },
    "slices": {}
  }
}