{
  "AcquisitionMatrixPE": 100,
  "AcquisitionNumber": 1,
  "AcquisitionTime": "12:45:7.812500",
  "BandwidthPerPixelPhaseEncode": 18.519,
  "BaseResolution": 100,
  "BodyPartExamined": "BRAIN",
  "ConsistencyInfo": "N4_VE11C_LATEST_20160120",
  "ConversionSoftware": "dcm2niix",
  "ConversionSoftwareVersion": "v1.0.20180622 GCC4.9.2",
  "DerivedVendorReportedEchoSpacing": 0.000539986,
  "DeviceSerialNumber": "166078",
  "DwellTime": 2.1e-06,
  "EchoTime": 0.034,
  "EchoTrainLength": 100,
  "EffectiveEchoSpacing": 0.000539986,
  "FlipAngle": 90,
  "ImageOrientationPatientDICOM": [0.998888, 0.0128091, -0.0453663, -0.0209237, 0.982853, -0.183198],
  "ImageType": [
    "ORIGINAL",
    "PRIMARY",
    "M",
    "ND",
    "MOSAIC"
],
  "InPlanePhaseEncodingDirectionDICOM": "COL",
  "InstitutionAddress": "Street_StreetNo_Bei_Jing_District_CN_ZIP",
  "InstitutionName": "BeiJing_Normal_University",
  "InstitutionalDepartmentName": "Department",
  "MRAcquisitionType": "2D",
  "MagneticFieldStrength": 3,
  "Manufacturer": "Siemens",
  "ManufacturersModelName": "Prisma",
  "Modality": "MR",
  "MultibandAccelerationFactor": 3,
  "PartialFourier": 1,
  "PatientPosition": "HFS",
  "PercentPhaseFOV": 100,
  "PhaseEncodingDirection": "j-",
  "PhaseEncodingSteps": 100,
  "PhaseResolution": 1,
  "PixelBandwidth": 2380,
  "ProcedureStepDescription": "BNU_P2018_64CH_Liu.Jia",
  "ProtocolName": "bold_100x100_s3_2x2x2_232",
  "PulseSequenceDetails": "%SiemensSeq%_ep2d_bold",
  "ReceiveCoilActiveElements": "HC1-7;NC1",
  "ReceiveCoilName": "HeadNeck_64",
  "ReconMatrixPE": 100,
  "RepetitionTime": 2,
  "SAR": 0.0809563,
  "ScanOptions": "FS",
  "ScanningSequence": "EP",
  "SequenceName": "_epfid2d1_100",
  "SequenceVariant": "SK",
  "SeriesDescription": "bold_100x100_s3_2x2x2_232",
  "SeriesNumber": 4,
  "ShimSetting": [-5487, -11493, -1261, 371, -57, -188, -114, 122],
  "SliceThickness": 2,
  "SliceTiming": [1.485, 0, 0.99, 0.0825, 1.0725, 0.165, 1.155, 0.2475, 1.2375, 0.33, 1.32, 0.4125, 1.4025, 0.5775, 1.5675, 0.66, 1.65, 0.7425, 1.7325, 0.825, 1.815, 0.9075, 1.8975, 0.495, 1.485, 0, 0.99, 0.0825, 1.0725, 0.165, 1.155, 0.2475, 1.2375, 0.33, 1.32, 0.4125, 1.4025, 0.5775, 1.5675, 0.66, 1.65, 0.7425, 1.7325, 0.825, 1.815, 0.9075, 1.8975, 0.495, 1.485, 0, 0.99, 0.0825, 1.0725, 0.165, 1.155, 0.2475, 1.2375, 0.33, 1.32, 0.4125, 1.4025, 0.5775, 1.5675, 0.66, 1.65, 0.7425, 1.7325, 0.825, 1.815, 0.9075, 1.8975, 0.495],
  "SoftwareVersions": "syngo_MR_E11",
  "SpacingBetweenSlices": 2,
  "StationName": "AWP166078",
  "TaskName": "motor",
  "TotalReadoutTime": 0.0534586,
  "TxRefAmp": 231.205,
  "dcmmeta_affine": [
    [-1.9977766275405884, -0.04184741526842117, -0.08448369055986404, 104.87811279296875],
    [-0.02561810612678528, 1.9657065868377686, -0.3678874671459198, -79.38216400146484],
    [-0.090732641518116, 0.36639630794525146, 1.9640573263168335, -82.52085876464844],
    [0.0, 0.0, 0.0, 1.0]
],
  "dcmmeta_reorient_transform": [
    [0.0, -1.0, 0.0, 99.0],
    [1.0, 0.0, 0.0, 0.0],
    [0.0, 0.0, 1.0, 0.0],
    [0.0, 0.0, 0.0, 1.0]
],
  "dcmmeta_shape": [100, 100, 72, 232],
  "dcmmeta_slice_dim": 2,
  "dcmmeta_version": 0.6,
  "global": {
    "const": {
      "AcquisitionMatrix": [100, 0, 0, 100],
      "AngioFlag": "N",
      "BitsAllocated": 16,
      "BitsStored": 12,
      "BodyPartExamined": "BRAIN",
      "Columns": 900,
      "EchoNumbers": 1,
      "EchoTime": 34.0,
      "EchoTrainLength": 100,
      "FlipAngle": 90.0,
      "HighBit": 11,
      "ImageOrientationPatient": [0.9988882945342, 0.01280905282077, -0.0453663224032, -0.0209237077025, 0.98285331218052, -0.1831981582652],
      "ImagePositionPatient": [-883.10688437599, -911.75268653797, 136.60396003073],
      "ImageType": [
        "ORIGINAL",
        "PRIMARY",
        "M",
        "ND",
        "MOSAIC"
],
      "ImagedNucleus": "1H",
      "ImagingFrequency": 123.257817,
      "InPlanePhaseEncodingDirection": "COL",
      "LargestImagePixelValue": 4095,
      "MRAcquisitionType": "2D",
      "MagneticFieldStrength": 3.0,
      "Manufacturer": "SIEMENS",
      "ManufacturerModelName": "Prisma",
      "Modality": "MR",
      "NumberOfAverages": 1.0,
      "NumberOfPhaseEncodingSteps": 100,
      "PercentPhaseFieldOfView": 100.0,
      "PercentSampling": 100.0,
      "PerformedProcedureStepStartTime": "123106.889000",
      "PhotometricInterpretation": "MONOCHROME2",
      "PixelBandwidth": 2380.0,
      "PixelRepresentation": 0,
      "PixelSpacing": [2.0, 2.0],
      "ProtocolName": "bold_100x100_s3_2x2x2_232",
      "RepetitionTime": 2000.0,
      "Rows": 900,
      "SAR": 0.08095629789906,
      "SamplesPerPixel": 1,
      "ScanOptions": "FS",
      "ScanningSequence": "EP",
      "SequenceName": "*epfid2d1_100",
      "SequenceVariant": "SK",
      "SeriesDescription": "bold_100x100_s3_2x2x2_232",
      "SeriesNumber": 4,
      "SeriesTime": "124510.130000",
      "SliceLocation": -70.866245415765,
      "SliceThickness": 2.0,
      "SmallestImagePixelValue": 0,
      "SoftwareVersions": "syngo MR E11",
      "SpacingBetweenSlices": 2.0000000194743,
      "SpecificCharacterSet": "ISO_IR 100",
      "StudyID": "1",
      "StudyTime": "123106.794000",
      "TransmitCoilName": "Body",
      "VariableFlipAngleFlag": "N",
      "WindowCenterWidthExplanation": "Algo1",
      "dBdt": 0.0},
    "slices": {}
  },
  "time": {
    "samples": {
      "AcquisitionNumber": [1, 2, 3, 4, 5, 6, 7, 8, 9, 10, 11, 12, 13, 14, 15, 16, 17, 18, 19, 20, 21, 22, 23, 24, 25, 26, 27, 28, 29, 30, 31, 32, 33, 34, 35, 36, 37, 38, 39, 40, 41, 42, 43, 44, 45, 46, 47, 48, 49, 50, 51, 52, 53, 54, 55, 56, 57, 58, 59, 60, 61, 62, 63, 64, 65, 66, 67, 68, 69, 70, 71, 72, 73, 74, 75, 76, 77, 78, 79, 80, 81, 82, 83, 84, 85, 86, 87, 88, 89, 90, 91, 92, 93, 94, 95, 96, 97, 98, 99, 100, 101, 102, 103, 104, 105, 106, 107, 108, 109, 110, 111, 112, 113, 114, 115, 116, 117, 118, 119, 120, 121, 122, 123, 124, 125, 126, 127, 128, 129, 130, 131, 132, 133, 134, 135, 136, 137, 138, 139, 140, 141, 142, 143, 144, 145, 146, 147, 148, 149, 150, 151, 152, 153, 154, 155, 156, 157, 158, 159, 160, 161, 162, 163, 164, 165, 166, 167, 168, 169, 170, 171, 172, 173, 174, 175, 176, 177, 178, 179, 180, 181, 182, 183, 184, 185, 186, 187, 188, 189, 190, 191, 192, 193, 194, 195, 196, 197, 198, 199, 200, 201, 202, 203, 204, 205, 206, 207, 208, 209, 210, 211, 212, 213, 214, 215, 216, 217, 218, 219, 220, 221, 222, 223, 224, 225, 226, 227, 228, 229, 230, 231, 232],
      "AcquisitionTime": ["124507.812500", "124509.812500", "124511.812500", "124513.812500", "124515.812500", "124517.812500", "124519.812500", "124521.812500", "124523.812500", "124525.812500", "124527.812500", "124529.812500", "124531.812500", "124533.812500", "124535.812500", "124537.812500", "124539.812500", "124541.812500", "124543.812500", "124545.812500", "124547.812500", "124549.812500", "124551.812500", "124553.812500", "124555.812500", "124557.812500", "124559.812500", "124601.812500", "124603.812500", "124605.812500", "124607.812500", "124609.812500", "124611.812500", "124613.812500", "124615.812500", "124617.812500", "124619.812500", "124621.812500", "124623.812500", "124625.812500", "124627.812500", "124629.812500", "124631.812500", "124633.812500", "124635.812500", "124637.812500", "124639.812500", "124641.812500", "124643.812500", "124645.812500", "124647.812500", "124649.812500", "124651.812500", "124653.812500", "124655.812500", "124657.812500", "124659.812500", "124701.812500", "124703.812500", "124705.812500", "124707.812500", "124709.812500", "124711.812500", "124713.812500", "124715.812500", "124717.812500", "124719.812500", "124721.812500", "124723.812500", "124725.812500", "124727.812500", "124729.812500", "124731.812500", "124733.812500", "124735.812500", "124737.812500", "124739.812500", "124741.812500", "124743.812500", "124745.812500", "124747.812500", "124749.812500", "124751.812500", "124753.812500", "124755.812500", "124757.812500", "124759.812500", "124801.812500", "124803.812500", "124805.812500", "124807.812500", "124809.812500", "124811.812500", "124813.812500", "124815.812500", "124817.812500", "124819.812500", "124821.812500", "124823.812500", "124825.812500", "124827.812500", "124829.812500", "124831.812500", "124833.812500", "124835.812500", "124837.812500", "124839.812500", "124841.812500", "124843.812500", "124845.812500", "124847.812500", "124849.812500", "124851.812500", "124853.812500", "124855.812500", "124857.812500", "124859.812500", "124901.812500", "124903.812500", "124905.812500", "124907.812500", "124909.812500", "124911.812500", "124913.812500", "124915.812500", "124917.812500", "124919.812500", "124921.812500", "124923.812500", "124925.812500", "124927.812500", "124929.812500", "124931.812500", "124933.812500", "124935.812500", "124937.812500", "124939.812500", "124941.812500", "124943.812500", "124945.812500", "124947.812500", "124949.812500", "124951.812500", "124953.812500", "124955.812500", "124957.812500", "124959.812500", "125001.812500", "125003.812500", "125005.812500", "125007.812500", "125009.812500", "125011.812500", "125013.812500", "125015.812500", "125017.812500", "125019.812500", "125021.812500", "125023.812500", "125025.812500", "125027.812500", "125029.812500", "125031.812500", "125033.812500", "125035.812500", "125037.812500", "125039.812500", "125041.812500", "125043.812500", "125045.812500", "125047.812500", "125049.812500", "125051.812500", "125053.812500", "125055.812500", "125057.812500", "125059.812500", "125101.812500", "125103.812500", "125105.812500", "125107.812500", "125109.812500", "125111.812500", "125113.812500", "125115.812500", "125117.812500", "125119.812500", "125121.812500", "125123.812500", "125125.812500", "125127.812500", "125129.812500", "125131.812500", "125133.812500", "125135.812500", "125137.812500", "125139.812500", "125141.812500", "125143.812500", "125145.812500", "125147.812500", "125149.812500", "125151.812500", "125153.812500", "125155.812500", "125157.812500", "125159.812500", "125201.812500", "125203.812500", "125205.812500", "125207.812500", "125209.812500", "125211.812500", "125213.812500", "125215.812500", "125217.812500", "125219.812500", "125221.812500", "125223.812500", "125225.812500", "125227.812500", "125229.812500", "125231.812500", "125233.812500", "125235.812500", "125237.812500", "125239.812500", "125241.812500", "125243.812500", "125245.812500", "125247.812500", "125249.812500"],
      "ContentTime": ["124510.134000", "124511.630000", "124513.630000", "124515.629000", "124517.629000", "124519.629000", "124521.629000", "124523.629000", "124525.629000", "124527.629000", "124529.630000", "124531.629000", "124533.630000", "124535.630000", "124537.630000", "124539.629000", "124541.629000", "124543.629000", "124545.630000", "124547.630000", "124549.629000", "124551.630000", "124553.629000", "124555.629000", "124557.630000", "124559.629000", "124601.629000", "124603.630000", "124605.630000", "124607.629000", "124609.630000", "124611.630000", "124613.630000", "124615.629000", "124617.629000", "124619.630000", "124621.630000", "124623.629000", "124625.629000", "124627.630000", "124629.629000", "124631.629000", "124633.629000", "124635.629000", "124637.629000", "124639.630000", "124641.630000", "124643.629000", "124645.629000", "124647.629000", "124649.629000", "124651.629000", "124653.629000", "124655.631000", "124657.629000", "124659.629000", "124701.630000", "124703.630000", "124705.629000", "124707.629000", "124709.629000", "124711.629000", "124713.630000", "124715.630000", "124717.629000", "124719.630000", "124721.629000", "124723.629000", "124725.630000", "124727.629000", "124729.629000", "124731.630000", "124733.629000", "124735.629000", "124737.630000", "124739.630000", "124741.629000", "124743.629000", "124745.629000", "124747.630000", "124749.631000", "124751.629000", "124753.629000", "124755.630000", "124757.630000", "124759.629000", "124801.629000", "124803.629000", "124805.631000", "124807.629000", "124809.630000", "124811.629000", "124813.629000", "124815.630000", "124817.630000", "124819.629000", "124821.629000", "124823.630000", "124825.629000", "124827.629000", "124829.629000", "124831.629000", "124833.629000", "124835.630000", "124837.629000", "124839.629000", "124841.630000", "124843.629000", "124845.630000", "124847.630000", "124849.630000", "124851.629000", "124853.629000", "124855.629000", "124857.629000", "124859.630000", "124901.629000", "124903.629000", "124905.629000", "124907.630000", "124909.630000", "124911.630000", "124913.630000", "124915.630000", "124917.629000", "124919.630000", "124921.630000", "124923.629000", "124925.629000", "124927.629000", "124929.629000", "124931.629000", "124933.630000", "124935.629000", "124937.630000", "124939.629000", "124941.629000", "124943.629000", "124945.629000", "124947.629000", "124949.629000", "124951.630000", "124953.630000", "124955.640000", "124957.629000", "124959.630000", "125001.630000", "125003.630000", "125005.630000", "125007.630000", "125009.631000", "125011.629000", "125013.629000", "125015.629000", "125017.629000", "125019.629000", "125021.630000", "125023.629000", "125025.630000", "125027.629000", "125029.629000", "125031.629000", "125033.629000", "125035.629000", "125037.630000", "125039.629000", "125041.629000", "125043.630000", "125045.629000", "125047.629000", "125049.629000", "125051.630000", "125053.629000", "125055.630000", "125057.630000", "125059.629000", "125101.631000", "125103.629000", "125105.630000", "125107.629000", "125109.629000", "125111.629000", "125113.630000", "125115.630000", "125117.630000", "125119.630000", "125121.629000", "125123.629000", "125125.629000", "125127.630000", "125129.629000", "125131.630000", "125133.630000", "125135.630000", "125137.630000", "125139.629000", "125141.630000", "125143.629000", "125145.630000", "125147.630000", "125149.630000", "125151.629000", "125153.631000", "125155.629000", "125157.629000", "125159.630000", "125201.630000", "125203.630000", "125205.629000", "125207.629000", "125209.630000", "125211.630000", "125213.629000", "125215.629000", "125217.630000", "125219.629000", "125221.629000", "125223.630000", "125225.629000", "125227.630000", "125229.630000", "125231.629000", "125233.629000", "125235.629000", "125237.630000", "125239.629000", "125241.629000", "125243.629000", "125245.631000", "125247.630000", "125249.629000", "125251.361000"],
      "InstanceCreationTime": ["124510.134000", "124511.630000", "124513.630000", "124515.629000", "124517.629000", "124519.629000", "124521.629000", "124523.629000", "124525.629000", "124527.629000", "124529.630000", "124531.629000", "124533.630000", "124535.630000", "124537.630000", "124539.629000", "124541.629000", "124543.629000", "124545.630000", "124547.630000", "124549.629000", "124551.630000", "124553.629000", "124555.629000", "124557.630000", "124559.629000", "124601.629000", "124603.630000", "124605.630000", "124607.629000", "124609.630000", "124611.630000", "124613.630000", "124615.629000", "124617.629000", "124619.630000", "124621.630000", "124623.629000", "124625.629000", "124627.630000", "124629.629000", "124631.629000", "124633.629000", "124635.629000", "124637.629000", "124639.630000", "124641.630000", "124643.629000", "124645.629000", "124647.629000", "124649.629000", "124651.629000", "124653.629000", "124655.631000", "124657.629000", "124659.629000", "124701.630000", "124703.630000", "124705.629000", "124707.629000", "124709.629000", "124711.629000", "124713.630000", "124715.630000", "124717.629000", "124719.630000", "124721.629000", "124723.629000", "124725.630000", "124727.629000", "124729.629000", "124731.630000", "124733.629000", "124735.629000", "124737.630000", "124739.630000", "124741.629000", "124743.629000", "124745.629000", "124747.630000", "124749.631000", "124751.629000", "124753.629000", "124755.630000", "124757.630000", "124759.629000", "124801.629000", "124803.629000", "124805.631000", "124807.629000", "124809.630000", "124811.629000", "124813.629000", "124815.630000", "124817.630000", "124819.629000", "124821.629000", "124823.630000", "124825.629000", "124827.629000", "124829.629000", "124831.629000", "124833.629000", "124835.630000", "124837.629000", "124839.629000", "124841.630000", "124843.629000", "124845.630000", "124847.630000", "124849.630000", "124851.629000", "124853.629000", "124855.629000", "124857.629000", "124859.630000", "124901.629000", "124903.629000", "124905.629000", "124907.630000", "124909.630000", "124911.630000", "124913.630000", "124915.630000", "124917.629000", "124919.630000", "124921.630000", "124923.629000", "124925.629000", "124927.629000", "124929.629000", "124931.629000", "124933.630000", "124935.629000", "124937.630000", "124939.629000", "124941.629000", "124943.629000", "124945.629000", "124947.629000", "124949.629000", "124951.630000", "124953.630000", "124955.640000", "124957.629000", "124959.630000", "125001.630000", "125003.630000", "125005.630000", "125007.630000", "125009.631000", "125011.629000", "125013.629000", "125015.629000", "125017.629000", "125019.629000", "125021.630000", "125023.629000", "125025.630000", "125027.629000", "125029.629000", "125031.629000", "125033.629000", "125035.629000", "125037.630000", "125039.629000", "125041.629000", "125043.630000", "125045.629000", "125047.629000", "125049.629000", "125051.630000", "125053.629000", "125055.630000", "125057.630000", "125059.629000", "125101.631000", "125103.629000", "125105.630000", "125107.629000", "125109.629000", "125111.629000", "125113.630000", "125115.630000", "125117.630000", "125119.630000", "125121.629000", "125123.629000", "125125.629000", "125127.630000", "125129.629000", "125131.630000", "125133.630000", "125135.630000", "125137.630000", "125139.629000", "125141.630000", "125143.629000", "125145.630000", "125147.630000", "125149.630000", "125151.629000", "125153.631000", "125155.629000", "125157.629000", "125159.630000", "125201.630000", "125203.630000", "125205.629000", "125207.629000", "125209.630000", "125211.630000", "125213.629000", "125215.629000", "125217.630000", "125219.629000", "125221.629000", "125223.630000", "125225.629000", "125227.630000", "125229.630000", "125231.629000", "125233.629000", "125235.629000", "125237.630000", "125239.629000", "125241.629000", "125243.629000", "125245.631000", "125247.630000", "125249.629000", "125251.361000"],
      "InstanceNumber": [1, 2, 3, 4, 5, 6, 7, 8, 9, 10, 11, 12, 13, 14, 15, 16, 17, 18, 19, 20, 21, 22, 23, 24, 25, 26, 27, 28, 29, 30, 31, 32, 33, 34, 35, 36, 37, 38, 39, 40, 41, 42, 43, 44, 45, 46, 47, 48, 49, 50, 51, 52, 53, 54, 55, 56, 57, 58, 59, 60, 61, 62, 63, 64, 65, 66, 67, 68, 69, 70, 71, 72, 73, 74, 75, 76, 77, 78, 79, 80, 81, 82, 83, 84, 85, 86, 87, 88, 89, 90, 91, 92, 93, 94, 95, 96, 97, 98, 99, 100, 101, 102, 103, 104, 105, 106, 107, 108, 109, 110, 111, 112, 113, 114, 115, 116, 117, 118, 119, 120, 121, 122, 123, 124, 125, 126, 127, 128, 129, 130, 131, 132, 133, 134, 135, 136, 137, 138, 139, 140, 141, 142, 143, 144, 145, 146, 147, 148, 149, 150, 151, 152, 153, 154, 155, 156, 157, 158, 159, 160, 161, 162, 163, 164, 165, 166, 167, 168, 169, 170, 171, 172, 173, 174, 175, 176, 177, 178, 179, 180, 181, 182, 183, 184, 185, 186, 187, 188, 189, 190, 191, 192, 193, 194, 195, 196, 197, 198, 199, 200, 201, 202, 203, 204, 205, 206, 207, 208, 209, 210, 211, 212, 213, 214, 215, 216, 217, 218, 219, 220, 221, 222, 223, 224, 225, 226, 227, 228, 229, 230, 231, 232],
      "WindowCenter": [848.0, 848.0, 848.0, 848.0, 848.0, 848.0, 848.0, 849.0, 847.0, 841.0, 848.0, 836.0, 851.0, 844.0, 848.0, 848.0, 850.0, 853.0, 854.0, 854.0, 853.0, 853.0, 854.0, 854.0, 854.0, 855.0, 856.0, 856.0, 855.0, 855.0, 854.0, 852.0, 851.0, 853.0, 853.0, 853.0, 851.0, 852.0, 852.0, 852.0, 852.0, 850.0, 851.0, 848.0, 847.0, 847.0, 847.0, 847.0, 848.0, 849.0, 850.0, 851.0, 849.0, 849.0, 848.0, 849.0, 849.0, 851.0, 851.0, 850.0, 851.0, 851.0, 850.0, 849.0, 849.0, 850.0, 852.0, 851.0, 850.0, 850.0, 850.0, 851.0, 851.0, 852.0, 853.0, 852.0, 851.0, 850.0, 849.0, 849.0, 849.0, 850.0, 849.0, 848.0, 848.0, 849.0, 849.0, 850.0, 850.0, 844.0, 849.0, 845.0, 843.0, 848.0, 850.0, 850.0, 852.0, 851.0, 852.0, 852.0, 852.0, 852.0, 852.0, 851.0, 851.0, 852.0, 854.0, 854.0, 853.0, 852.0, 851.0, 851.0, 850.0, 853.0, 852.0, 850.0, 850.0, 850.0, 851.0, 850.0, 849.0, 850.0, 851.0, 851.0, 850.0, 850.0, 850.0, 850.0, 849.0, 850.0, 850.0, 850.0, 851.0, 850.0, 850.0, 851.0, 851.0, 843.0, 846.0, 847.0, 850.0, 846.0, 853.0, 845.0, 855.0, 854.0, 855.0, 854.0, 854.0, 853.0, 853.0, 854.0, 849.0, 851.0, 854.0, 851.0, 850.0, 848.0, 848.0, 849.0, 850.0, 851.0, 850.0, 849.0, 849.0, 850.0, 850.0, 849.0, 850.0, 852.0, 852.0, 851.0, 851.0, 850.0, 849.0, 850.0, 851.0, 850.0, 850.0, 852.0, 853.0, 853.0, 852.0, 851.0, 851.0, 850.0, 850.0, 849.0, 849.0, 850.0, 850.0, 849.0, 849.0, 850.0, 850.0, 849.0, 849.0, 850.0, 851.0, 850.0, 851.0, 852.0, 851.0, 850.0, 850.0, 850.0, 850.0, 850.0, 849.0, 850.0, 850.0, 849.0, 849.0, 848.0, 848.0, 849.0, 846.0, 837.0, 846.0, 845.0, 849.0, 843.0, 848.0, 847.0, 849.0, 850.0, 852.0, 851.0, 850.0, 849.0, 850.0, 849.0],
      "WindowWidth": [1846.0, 1846.0, 1845.0, 1844.0, 1844.0, 1844.0, 1845.0, 1847.0, 1842.0, 1830.0, 1848.0, 1817.0, 1855.0, 1837.0, 1849.0, 1849.0, 1853.0, 1859.0, 1861.0, 1862.0, 1861.0, 1859.0, 1861.0, 1863.0, 1863.0, 1865.0, 1867.0, 1867.0, 1865.0, 1865.0, 1862.0, 1858.0, 1854.0, 1860.0, 1861.0, 1860.0, 1856.0, 1856.0, 1857.0, 1857.0, 1856.0, 1851.0, 1852.0, 1845.0, 1842.0, 1841.0, 1841.0, 1842.0, 1846.0, 1848.0, 1849.0, 1852.0, 1848.0, 1847.0, 1846.0, 1848.0, 1849.0, 1854.0, 1853.0, 1852.0, 1854.0, 1854.0, 1851.0, 1849.0, 1849.0, 1851.0, 1855.0, 1852.0, 1850.0, 1851.0, 1851.0, 1853.0, 1854.0, 1856.0, 1859.0, 1855.0, 1851.0, 1848.0, 1846.0, 1846.0, 1847.0, 1849.0, 1848.0, 1844.0, 1845.0, 1848.0, 1848.0, 1850.0, 1850.0, 1834.0, 1848.0, 1837.0, 1832.0, 1846.0, 1851.0, 1852.0, 1855.0, 1853.0, 1856.0, 1856.0, 1856.0, 1854.0, 1855.0, 1853.0, 1854.0, 1856.0, 1860.0, 1861.0, 1858.0, 1854.0, 1853.0, 1853.0, 1849.0, 1858.0, 1855.0, 1850.0, 1849.0, 1850.0, 1851.0, 1849.0, 1847.0, 1848.0, 1852.0, 1851.0, 1850.0, 1848.0, 1848.0, 1849.0, 1848.0, 1850.0, 1850.0, 1848.0, 1851.0, 1849.0, 1850.0, 1851.0, 1852.0, 1833.0, 1842.0, 1843.0, 1852.0, 1840.0, 1859.0, 1838.0, 1864.0, 1862.0, 1864.0, 1861.0, 1859.0, 1859.0, 1858.0, 1860.0, 1847.0, 1854.0, 1859.0, 1852.0, 1847.0, 1845.0, 1844.0, 1846.0, 1850.0, 1851.0, 1849.0, 1847.0, 1846.0, 1849.0, 1849.0, 1847.0, 1849.0, 1854.0, 1856.0, 1853.0, 1852.0, 1849.0, 1847.0, 1850.0, 1851.0, 1850.0, 1848.0, 1854.0, 1857.0, 1857.0, 1855.0, 1853.0, 1853.0, 1850.0, 1848.0, 1846.0, 1847.0, 1848.0, 1848.0, 1846.0, 1846.0, 1849.0, 1849.0, 1847.0, 1849.0, 1851.0, 1853.0, 1850.0, 1854.0, 1856.0, 1853.0, 1850.0, 1850.0, 1850.0, 1849.0, 1849.0, 1849.0, 1851.0, 1849.0, 1846.0, 1847.0, 1846.0, 1845.0, 1847.0, 1840.0, 1818.0, 1841.0, 1839.0, 1850.0, 1834.0, 1848.0, 1845.0, 1849.0, 1849.0, 1856.0, 1853.0, 1849.0, 1848.0, 1850.0, 1849.0]
    },
    "slices": {}
  }
}