{
  "AcquisitionMatrixPE": 100,
  "AcquisitionNumber": 1,
  "AcquisitionTime": "09:20:4.802500",
  "BandwidthPerPixelPhaseEncode": 18.519,
  "BaseResolution": 100,
  "BodyPartExamined": "BRAIN",
  "ConsistencyInfo": "N4_VE11C_LATEST_20160120",
  "ConversionSoftware": "dcm2niix",
  "ConversionSoftwareVersion": "v1.0.20180622 GCC4.9.2",
  "DerivedVendorReportedEchoSpacing": 0.000539986,
  "DeviceSerialNumber": "166078",
  "DwellTime": 2.1e-06,
  "EchoTime": 0.034,
  "EchoTrainLength": 100,
  "EffectiveEchoSpacing": 0.000539986,
  "FlipAngle": 90,
  "ImageOrientationPatientDICOM": [0.999042, -0.00349058, 0.0436191, 0.00348726, 0.999994, 0.000152259],
  "ImageType": [
    "ORIGINAL",
    "PRIMARY",
    "M",
    "ND",
    "MOSAIC"
],
  "InPlanePhaseEncodingDirectionDICOM": "COL",
  "InstitutionAddress": "Street_StreetNo_Bei_Jing_District_CN_ZIP",
  "InstitutionName": "BeiJing_Normal_University",
  "InstitutionalDepartmentName": "Department",
  "MRAcquisitionType": "2D",
  "MagneticFieldStrength": 3,
  "Manufacturer": "Siemens",
  "ManufacturersModelName": "Prisma",
  "Modality": "MR",
  "MultibandAccelerationFactor": 3,
  "PartialFourier": 1,
  "PatientPosition": "HFS",
  "PercentPhaseFOV": 100,
  "PhaseEncodingDirection": "j-",
  "PhaseEncodingSteps": 100,
  "PhaseResolution": 1,
  "PixelBandwidth": 2380,
  "ProcedureStepDescription": "BNU_P2018_64CH_Liu.Jia",
  "ProtocolName": "bold_100x100_s3_2x2x2_232",
  "PulseSequenceDetails": "%SiemensSeq%_ep2d_bold",
  "ReceiveCoilActiveElements": "HC1-7;NC1",
  "ReceiveCoilName": "HeadNeck_64",
  "ReconMatrixPE": 100,
  "RepetitionTime": 2,
  "SAR": 0.0638653,
  "ScanOptions": "FS",
  "ScanningSequence": "EP",
  "SequenceName": "_epfid2d1_100",
  "SequenceVariant": "SK",
  "SeriesDescription": "bold_100x100_s3_2x2x2_232",
  "SeriesNumber": 3,
  "ShimSetting": [-5459, -11528, -1282, 370, -46, -220, -133, 20],
  "SliceThickness": 2,
  "SliceTiming": [1.485, 0, 0.99, 0.0825, 1.0725, 0.165, 1.155, 0.2475, 1.2375, 0.33, 1.32, 0.4125, 1.4025, 0.5775, 1.5675, 0.66, 1.65, 0.7425, 1.7325, 0.825, 1.815, 0.9075, 1.8975, 0.495, 1.485, 0, 0.99, 0.0825, 1.0725, 0.165, 1.155, 0.2475, 1.2375, 0.33, 1.32, 0.4125, 1.4025, 0.5775, 1.5675, 0.66, 1.65, 0.7425, 1.7325, 0.825, 1.815, 0.9075, 1.8975, 0.495, 1.485, 0, 0.99, 0.0825, 1.0725, 0.165, 1.155, 0.2475, 1.2375, 0.33, 1.32, 0.4125, 1.4025, 0.5775, 1.5675, 0.66, 1.65, 0.7425, 1.7325, 0.825, 1.815, 0.9075, 1.8975, 0.495],
  "SoftwareVersions": "syngo_MR_E11",
  "SpacingBetweenSlices": 2,
  "StationName": "AWP166078",
  "TaskName": "motor",
  "TotalReadoutTime": 0.0534586,
  "TxRefAmp": 208.882,
  "dcmmeta_affine": [
    [-1.998084306716919, 0.006974524352699518, 0.08723877370357513, 98.6962661743164],
    [0.006981168873608112, 1.9999878406524658, 4.008798182297824e-09, -89.58219909667969],
    [0.08723824471235275, -0.0003045183257199824, 1.9980964660644531, -67.20519256591797],
    [0.0, 0.0, 0.0, 1.0]
],
  "dcmmeta_reorient_transform": [
    [0.0, -1.0, 0.0, 99.0],
    [1.0, 0.0, 0.0, 0.0],
    [0.0, 0.0, 1.0, 0.0],
    [0.0, 0.0, 0.0, 1.0]
],
  "dcmmeta_shape": [100, 100, 72, 232],
  "dcmmeta_slice_dim": 2,
  "dcmmeta_version": 0.6,
  "global": {
    "const": {
      "AcquisitionMatrix": [100, 0, 0, 100],
      "AngioFlag": "N",
      "BitsAllocated": 16,
      "BitsStored": 12,
      "BodyPartExamined": "BRAIN",
      "Columns": 900,
      "EchoNumbers": 1,
      "EchoTime": 34.0,
      "EchoTrainLength": 100,
      "FlipAngle": 90.0,
      "HighBit": 11,
      "ImageOrientationPatient": [0.99904213526783, -0.0034905844497, 0.04361912172075, 0.00348726209934, 0.99999390789154, 0.00015225915806],
      "ImagePositionPatient": [-901.4102653492, -905.6192560131, -102.25244286418],
      "ImageType": [
        "ORIGINAL",
        "PRIMARY",
        "M",
        "ND",
        "MOSAIC"
],
      "ImagedNucleus": "1H",
      "ImagingFrequency": 123.257802,
      "InPlanePhaseEncodingDirection": "COL",
      "MRAcquisitionType": "2D",
      "MagneticFieldStrength": 3.0,
      "Manufacturer": "SIEMENS",
      "ManufacturerModelName": "Prisma",
      "Modality": "MR",
      "NumberOfAverages": 1.0,
      "NumberOfPhaseEncodingSteps": 100,
      "PercentPhaseFieldOfView": 100.0,
      "PercentSampling": 100.0,
      "PerformedProcedureStepStartTime": "091723.716000",
      "PhotometricInterpretation": "MONOCHROME2",
      "PixelBandwidth": 2380.0,
      "PixelRepresentation": 0,
      "PixelSpacing": [2.0, 2.0],
      "ProtocolName": "bold_100x100_s3_2x2x2_232",
      "RepetitionTime": 2000.0,
      "Rows": 900,
      "SAR": 0.06386531421987,
      "SamplesPerPixel": 1,
      "ScanOptions": "FS",
      "ScanningSequence": "EP",
      "SequenceName": "*epfid2d1_100",
      "SequenceVariant": "SK",
      "SeriesDescription": "bold_100x100_s3_2x2x2_232",
      "SeriesNumber": 3,
      "SeriesTime": "092007.464000",
      "SliceLocation": -62.836155753905,
      "SliceThickness": 2.0,
      "SmallestImagePixelValue": 0,
      "SoftwareVersions": "syngo MR E11",
      "SpacingBetweenSlices": 1.9999999691846,
      "SpecificCharacterSet": "ISO_IR 100",
      "StudyID": "1",
      "StudyTime": "091723.573000",
      "TransmitCoilName": "Body",
      "VariableFlipAngleFlag": "N",
      "WindowCenterWidthExplanation": "Algo1",
      "dBdt": 0.0},
    "slices": {}
  },
  "time": {
    "samples": {
      "AcquisitionNumber": [1, 2, 3, 4, 5, 6, 7, 8, 9, 10, 11, 12, 13, 14, 15, 16, 17, 18, 19, 20, 21, 22, 23, 24, 25, 26, 27, 28, 29, 30, 31, 32, 33, 34, 35, 36, 37, 38, 39, 40, 41, 42, 43, 44, 45, 46, 47, 48, 49, 50, 51, 52, 53, 54, 55, 56, 57, 58, 59, 60, 61, 62, 63, 64, 65, 66, 67, 68, 69, 70, 71, 72, 73, 74, 75, 76, 77, 78, 79, 80, 81, 82, 83, 84, 85, 86, 87, 88, 89, 90, 91, 92, 93, 94, 95, 96, 97, 98, 99, 100, 101, 102, 103, 104, 105, 106, 107, 108, 109, 110, 111, 112, 113, 114, 115, 116, 117, 118, 119, 120, 121, 122, 123, 124, 125, 126, 127, 128, 129, 130, 131, 132, 133, 134, 135, 136, 137, 138, 139, 140, 141, 142, 143, 144, 145, 146, 147, 148, 149, 150, 151, 152, 153, 154, 155, 156, 157, 158, 159, 160, 161, 162, 163, 164, 165, 166, 167, 168, 169, 170, 171, 172, 173, 174, 175, 176, 177, 178, 179, 180, 181, 182, 183, 184, 185, 186, 187, 188, 189, 190, 191, 192, 193, 194, 195, 196, 197, 198, 199, 200, 201, 202, 203, 204, 205, 206, 207, 208, 209, 210, 211, 212, 213, 214, 215, 216, 217, 218, 219, 220, 221, 222, 223, 224, 225, 226, 227, 228, 229, 230, 231, 232],
      "AcquisitionTime": ["092004.802500", "092006.802500", "092008.802500", "092010.802500", "092012.802500", "092014.802500", "092016.802500", "092018.802500", "092020.802500", "092022.802500", "092024.802500", "092026.802500", "092028.802500", "092030.802500", "092032.802500", "092034.802500", "092036.802500", "092038.802500", "092040.802500", "092042.802500", "092044.802500", "092046.802500", "092048.802500", "092050.802500", "092052.802500", "092054.802500", "092056.802500", "092058.802500", "092100.802500", "092102.802500", "092104.802500", "092106.802500", "092108.802500", "092110.802500", "092112.802500", "092114.802500", "092116.802500", "092118.802500", "092120.802500", "092122.802500", "092124.802500", "092126.802500", "092128.802500", "092130.802500", "092132.802500", "092134.802500", "092136.802500", "092138.802500", "092140.802500", "092142.802500", "092144.802500", "092146.802500", "092148.802500", "092150.802500", "092152.802500", "092154.802500", "092156.802500", "092158.802500", "092200.802500", "092202.802500", "092204.802500", "092206.802500", "092208.802500", "092210.802500", "092212.802500", "092214.802500", "092216.802500", "092218.802500", "092220.802500", "092222.802500", "092224.802500", "092226.802500", "092228.802500", "092230.802500", "092232.802500", "092234.802500", "092236.802500", "092238.802500", "092240.802500", "092242.802500", "092244.802500", "092246.802500", "092248.802500", "092250.802500", "092252.802500", "092254.802500", "092256.802500", "092258.802500", "092300.802500", "092302.802500", "092304.802500", "092306.802500", "092308.802500", "092310.802500", "092312.802500", "092314.802500", "092316.802500", "092318.802500", "092320.802500", "092322.802500", "092324.802500", "092326.802500", "092328.802500", "092330.802500", "092332.802500", "092334.802500", "092336.802500", "092338.802500", "092340.802500", "092342.802500", "092344.802500", "092346.802500", "092348.802500", "092350.802500", "092352.802500", "092354.802500", "092356.802500", "092358.802500", "092400.802500", "092402.802500", "092404.802500", "092406.802500", "092408.802500", "092410.802500", "092412.802500", "092414.802500", "092416.802500", "092418.802500", "092420.802500", "092422.802500", "092424.802500", "092426.802500", "092428.802500", "092430.802500", "092432.802500", "092434.802500", "092436.802500", "092438.802500", "092440.802500", "092442.802500", "092444.802500", "092446.802500", "092448.802500", "092450.802500", "092452.802500", "092454.802500", "092456.802500", "092458.802500", "092500.802500", "092502.802500", "092504.802500", "092506.802500", "092508.802500", "092510.802500", "092512.802500", "092514.802500", "092516.802500", "092518.802500", "092520.802500", "092522.802500", "092524.802500", "092526.802500", "092528.802500", "092530.802500", "092532.802500", "092534.802500", "092536.802500", "092538.802500", "092540.802500", "092542.802500", "092544.802500", "092546.802500", "092548.802500", "092550.802500", "092552.802500", "092554.802500", "092556.802500", "092558.802500", "092600.802500", "092602.802500", "092604.802500", "092606.802500", "092608.802500", "092610.802500", "092612.802500", "092614.802500", "092616.802500", "092618.802500", "092620.802500", "092622.802500", "092624.802500", "092626.802500", "092628.802500", "092630.802500", "092632.802500", "092634.802500", "092636.802500", "092638.802500", "092640.802500", "092642.802500", "092644.802500", "092646.802500", "092648.802500", "092650.802500", "092652.802500", "092654.802500", "092656.802500", "092658.802500", "092700.802500", "092702.802500", "092704.802500", "092706.802500", "092708.802500", "092710.802500", "092712.802500", "092714.802500", "092716.802500", "092718.802500", "092720.802500", "092722.802500", "092724.802500", "092726.802500", "092728.802500", "092730.802500", "092732.802500", "092734.802500", "092736.802500", "092738.802500", "092740.802500", "092742.802500", "092744.802500", "092746.802500"],
      "ContentTime": ["092007.468000", "092008.963000", "092010.963000", "092012.963000", "092014.963000", "092016.962000", "092018.963000", "092020.964000", "092022.963000", "092024.963000", "092026.963000", "092028.963000", "092030.963000", "092032.963000", "092034.963000", "092036.963000", "092038.964000", "092040.963000", "092042.963000", "092044.963000", "092046.963000", "092048.963000", "092050.964000", "092052.962000", "092054.963000", "092056.964000", "092058.963000", "092100.963000", "092102.963000", "092104.964000", "092106.964000", "092108.963000", "092110.963000", "092112.963000", "092114.963000", "092116.963000", "092118.963000", "092120.963000", "092122.964000", "092124.963000", "092126.963000", "092128.963000", "092130.963000", "092132.963000", "092134.964000", "092136.963000", "092138.963000", "092140.964000", "092142.963000", "092144.962000", "092146.963000", "092148.963000", "092150.963000", "092152.963000", "092154.963000", "092156.963000", "092158.963000", "092200.963000", "092202.962000", "092204.963000", "092206.963000", "092208.963000", "092210.963000", "092212.963000", "092214.964000", "092216.963000", "092218.962000", "092220.964000", "092222.963000", "092224.963000", "092226.963000", "092228.963000", "092230.963000", "092232.964000", "092234.964000", "092236.963000", "092238.963000", "092240.963000", "092242.963000", "092244.963000", "092246.963000", "092248.964000", "092250.964000", "092252.964000", "092254.963000", "092256.963000", "092258.963000", "092300.963000", "092302.963000", "092304.963000", "092307.464000", "092308.963000", "092310.963000", "092312.962000", "092314.964000", "092316.963000", "092318.963000", "092320.963000", "092322.963000", "092324.963000", "092326.964000", "092328.963000", "092330.963000", "092332.963000", "092334.963000", "092336.963000", "092338.963000", "092340.964000", "092342.964000", "092344.963000", "092346.962000", "092348.963000", "092350.963000", "092352.964000", "092354.964000", "092356.963000", "092358.963000", "092400.963000", "092402.963000", "092404.962000", "092406.963000", "092408.964000", "092410.964000", "092412.963000", "092414.963000", "092416.964000", "092418.963000", "092420.963000", "092422.962000", "092424.963000", "092426.963000", "092428.964000", "092430.963000", "092432.963000", "092434.964000", "092436.963000", "092438.962000", "092440.963000", "092442.963000", "092444.964000", "092446.963000", "092448.963000", "092450.963000", "092452.963000", "092454.963000", "092456.962000", "092458.963000", "092500.963000", "092502.963000", "092504.963000", "092506.963000", "092508.963000", "092510.963000", "092512.963000", "092514.963000", "092516.964000", "092518.964000", "092520.963000", "092522.963000", "092524.963000", "092526.963000", "092528.963000", "092530.963000", "092532.962000", "092534.963000", "092536.980000", "092538.963000", "092540.963000", "092542.964000", "092544.963000", "092546.964000", "092548.962000", "092550.963000", "092552.963000", "092554.963000", "092556.963000", "092558.963000", "092600.963000", "092602.963000", "092604.963000", "092606.963000", "092608.963000", "092610.963000", "092612.963000", "092614.963000", "092616.964000", "092618.963000", "092620.963000", "092622.963000", "092624.962000", "092626.963000", "092628.963000", "092630.963000", "092632.963000", "092634.963000", "092636.963000", "092638.964000", "092640.963000", "092642.962000", "092644.963000", "092646.963000", "092648.964000", "092650.963000", "092652.964000", "092654.963000", "092656.963000", "092658.962000", "092700.963000", "092702.963000", "092704.963000", "092706.963000", "092708.964000", "092710.964000", "092712.963000", "092714.963000", "092716.962000", "092718.963000", "092720.963000", "092722.963000", "092724.963000", "092726.964000", "092728.963000", "092730.963000", "092732.964000", "092734.963000", "092736.963000", "092738.963000", "092740.964000", "092742.963000", "092744.963000", "092746.963000", "092748.736000"],
      "InstanceCreationTime": ["092007.468000", "092008.963000", "092010.963000", "092012.963000", "092014.963000", "092016.962000", "092018.963000", "092020.964000", "092022.963000", "092024.963000", "092026.963000", "092028.963000", "092030.963000", "092032.963000", "092034.963000", "092036.963000", "092038.964000", "092040.963000", "092042.963000", "092044.963000", "092046.963000", "092048.963000", "092050.964000", "092052.962000", "092054.963000", "092056.964000", "092058.963000", "092100.963000", "092102.963000", "092104.964000", "092106.964000", "092108.963000", "092110.963000", "092112.963000", "092114.963000", "092116.963000", "092118.963000", "092120.963000", "092122.964000", "092124.963000", "092126.963000", "092128.963000", "092130.963000", "092132.963000", "092134.964000", "092136.963000", "092138.963000", "092140.964000", "092142.963000", "092144.962000", "092146.963000", "092148.963000", "092150.963000", "092152.963000", "092154.963000", "092156.963000", "092158.963000", "092200.963000", "092202.962000", "092204.963000", "092206.963000", "092208.963000", "092210.963000", "092212.963000", "092214.964000", "092216.963000", "092218.962000", "092220.964000", "092222.963000", "092224.963000", "092226.963000", "092228.963000", "092230.963000", "092232.964000", "092234.964000", "092236.963000", "092238.963000", "092240.963000", "092242.963000", "092244.963000", "092246.963000", "092248.964000", "092250.964000", "092252.964000", "092254.963000", "092256.963000", "092258.963000", "092300.963000", "092302.963000", "092304.963000", "092307.464000", "092308.963000", "092310.963000", "092312.962000", "092314.964000", "092316.963000", "092318.963000", "092320.963000", "092322.963000", "092324.963000", "092326.964000", "092328.963000", "092330.963000", "092332.963000", "092334.963000", "092336.963000", "092338.963000", "092340.964000", "092342.964000", "092344.963000", "092346.962000", "092348.963000", "092350.963000", "092352.964000", "092354.964000", "092356.963000", "092358.963000", "092400.963000", "092402.963000", "092404.962000", "092406.963000", "092408.964000", "092410.964000", "092412.963000", "092414.963000", "092416.964000", "092418.963000", "092420.963000", "092422.962000", "092424.963000", "092426.963000", "092428.964000", "092430.963000", "092432.963000", "092434.964000", "092436.963000", "092438.962000", "092440.963000", "092442.963000", "092444.964000", "092446.963000", "092448.963000", "092450.963000", "092452.963000", "092454.963000", "092456.962000", "092458.963000", "092500.963000", "092502.963000", "092504.963000", "092506.963000", "092508.963000", "092510.963000", "092512.963000", "092514.963000", "092516.964000", "092518.964000", "092520.963000", "092522.963000", "092524.963000", "092526.963000", "092528.963000", "092530.963000", "092532.962000", "092534.963000", "092536.980000", "092538.963000", "092540.963000", "092542.964000", "092544.963000", "092546.964000", "092548.962000", "092550.963000", "092552.963000", "092554.963000", "092556.963000", "092558.963000", "092600.963000", "092602.963000", "092604.963000", "092606.963000", "092608.963000", "092610.963000", "092612.963000", "092614.963000", "092616.964000", "092618.963000", "092620.963000", "092622.963000", "092624.962000", "092626.963000", "092628.963000", "092630.963000", "092632.963000", "092634.963000", "092636.963000", "092638.964000", "092640.963000", "092642.962000", "092644.963000", "092646.963000", "092648.964000", "092650.963000", "092652.964000", "092654.963000", "092656.963000", "092658.962000", "092700.963000", "092702.963000", "092704.963000", "092706.963000", "092708.964000", "092710.964000", "092712.963000", "092714.963000", "092716.962000", "092718.963000", "092720.963000", "092722.963000", "092724.963000", "092726.964000", "092728.963000", "092730.963000", "092732.964000", "092734.963000", "092736.963000", "092738.963000", "092740.964000", "092742.963000", "092744.963000", "092746.963000", "092748.736000"],
      "InstanceNumber": [1, 2, 3, 4, 5, 6, 7, 8, 9, 10, 11, 12, 13, 14, 15, 16, 17, 18, 19, 20, 21, 22, 23, 24, 25, 26, 27, 28, 29, 30, 31, 32, 33, 34, 35, 36, 37, 38, 39, 40, 41, 42, 43, 44, 45, 46, 47, 48, 49, 50, 51, 52, 53, 54, 55, 56, 57, 58, 59, 60, 61, 62, 63, 64, 65, 66, 67, 68, 69, 70, 71, 72, 73, 74, 75, 76, 77, 78, 79, 80, 81, 82, 83, 84, 85, 86, 87, 88, 89, 90, 91, 92, 93, 94, 95, 96, 97, 98, 99, 100, 101, 102, 103, 104, 105, 106, 107, 108, 109, 110, 111, 112, 113, 114, 115, 116, 117, 118, 119, 120, 121, 122, 123, 124, 125, 126, 127, 128, 129, 130, 131, 132, 133, 134, 135, 136, 137, 138, 139, 140, 141, 142, 143, 144, 145, 146, 147, 148, 149, 150, 151, 152, 153, 154, 155, 156, 157, 158, 159, 160, 161, 162, 163, 164, 165, 166, 167, 168, 169, 170, 171, 172, 173, 174, 175, 176, 177, 178, 179, 180, 181, 182, 183, 184, 185, 186, 187, 188, 189, 190, 191, 192, 193, 194, 195, 196, 197, 198, 199, 200, 201, 202, 203, 204, 205, 206, 207, 208, 209, 210, 211, 212, 213, 214, 215, 216, 217, 218, 219, 220, 221, 222, 223, 224, 225, 226, 227, 228, 229, 230, 231, 232],
      "LargestImagePixelValue": [2728, 2725, 2676, 2663, 2695, 2709, 2669, 2702, 2681, 2676, 2677, 2729, 2729, 2727, 2706, 2728, 2694, 2717, 2707, 2695, 2701, 2730, 2700, 2707, 2699, 2667, 2710, 2704, 2678, 2774, 2714, 2720, 2702, 2692, 2703, 2711, 2684, 2714, 2697, 2691, 2704, 2705, 2687, 2708, 2732, 2704, 2685, 2699, 2702, 2743, 2788, 2720, 2975, 2714, 2754, 2735, 2679, 2667, 2687, 2678, 2681, 2661, 2722, 2709, 2672, 2686, 2705, 2717, 2671, 2644, 2700, 2701, 2717, 2716, 2718, 2687, 2700, 2701, 2641, 2852, 2767, 2770, 2717, 2725, 2770, 2769, 2733, 2699, 2775, 2651, 2792, 2734, 2792, 2794, 2808, 2735, 2692, 2765, 2863, 2706, 2735, 2736, 2852, 2737, 2699, 2715, 2713, 2672, 2704, 2717, 2755, 2736, 2738, 2743, 2743, 2704, 2713, 2735, 2724, 2674, 2702, 2726, 2761, 2745, 2757, 2688, 2709, 2757, 2731, 2659, 2843, 2681, 2847, 2690, 2780, 2730, 2729, 2672, 2637, 2673, 2639, 2668, 2652, 2661, 2778, 2688, 2768, 2782, 2747, 2776, 2767, 2773, 2770, 2773, 2770, 2788, 2789, 2781, 2809, 2797, 2815, 2826, 2794, 2814, 2742, 2770, 2810, 2775, 2759, 2811, 2774, 2800, 2770, 2794, 2781, 2778, 2794, 2654, 2964, 2718, 2595, 2817, 2863, 2626, 2889, 2799, 2792, 2793, 2807, 2778, 2770, 2783, 2790, 2810, 2794, 2799, 2794, 2791, 2819, 2794, 2804, 2784, 2810, 2822, 2800, 2791, 2799, 2961, 2814, 2802, 2786, 2810, 2819, 2794, 2752, 2746, 2764, 2781, 2796, 2800, 2793, 2798, 2828, 2782, 2787, 2798, 2784, 2791, 2794, 2809, 2778, 2797],
      "WindowCenter": [755.0, 754.0, 753.0, 753.0, 753.0, 752.0, 752.0, 751.0, 752.0, 753.0, 756.0, 757.0, 756.0, 756.0, 755.0, 755.0, 755.0, 756.0, 757.0, 757.0, 756.0, 755.0, 755.0, 755.0, 755.0, 755.0, 756.0, 757.0, 756.0, 758.0, 757.0, 757.0, 757.0, 756.0, 756.0, 756.0, 755.0, 755.0, 755.0, 755.0, 756.0, 757.0, 757.0, 757.0, 756.0, 755.0, 755.0, 755.0, 755.0, 756.0, 756.0, 752.0, 759.0, 750.0, 752.0, 755.0, 754.0, 754.0, 754.0, 753.0, 753.0, 753.0, 753.0, 753.0, 753.0, 754.0, 755.0, 755.0, 753.0, 752.0, 752.0, 752.0, 753.0, 753.0, 753.0, 752.0, 752.0, 751.0, 751.0, 754.0, 754.0, 755.0, 756.0, 757.0, 757.0, 755.0, 755.0, 753.0, 755.0, 754.0, 754.0, 755.0, 758.0, 757.0, 755.0, 752.0, 752.0, 750.0, 751.0, 750.0, 749.0, 750.0, 750.0, 747.0, 751.0, 752.0, 753.0, 752.0, 752.0, 751.0, 752.0, 754.0, 754.0, 755.0, 755.0, 754.0, 753.0, 752.0, 750.0, 749.0, 748.0, 748.0, 750.0, 750.0, 751.0, 750.0, 750.0, 751.0, 751.0, 751.0, 753.0, 750.0, 752.0, 748.0, 748.0, 749.0, 748.0, 750.0, 750.0, 750.0, 749.0, 748.0, 749.0, 750.0, 750.0, 749.0, 750.0, 750.0, 750.0, 751.0, 751.0, 752.0, 753.0, 753.0, 753.0, 752.0, 751.0, 751.0, 751.0, 752.0, 752.0, 755.0, 756.0, 755.0, 752.0, 750.0, 750.0, 750.0, 749.0, 750.0, 749.0, 748.0, 747.0, 747.0, 747.0, 747.0, 748.0, 740.0, 747.0, 747.0, 743.0, 749.0, 745.0, 743.0, 752.0, 748.0, 749.0, 749.0, 750.0, 749.0, 750.0, 750.0, 751.0, 750.0, 750.0, 750.0, 750.0, 750.0, 751.0, 751.0, 752.0, 752.0, 753.0, 753.0, 752.0, 751.0, 751.0, 753.0, 752.0, 753.0, 754.0, 753.0, 752.0, 750.0, 749.0, 749.0, 750.0, 751.0, 753.0, 754.0, 753.0, 752.0, 752.0, 751.0, 751.0, 751.0, 751.0, 751.0, 750.0, 749.0, 749.0, 748.0],
      "WindowWidth": [1626.0, 1622.0, 1620.0, 1620.0, 1619.0, 1618.0, 1617.0, 1616.0, 1616.0, 1621.0, 1628.0, 1632.0, 1630.0, 1628.0, 1626.0, 1627.0, 1626.0, 1630.0, 1632.0, 1631.0, 1629.0, 1627.0, 1625.0, 1626.0, 1626.0, 1626.0, 1630.0, 1631.0, 1628.0, 1633.0, 1631.0, 1632.0, 1631.0, 1630.0, 1629.0, 1628.0, 1626.0, 1627.0, 1626.0, 1626.0, 1628.0, 1629.0, 1629.0, 1630.0, 1628.0, 1626.0, 1625.0, 1625.0, 1626.0, 1628.0, 1629.0, 1616.0, 1636.0, 1613.0, 1617.0, 1624.0, 1622.0, 1622.0, 1622.0, 1621.0, 1620.0, 1619.0, 1619.0, 1620.0, 1621.0, 1623.0, 1625.0, 1624.0, 1620.0, 1616.0, 1618.0, 1618.0, 1619.0, 1620.0, 1621.0, 1618.0, 1616.0, 1616.0, 1614.0, 1623.0, 1622.0, 1626.0, 1628.0, 1630.0, 1630.0, 1625.0, 1624.0, 1620.0, 1623.0, 1621.0, 1621.0, 1625.0, 1632.0, 1630.0, 1624.0, 1618.0, 1616.0, 1611.0, 1614.0, 1612.0, 1610.0, 1611.0, 1612.0, 1605.0, 1614.0, 1616.0, 1620.0, 1618.0, 1616.0, 1614.0, 1617.0, 1621.0, 1622.0, 1623.0, 1624.0, 1622.0, 1618.0, 1615.0, 1610.0, 1607.0, 1606.0, 1606.0, 1610.0, 1611.0, 1614.0, 1611.0, 1611.0, 1613.0, 1614.0, 1615.0, 1618.0, 1612.0, 1616.0, 1607.0, 1606.0, 1608.0, 1607.0, 1610.0, 1610.0, 1612.0, 1608.0, 1607.0, 1608.0, 1612.0, 1612.0, 1609.0, 1611.0, 1612.0, 1611.0, 1612.0, 1614.0, 1617.0, 1619.0, 1620.0, 1619.0, 1617.0, 1615.0, 1615.0, 1614.0, 1615.0, 1616.0, 1624.0, 1627.0, 1624.0, 1615.0, 1611.0, 1611.0, 1610.0, 1607.0, 1610.0, 1607.0, 1605.0, 1602.0, 1603.0, 1601.0, 1602.0, 1603.0, 1585.0, 1603.0, 1604.0, 1594.0, 1609.0, 1600.0, 1594.0, 1616.0, 1605.0, 1607.0, 1608.0, 1610.0, 1608.0, 1609.0, 1610.0, 1612.0, 1611.0, 1612.0, 1611.0, 1610.0, 1611.0, 1614.0, 1613.0, 1615.0, 1615.0, 1618.0, 1618.0, 1616.0, 1614.0, 1614.0, 1618.0, 1615.0, 1617.0, 1621.0, 1619.0, 1615.0, 1610.0, 1607.0, 1607.0, 1609.0, 1613.0, 1618.0, 1620.0, 1619.0, 1617.0, 1616.0, 1614.0, 1613.0, 1613.0, 1612.0, 1611.0, 1610.0, 1608.0, 1606.0, 1603.0]
    },
    "slices": {}
  }
}