{
  "AcquisitionMatrixPE": 100,
  "AcquisitionNumber": 1,
  "AcquisitionTime": "09:29:3.512500",
  "BandwidthPerPixelPhaseEncode": 18.519,
  "BaseResolution": 100,
  "BodyPartExamined": "BRAIN",
  "ConsistencyInfo": "N4_VE11C_LATEST_20160120",
  "ConversionSoftware": "dcm2niix",
  "ConversionSoftwareVersion": "v1.0.20180622 GCC4.9.2",
  "DerivedVendorReportedEchoSpacing": 0.000539986,
  "DeviceSerialNumber": "166078",
  "DwellTime": 2.1e-06,
  "EchoTime": 0.034,
  "EchoTrainLength": 100,
  "EffectiveEchoSpacing": 0.000539986,
  "FlipAngle": 90,
  "ImageOrientationPatientDICOM": [0.999042, -0.00349058, 0.0436191, 0.00348726, 0.999994, 0.000152259],
  "ImageType": [
    "ORIGINAL",
    "PRIMARY",
    "M",
    "ND",
    "MOSAIC"
],
  "InPlanePhaseEncodingDirectionDICOM": "COL",
  "InstitutionAddress": "Street_StreetNo_Bei_Jing_District_CN_ZIP",
  "InstitutionName": "BeiJing_Normal_University",
  "InstitutionalDepartmentName": "Department",
  "MRAcquisitionType": "2D",
  "MagneticFieldStrength": 3,
  "Manufacturer": "Siemens",
  "ManufacturersModelName": "Prisma",
  "Modality": "MR",
  "MultibandAccelerationFactor": 3,
  "PartialFourier": 1,
  "PatientPosition": "HFS",
  "PercentPhaseFOV": 100,
  "PhaseEncodingDirection": "j-",
  "PhaseEncodingSteps": 100,
  "PhaseResolution": 1,
  "PixelBandwidth": 2380,
  "ProcedureStepDescription": "BNU_P2018_64CH_Liu.Jia",
  "ProtocolName": "bold_100x100_s3_2x2x2_232",
  "PulseSequenceDetails": "%SiemensSeq%_ep2d_bold",
  "ReceiveCoilActiveElements": "HC1-7;NC1",
  "ReceiveCoilName": "HeadNeck_64",
  "ReconMatrixPE": 100,
  "RepetitionTime": 2,
  "SAR": 0.0638653,
  "ScanOptions": "FS",
  "ScanningSequence": "EP",
  "SequenceName": "_epfid2d1_100",
  "SequenceVariant": "SK",
  "SeriesDescription": "bold_100x100_s3_2x2x2_232",
  "SeriesNumber": 4,
  "ShimSetting": [-5459, -11528, -1282, 370, -46, -220, -133, 20],
  "SliceThickness": 2,
  "SliceTiming": [1.485, 0, 0.99, 0.0825, 1.0725, 0.165, 1.155, 0.2475, 1.2375, 0.33, 1.32, 0.4125, 1.4025, 0.5775, 1.5675, 0.66, 1.65, 0.7425, 1.7325, 0.825, 1.815, 0.9075, 1.8975, 0.495, 1.485, 0, 0.99, 0.0825, 1.0725, 0.165, 1.155, 0.2475, 1.2375, 0.33, 1.32, 0.4125, 1.4025, 0.5775, 1.5675, 0.66, 1.65, 0.7425, 1.7325, 0.825, 1.815, 0.9075, 1.8975, 0.495, 1.485, 0, 0.99, 0.0825, 1.0725, 0.165, 1.155, 0.2475, 1.2375, 0.33, 1.32, 0.4125, 1.4025, 0.5775, 1.5675, 0.66, 1.65, 0.7425, 1.7325, 0.825, 1.815, 0.9075, 1.8975, 0.495],
  "SoftwareVersions": "syngo_MR_E11",
  "SpacingBetweenSlices": 2,
  "StationName": "AWP166078",
  "TaskName": "motor",
  "TotalReadoutTime": 0.0534586,
  "TxRefAmp": 208.882,
  "dcmmeta_affine": [
    [-1.998084306716919, 0.006974524352699518, 0.08723877370357513, 98.6962661743164],
    [0.006981168873608112, 1.9999878406524658, 4.008798182297824e-09, -89.58219909667969],
    [0.08723824471235275, -0.0003045183257199824, 1.9980964660644531, -67.20519256591797],
    [0.0, 0.0, 0.0, 1.0]
],
  "dcmmeta_reorient_transform": [
    [0.0, -1.0, 0.0, 99.0],
    [1.0, 0.0, 0.0, 0.0],
    [0.0, 0.0, 1.0, 0.0],
    [0.0, 0.0, 0.0, 1.0]
],
  "dcmmeta_shape": [100, 100, 72, 232],
  "dcmmeta_slice_dim": 2,
  "dcmmeta_version": 0.6,
  "global": {
    "const": {
      "AcquisitionMatrix": [100, 0, 0, 100],
      "AngioFlag": "N",
      "BitsAllocated": 16,
      "BitsStored": 12,
      "BodyPartExamined": "BRAIN",
      "Columns": 900,
      "EchoNumbers": 1,
      "EchoTime": 34.0,
      "EchoTrainLength": 100,
      "FlipAngle": 90.0,
      "HighBit": 11,
      "ImageOrientationPatient": [0.99904213526783, -0.0034905844497, 0.04361912172075, 0.00348726209934, 0.99999390789154, 0.00015225915806],
      "ImagePositionPatient": [-901.4102653492, -905.6192560131, -102.25244286418],
      "ImageType": [
        "ORIGINAL",
        "PRIMARY",
        "M",
        "ND",
        "MOSAIC"
],
      "ImagedNucleus": "1H",
      "ImagingFrequency": 123.257811,
      "InPlanePhaseEncodingDirection": "COL",
      "MRAcquisitionType": "2D",
      "MagneticFieldStrength": 3.0,
      "Manufacturer": "SIEMENS",
      "ManufacturerModelName": "Prisma",
      "Modality": "MR",
      "NumberOfAverages": 1.0,
      "NumberOfPhaseEncodingSteps": 100,
      "PercentPhaseFieldOfView": 100.0,
      "PercentSampling": 100.0,
      "PerformedProcedureStepStartTime": "091723.716000",
      "PhotometricInterpretation": "MONOCHROME2",
      "PixelBandwidth": 2380.0,
      "PixelRepresentation": 0,
      "PixelSpacing": [2.0, 2.0],
      "ProtocolName": "bold_100x100_s3_2x2x2_232",
      "RepetitionTime": 2000.0,
      "Rows": 900,
      "SAR": 0.06386531421987,
      "SamplesPerPixel": 1,
      "ScanOptions": "FS",
      "ScanningSequence": "EP",
      "SequenceName": "*epfid2d1_100",
      "SequenceVariant": "SK",
      "SeriesDescription": "bold_100x100_s3_2x2x2_232",
      "SeriesNumber": 4,
      "SeriesTime": "092905.962000",
      "SliceLocation": -62.836155753905,
      "SliceThickness": 2.0,
      "SmallestImagePixelValue": 0,
      "SoftwareVersions": "syngo MR E11",
      "SpacingBetweenSlices": 1.9999999691846,
      "SpecificCharacterSet": "ISO_IR 100",
      "StudyID": "1",
      "StudyTime": "091723.573000",
      "TransmitCoilName": "Body",
      "VariableFlipAngleFlag": "N",
      "WindowCenterWidthExplanation": "Algo1",
      "dBdt": 0.0},
    "slices": {}
  },
  "time": {
    "samples": {
      "AcquisitionNumber": [1, 2, 3, 4, 5, 6, 7, 8, 9, 10, 11, 12, 13, 14, 15, 16, 17, 18, 19, 20, 21, 22, 23, 24, 25, 26, 27, 28, 29, 30, 31, 32, 33, 34, 35, 36, 37, 38, 39, 40, 41, 42, 43, 44, 45, 46, 47, 48, 49, 50, 51, 52, 53, 54, 55, 56, 57, 58, 59, 60, 61, 62, 63, 64, 65, 66, 67, 68, 69, 70, 71, 72, 73, 74, 75, 76, 77, 78, 79, 80, 81, 82, 83, 84, 85, 86, 87, 88, 89, 90, 91, 92, 93, 94, 95, 96, 97, 98, 99, 100, 101, 102, 103, 104, 105, 106, 107, 108, 109, 110, 111, 112, 113, 114, 115, 116, 117, 118, 119, 120, 121, 122, 123, 124, 125, 126, 127, 128, 129, 130, 131, 132, 133, 134, 135, 136, 137, 138, 139, 140, 141, 142, 143, 144, 145, 146, 147, 148, 149, 150, 151, 152, 153, 154, 155, 156, 157, 158, 159, 160, 161, 162, 163, 164, 165, 166, 167, 168, 169, 170, 171, 172, 173, 174, 175, 176, 177, 178, 179, 180, 181, 182, 183, 184, 185, 186, 187, 188, 189, 190, 191, 192, 193, 194, 195, 196, 197, 198, 199, 200, 201, 202, 203, 204, 205, 206, 207, 208, 209, 210, 211, 212, 213, 214, 215, 216, 217, 218, 219, 220, 221, 222, 223, 224, 225, 226, 227, 228, 229, 230, 231, 232],
      "AcquisitionTime": ["092903.512500", "092905.512500", "092907.512500", "092909.512500", "092911.512500", "092913.512500", "092915.512500", "092917.512500", "092919.512500", "092921.512500", "092923.512500", "092925.512500", "092927.512500", "092929.512500", "092931.512500", "092933.512500", "092935.512500", "092937.512500", "092939.512500", "092941.512500", "092943.512500", "092945.512500", "092947.512500", "092949.512500", "092951.512500", "092953.512500", "092955.512500", "092957.512500", "092959.512500", "093001.512500", "093003.512500", "093005.512500", "093007.512500", "093009.512500", "093011.512500", "093013.512500", "093015.512500", "093017.512500", "093019.512500", "093021.512500", "093023.512500", "093025.512500", "093027.512500", "093029.512500", "093031.512500", "093033.512500", "093035.512500", "093037.512500", "093039.512500", "093041.512500", "093043.512500", "093045.512500", "093047.512500", "093049.512500", "093051.512500", "093053.512500", "093055.512500", "093057.512500", "093059.512500", "093101.512500", "093103.512500", "093105.512500", "093107.512500", "093109.512500", "093111.512500", "093113.512500", "093115.512500", "093117.512500", "093119.512500", "093121.512500", "093123.512500", "093125.512500", "093127.512500", "093129.512500", "093131.512500", "093133.512500", "093135.512500", "093137.512500", "093139.512500", "093141.512500", "093143.512500", "093145.512500", "093147.512500", "093149.512500", "093151.512500", "093153.512500", "093155.512500", "093157.512500", "093159.512500", "093201.512500", "093203.512500", "093205.512500", "093207.512500", "093209.512500", "093211.512500", "093213.512500", "093215.512500", "093217.512500", "093219.512500", "093221.512500", "093223.512500", "093225.512500", "093227.512500", "093229.512500", "093231.512500", "093233.512500", "093235.512500", "093237.512500", "093239.512500", "093241.512500", "093243.512500", "093245.512500", "093247.512500", "093249.512500", "093251.512500", "093253.512500", "093255.512500", "093257.512500", "093259.512500", "093301.512500", "093303.512500", "093305.512500", "093307.512500", "093309.512500", "093311.512500", "093313.512500", "093315.512500", "093317.512500", "093319.512500", "093321.512500", "093323.512500", "093325.512500", "093327.512500", "093329.512500", "093331.512500", "093333.512500", "093335.512500", "093337.512500", "093339.512500", "093341.512500", "093343.512500", "093345.512500", "093347.512500", "093349.512500", "093351.512500", "093353.512500", "093355.512500", "093357.512500", "093359.512500", "093401.512500", "093403.512500", "093405.512500", "093407.512500", "093409.512500", "093411.512500", "093413.512500", "093415.512500", "093417.512500", "093419.512500", "093421.512500", "093423.512500", "093425.512500", "093427.512500", "093429.512500", "093431.512500", "093433.512500", "093435.512500", "093437.512500", "093439.512500", "093441.512500", "093443.512500", "093445.512500", "093447.512500", "093449.512500", "093451.512500", "093453.512500", "093455.512500", "093457.512500", "093459.512500", "093501.512500", "093503.512500", "093505.512500", "093507.512500", "093509.512500", "093511.512500", "093513.512500", "093515.512500", "093517.512500", "093519.512500", "093521.512500", "093523.512500", "093525.512500", "093527.512500", "093529.512500", "093531.512500", "093533.512500", "093535.512500", "093537.512500", "093539.512500", "093541.512500", "093543.512500", "093545.512500", "093547.512500", "093549.512500", "093551.512500", "093553.512500", "093555.512500", "093557.512500", "093559.512500", "093601.512500", "093603.512500", "093605.512500", "093607.512500", "093609.512500", "093611.512500", "093613.512500", "093615.512500", "093617.512500", "093619.512500", "093621.512500", "093623.512500", "093625.512500", "093627.512500", "093629.512500", "093631.512500", "093633.512500", "093635.512500", "093637.512500", "093639.512500", "093641.512500", "093643.512500", "093645.512500"],
      "ContentTime": ["092905.965000", "092907.461000", "092909.461000", "092911.461000", "092913.961000", "092915.961000", "092917.460000", "092919.960000", "092921.462000", "092923.961000", "092925.961000", "092927.961000", "092929.461000", "092931.962000", "092933.961000", "092935.960000", "092937.961000", "092939.961000", "092941.461000", "092943.961000", "092945.461000", "092947.961000", "092949.961000", "092951.961000", "092953.461000", "092955.461000", "092957.961000", "092959.462000", "093001.461000", "093003.961000", "093005.461000", "093007.961000", "093009.960000", "093011.960000", "093013.962000", "093015.961000", "093017.961000", "093019.961000", "093021.962000", "093023.961000", "093025.461000", "093027.960000", "093029.961000", "093031.961000", "093033.461000", "093035.462000", "093037.962000", "093039.961000", "093041.961000", "093043.462000", "093045.460000", "093047.962000", "093049.961000", "093051.462000", "093053.461000", "093055.961000", "093057.961000", "093059.962000", "093101.462000", "093103.460000", "093105.461000", "093107.961000", "093109.461000", "093111.961000", "093113.962000", "093115.461000", "093117.961000", "093119.961000", "093121.961000", "093123.462000", "093125.961000", "093127.461000", "093129.961000", "093131.461000", "093133.462000", "093135.961000", "093137.460000", "093139.461000", "093141.961000", "093143.962000", "093145.461000", "093147.961000", "093149.961000", "093151.461000", "093153.961000", "093155.460000", "093157.461000", "093159.961000", "093201.962000", "093203.961000", "093205.962000", "093207.961000", "093209.961000", "093211.962000", "093213.460000", "093215.961000", "093217.962000", "093219.462000", "093221.961000", "093223.961000", "093225.461000", "093227.961000", "093229.960000", "093231.460000", "093233.462000", "093235.962000", "093237.961000", "093239.962000", "093241.962000", "093243.961000", "093245.461000", "093247.460000", "093249.961000", "093251.962000", "093253.961000", "093255.962000", "093257.961000", "093259.961000", "093301.461000", "093303.961000", "093305.460000", "093307.460000", "093309.961000", "093311.961000", "093313.461000", "093315.962000", "093317.961000", "093319.961000", "093321.961000", "093323.960000", "093325.962000", "093327.961000", "093329.961000", "093331.961000", "093333.461000", "093335.962000", "093337.961000", "093339.461000", "093341.960000", "093343.961000", "093345.962000", "093347.961000", "093349.461000", "093351.961000", "093353.961000", "093355.962000", "093357.960000", "093359.961000", "093401.461000", "093403.961000", "093405.461000", "093407.961000", "093409.962000", "093411.961000", "093413.962000", "093415.960000", "093417.460000", "093419.962000", "093421.962000", "093423.461000", "093425.462000", "093427.961000", "093429.461000", "093431.961000", "093433.461000", "093435.961000", "093437.961000", "093439.962000", "093441.962000", "093443.962000", "093445.961000", "093447.961000", "093449.960000", "093451.961000", "093453.962000", "093455.961000", "093457.962000", "093459.961000", "093501.961000", "093503.962000", "093505.961000", "093507.960000", "093509.960000", "093511.461000", "093513.462000", "093515.962000", "093517.962000", "093519.961000", "093521.962000", "093523.961000", "093525.460000", "093527.962000", "093529.461000", "093531.962000", "093533.962000", "093535.461000", "093537.461000", "093539.962000", "093541.962000", "093543.961000", "093545.461000", "093547.961000", "093549.461000", "093551.461000", "093553.461000", "093555.461000", "093557.461000", "093559.461000", "093601.961000", "093603.462000", "093605.962000", "093607.962000", "093609.461000", "093611.962000", "093613.961000", "093615.461000", "093617.961000", "093619.961000", "093621.962000", "093623.962000", "093625.472000", "093627.961000", "093629.962000", "093631.961000", "093633.962000", "093635.960000", "093637.962000", "093639.961000", "093641.961000", "093643.961000", "093645.461000", "093647.455000"],
      "InstanceCreationTime": ["092905.965000", "092907.461000", "092909.461000", "092911.461000", "092913.961000", "092915.961000", "092917.460000", "092919.960000", "092921.462000", "092923.961000", "092925.961000", "092927.961000", "092929.461000", "092931.962000", "092933.961000", "092935.960000", "092937.961000", "092939.961000", "092941.461000", "092943.961000", "092945.461000", "092947.961000", "092949.961000", "092951.961000", "092953.461000", "092955.461000", "092957.961000", "092959.462000", "093001.461000", "093003.961000", "093005.461000", "093007.961000", "093009.960000", "093011.960000", "093013.962000", "093015.961000", "093017.961000", "093019.961000", "093021.962000", "093023.961000", "093025.461000", "093027.960000", "093029.961000", "093031.961000", "093033.461000", "093035.462000", "093037.962000", "093039.961000", "093041.961000", "093043.462000", "093045.460000", "093047.962000", "093049.961000", "093051.462000", "093053.461000", "093055.961000", "093057.961000", "093059.962000", "093101.462000", "093103.460000", "093105.461000", "093107.961000", "093109.461000", "093111.961000", "093113.962000", "093115.461000", "093117.961000", "093119.961000", "093121.961000", "093123.462000", "093125.961000", "093127.461000", "093129.961000", "093131.461000", "093133.462000", "093135.961000", "093137.460000", "093139.461000", "093141.961000", "093143.962000", "093145.461000", "093147.961000", "093149.961000", "093151.461000", "093153.961000", "093155.460000", "093157.461000", "093159.961000", "093201.962000", "093203.961000", "093205.962000", "093207.961000", "093209.961000", "093211.962000", "093213.460000", "093215.961000", "093217.962000", "093219.462000", "093221.961000", "093223.961000", "093225.461000", "093227.961000", "093229.960000", "093231.460000", "093233.462000", "093235.962000", "093237.961000", "093239.962000", "093241.962000", "093243.961000", "093245.461000", "093247.460000", "093249.961000", "093251.962000", "093253.961000", "093255.962000", "093257.961000", "093259.961000", "093301.461000", "093303.961000", "093305.460000", "093307.460000", "093309.961000", "093311.961000", "093313.461000", "093315.962000", "093317.961000", "093319.961000", "093321.961000", "093323.960000", "093325.962000", "093327.961000", "093329.961000", "093331.961000", "093333.461000", "093335.962000", "093337.961000", "093339.461000", "093341.960000", "093343.961000", "093345.962000", "093347.961000", "093349.461000", "093351.961000", "093353.961000", "093355.962000", "093357.960000", "093359.961000", "093401.461000", "093403.961000", "093405.461000", "093407.961000", "093409.962000", "093411.961000", "093413.962000", "093415.960000", "093417.460000", "093419.962000", "093421.962000", "093423.461000", "093425.462000", "093427.961000", "093429.461000", "093431.961000", "093433.461000", "093435.961000", "093437.961000", "093439.962000", "093441.962000", "093443.962000", "093445.961000", "093447.961000", "093449.960000", "093451.961000", "093453.962000", "093455.961000", "093457.962000", "093459.961000", "093501.961000", "093503.962000", "093505.961000", "093507.960000", "093509.960000", "093511.461000", "093513.462000", "093515.962000", "093517.962000", "093519.961000", "093521.962000", "093523.961000", "093525.460000", "093527.962000", "093529.461000", "093531.962000", "093533.962000", "093535.461000", "093537.461000", "093539.962000", "093541.962000", "093543.961000", "093545.461000", "093547.961000", "093549.461000", "093551.461000", "093553.461000", "093555.461000", "093557.461000", "093559.461000", "093601.961000", "093603.462000", "093605.962000", "093607.962000", "093609.461000", "093611.962000", "093613.961000", "093615.461000", "093617.961000", "093619.961000", "093621.962000", "093623.962000", "093625.472000", "093627.961000", "093629.962000", "093631.961000", "093633.962000", "093635.960000", "093637.962000", "093639.961000", "093641.961000", "093643.961000", "093645.461000", "093647.455000"],
      "InstanceNumber": [1, 2, 3, 4, 5, 6, 7, 8, 9, 10, 11, 12, 13, 14, 15, 16, 17, 18, 19, 20, 21, 22, 23, 24, 25, 26, 27, 28, 29, 30, 31, 32, 33, 34, 35, 36, 37, 38, 39, 40, 41, 42, 43, 44, 45, 46, 47, 48, 49, 50, 51, 52, 53, 54, 55, 56, 57, 58, 59, 60, 61, 62, 63, 64, 65, 66, 67, 68, 69, 70, 71, 72, 73, 74, 75, 76, 77, 78, 79, 80, 81, 82, 83, 84, 85, 86, 87, 88, 89, 90, 91, 92, 93, 94, 95, 96, 97, 98, 99, 100, 101, 102, 103, 104, 105, 106, 107, 108, 109, 110, 111, 112, 113, 114, 115, 116, 117, 118, 119, 120, 121, 122, 123, 124, 125, 126, 127, 128, 129, 130, 131, 132, 133, 134, 135, 136, 137, 138, 139, 140, 141, 142, 143, 144, 145, 146, 147, 148, 149, 150, 151, 152, 153, 154, 155, 156, 157, 158, 159, 160, 161, 162, 163, 164, 165, 166, 167, 168, 169, 170, 171, 172, 173, 174, 175, 176, 177, 178, 179, 180, 181, 182, 183, 184, 185, 186, 187, 188, 189, 190, 191, 192, 193, 194, 195, 196, 197, 198, 199, 200, 201, 202, 203, 204, 205, 206, 207, 208, 209, 210, 211, 212, 213, 214, 215, 216, 217, 218, 219, 220, 221, 222, 223, 224, 225, 226, 227, 228, 229, 230, 231, 232],
      "LargestImagePixelValue": [2879, 2831, 2794, 2776, 2796, 2790, 2840, 2803, 2780, 2791, 2808, 2786, 2772, 2819, 2782, 2828, 2832, 2790, 2781, 2777, 2800, 2781, 2785, 2768, 2810, 2801, 2764, 2795, 2775, 2813, 2803, 2792, 2784, 2783, 2820, 2848, 2810, 2793, 2777, 2792, 2825, 2805, 2775, 2789, 2809, 2824, 2838, 2798, 2827, 2867, 2809, 2822, 2821, 2840, 2840, 2823, 2818, 2850, 2846, 2795, 2771, 2856, 2806, 2853, 2799, 2792, 2789, 2804, 2799, 2848, 2805, 2816, 2812, 2809, 2862, 2842, 2812, 2806, 2842, 2750, 2786, 2810, 2849, 2787, 2794, 2757, 2786, 2772, 2851, 2761, 2781, 2811, 2772, 2823, 2815, 2757, 2780, 2805, 2833, 2782, 2807, 2771, 2768, 2792, 2812, 2771, 2802, 2785, 2775, 2811, 2792, 2833, 2821, 2834, 2759, 2782, 2827, 2824, 2813, 2775, 2762, 2809, 2769, 2788, 2845, 2784, 2806, 2850, 2821, 2787, 2789, 2779, 2837, 2757, 2770, 2820, 2839, 2759, 2774, 2843, 2795, 2758, 2779, 2850, 2766, 2778, 2799, 2824, 2765, 2786, 2771, 2787, 2803, 2791, 2803, 2756, 2775, 2771, 2837, 2761, 2776, 2776, 2801, 2760, 2755, 2786, 2790, 2825, 2770, 2803, 2806, 2832, 2818, 2776, 2769, 2874, 2813, 2830, 2816, 2784, 2798, 2775, 2781, 2802, 2806, 2818, 2812, 2749, 2842, 2830, 2753, 2814, 2863, 2776, 2776, 2779, 2802, 2808, 2801, 2761, 2788, 2798, 2758, 2778, 2770, 2735, 2735, 2766, 2775, 2790, 2823, 2804, 2832, 2849, 2806, 2788, 2803, 2812, 2770, 2776, 2790, 2740, 2751, 2755, 2756, 2776, 2765, 2735, 2756, 2810, 2745, 2741],
      "WindowCenter": [752.0, 751.0, 750.0, 749.0, 749.0, 749.0, 750.0, 750.0, 750.0, 751.0, 753.0, 752.0, 750.0, 750.0, 750.0, 751.0, 752.0, 753.0, 755.0, 754.0, 754.0, 752.0, 752.0, 752.0, 752.0, 751.0, 752.0, 752.0, 751.0, 752.0, 753.0, 753.0, 751.0, 750.0, 751.0, 751.0, 751.0, 750.0, 750.0, 751.0, 751.0, 751.0, 751.0, 751.0, 749.0, 749.0, 749.0, 750.0, 752.0, 752.0, 752.0, 753.0, 754.0, 754.0, 753.0, 753.0, 753.0, 754.0, 754.0, 753.0, 751.0, 751.0, 750.0, 750.0, 750.0, 751.0, 752.0, 751.0, 750.0, 752.0, 752.0, 753.0, 753.0, 753.0, 754.0, 754.0, 754.0, 753.0, 752.0, 750.0, 750.0, 751.0, 752.0, 750.0, 750.0, 750.0, 750.0, 750.0, 753.0, 752.0, 752.0, 751.0, 751.0, 751.0, 751.0, 751.0, 751.0, 750.0, 751.0, 750.0, 751.0, 750.0, 750.0, 751.0, 751.0, 751.0, 749.0, 752.0, 751.0, 752.0, 752.0, 752.0, 751.0, 751.0, 750.0, 750.0, 750.0, 750.0, 750.0, 750.0, 751.0, 752.0, 751.0, 751.0, 753.0, 750.0, 752.0, 752.0, 751.0, 751.0, 752.0, 751.0, 751.0, 750.0, 751.0, 752.0, 752.0, 751.0, 753.0, 755.0, 753.0, 751.0, 751.0, 752.0, 752.0, 751.0, 752.0, 752.0, 750.0, 749.0, 749.0, 750.0, 750.0, 751.0, 751.0, 751.0, 752.0, 751.0, 752.0, 751.0, 751.0, 750.0, 751.0, 750.0, 749.0, 750.0, 750.0, 750.0, 751.0, 752.0, 752.0, 752.0, 751.0, 750.0, 751.0, 752.0, 752.0, 752.0, 753.0, 753.0, 752.0, 751.0, 751.0, 752.0, 751.0, 750.0, 750.0, 748.0, 751.0, 749.0, 747.0, 748.0, 747.0, 748.0, 749.0, 749.0, 749.0, 749.0, 748.0, 749.0, 750.0, 750.0, 749.0, 748.0, 748.0, 748.0, 747.0, 748.0, 749.0, 750.0, 751.0, 750.0, 752.0, 751.0, 751.0, 750.0, 750.0, 750.0, 750.0, 750.0, 750.0, 749.0, 750.0, 750.0, 752.0, 753.0, 752.0, 752.0, 752.0, 753.0, 751.0, 749.0],
      "WindowWidth": [1617.0, 1613.0, 1609.0, 1607.0, 1607.0, 1609.0, 1611.0, 1611.0, 1611.0, 1614.0, 1620.0, 1616.0, 1611.0, 1611.0, 1611.0, 1613.0, 1617.0, 1619.0, 1623.0, 1622.0, 1620.0, 1617.0, 1615.0, 1616.0, 1617.0, 1614.0, 1615.0, 1616.0, 1614.0, 1617.0, 1619.0, 1619.0, 1613.0, 1611.0, 1612.0, 1613.0, 1613.0, 1612.0, 1610.0, 1613.0, 1613.0, 1613.0, 1613.0, 1612.0, 1608.0, 1608.0, 1608.0, 1611.0, 1616.0, 1616.0, 1616.0, 1619.0, 1621.0, 1621.0, 1618.0, 1618.0, 1620.0, 1622.0, 1622.0, 1618.0, 1614.0, 1612.0, 1610.0, 1611.0, 1611.0, 1614.0, 1615.0, 1614.0, 1613.0, 1616.0, 1617.0, 1619.0, 1618.0, 1618.0, 1621.0, 1621.0, 1621.0, 1618.0, 1614.0, 1611.0, 1612.0, 1614.0, 1617.0, 1611.0, 1609.0, 1610.0, 1610.0, 1612.0, 1618.0, 1615.0, 1615.0, 1614.0, 1613.0, 1614.0, 1614.0, 1613.0, 1612.0, 1611.0, 1612.0, 1611.0, 1612.0, 1611.0, 1610.0, 1612.0, 1614.0, 1613.0, 1609.0, 1616.0, 1615.0, 1617.0, 1615.0, 1616.0, 1612.0, 1614.0, 1611.0, 1612.0, 1611.0, 1610.0, 1611.0, 1612.0, 1612.0, 1616.0, 1613.0, 1615.0, 1619.0, 1612.0, 1617.0, 1616.0, 1613.0, 1614.0, 1615.0, 1613.0, 1613.0, 1611.0, 1613.0, 1614.0, 1616.0, 1614.0, 1619.0, 1623.0, 1618.0, 1614.0, 1613.0, 1616.0, 1614.0, 1614.0, 1616.0, 1616.0, 1611.0, 1607.0, 1609.0, 1610.0, 1611.0, 1612.0, 1614.0, 1613.0, 1615.0, 1614.0, 1616.0, 1612.0, 1613.0, 1611.0, 1612.0, 1610.0, 1609.0, 1610.0, 1609.0, 1611.0, 1612.0, 1615.0, 1616.0, 1615.0, 1613.0, 1611.0, 1612.0, 1616.0, 1615.0, 1617.0, 1619.0, 1618.0, 1616.0, 1612.0, 1614.0, 1615.0, 1614.0, 1612.0, 1612.0, 1605.0, 1613.0, 1608.0, 1602.0, 1606.0, 1604.0, 1606.0, 1609.0, 1608.0, 1607.0, 1607.0, 1606.0, 1609.0, 1609.0, 1610.0, 1607.0, 1606.0, 1605.0, 1605.0, 1602.0, 1603.0, 1607.0, 1610.0, 1612.0, 1611.0, 1615.0, 1612.0, 1612.0, 1610.0, 1609.0, 1610.0, 1611.0, 1611.0, 1609.0, 1608.0, 1611.0, 1612.0, 1615.0, 1618.0, 1617.0, 1617.0, 1616.0, 1617.0, 1611.0, 1608.0]
    },
    "slices": {}
  }
}