{
  "AcquisitionMatrixPE": 100,
  "AcquisitionNumber": 1,
  "AcquisitionTime": "09:49:29.842500",
  "BandwidthPerPixelPhaseEncode": 18.519,
  "BaseResolution": 100,
  "BodyPartExamined": "BRAIN",
  "ConsistencyInfo": "N4_VE11C_LATEST_20160120",
  "ConversionSoftware": "dcm2niix",
  "ConversionSoftwareVersion": "v1.0.20180622 GCC4.9.2",
  "DerivedVendorReportedEchoSpacing": 0.000539986,
  "DeviceSerialNumber": "166078",
  "DwellTime": 2.1e-06,
  "EchoTime": 0.034,
  "EchoTrainLength": 100,
  "EffectiveEchoSpacing": 0.000539986,
  "FlipAngle": 90,
  "ImageOrientationPatientDICOM": [0.999042, -0.00349058, 0.0436191, 0.00348726, 0.999994, 0.000152259],
  "ImageType": [
    "ORIGINAL",
    "PRIMARY",
    "M",
    "ND",
    "MOSAIC"
],
  "InPlanePhaseEncodingDirectionDICOM": "COL",
  "InstitutionAddress": "Street_StreetNo_Bei_Jing_District_CN_ZIP",
  "InstitutionName": "BeiJing_Normal_University",
  "InstitutionalDepartmentName": "Department",
  "MRAcquisitionType": "2D",
  "MagneticFieldStrength": 3,
  "Manufacturer": "Siemens",
  "ManufacturersModelName": "Prisma",
  "Modality": "MR",
  "MultibandAccelerationFactor": 3,
  "PartialFourier": 1,
  "PatientPosition": "HFS",
  "PercentPhaseFOV": 100,
  "PhaseEncodingDirection": "j-",
  "PhaseEncodingSteps": 100,
  "PhaseResolution": 1,
  "PixelBandwidth": 2380,
  "ProcedureStepDescription": "BNU_P2018_64CH_Liu.Jia",
  "ProtocolName": "bold_100x100_s3_2x2x2_232",
  "PulseSequenceDetails": "%SiemensSeq%_ep2d_bold",
  "ReceiveCoilActiveElements": "HC1-7;NC1",
  "ReceiveCoilName": "HeadNeck_64",
  "ReconMatrixPE": 100,
  "RepetitionTime": 2,
  "SAR": 0.0638653,
  "ScanOptions": "FS",
  "ScanningSequence": "EP",
  "SequenceName": "_epfid2d1_100",
  "SequenceVariant": "SK",
  "SeriesDescription": "bold_100x100_s3_2x2x2_232",
  "SeriesNumber": 8,
  "ShimSetting": [-5459, -11528, -1282, 370, -46, -220, -133, 20],
  "SliceThickness": 2,
  "SliceTiming": [1.485, 0, 0.99, 0.0825, 1.0725, 0.165, 1.155, 0.2475, 1.2375, 0.33, 1.32, 0.4125, 1.4025, 0.5775, 1.5675, 0.66, 1.65, 0.7425, 1.7325, 0.825, 1.815, 0.9075, 1.8975, 0.495, 1.485, 0, 0.99, 0.0825, 1.0725, 0.165, 1.155, 0.2475, 1.2375, 0.33, 1.32, 0.4125, 1.4025, 0.5775, 1.5675, 0.66, 1.65, 0.7425, 1.7325, 0.825, 1.815, 0.9075, 1.8975, 0.495, 1.485, 0, 0.99, 0.0825, 1.0725, 0.165, 1.155, 0.2475, 1.2375, 0.33, 1.32, 0.4125, 1.4025, 0.5775, 1.5675, 0.66, 1.65, 0.7425, 1.7325, 0.825, 1.815, 0.9075, 1.8975, 0.495],
  "SoftwareVersions": "syngo_MR_E11",
  "SpacingBetweenSlices": 2,
  "StationName": "AWP166078",
  "TaskName": "motor",
  "TotalReadoutTime": 0.0534586,
  "TxRefAmp": 208.882,
  "dcmmeta_affine": [
    [-1.998084306716919, 0.006974524352699518, 0.08723877370357513, 98.6962661743164],
    [0.006981168873608112, 1.9999878406524658, 4.008798182297824e-09, -89.58219909667969],
    [0.08723824471235275, -0.0003045183257199824, 1.9980964660644531, -67.20519256591797],
    [0.0, 0.0, 0.0, 1.0]
],
  "dcmmeta_reorient_transform": [
    [0.0, -1.0, 0.0, 99.0],
    [1.0, 0.0, 0.0, 0.0],
    [0.0, 0.0, 1.0, 0.0],
    [0.0, 0.0, 0.0, 1.0]
],
  "dcmmeta_shape": [100, 100, 72, 232],
  "dcmmeta_slice_dim": 2,
  "dcmmeta_version": 0.6,
  "global": {
    "const": {
      "AcquisitionMatrix": [100, 0, 0, 100],
      "AngioFlag": "N",
      "BitsAllocated": 16,
      "BitsStored": 12,
      "BodyPartExamined": "BRAIN",
      "Columns": 900,
      "EchoNumbers": 1,
      "EchoTime": 34.0,
      "EchoTrainLength": 100,
      "FlipAngle": 90.0,
      "HighBit": 11,
      "ImageOrientationPatient": [0.99904213526783, -0.0034905844497, 0.04361912172075, 0.00348726209934, 0.99999390789154, 0.00015225915806],
      "ImagePositionPatient": [-901.4102653492, -905.6192560131, -102.25244286418],
      "ImageType": [
        "ORIGINAL",
        "PRIMARY",
        "M",
        "ND",
        "MOSAIC"
],
      "ImagedNucleus": "1H",
      "ImagingFrequency": 123.257816,
      "InPlanePhaseEncodingDirection": "COL",
      "MRAcquisitionType": "2D",
      "MagneticFieldStrength": 3.0,
      "Manufacturer": "SIEMENS",
      "ManufacturerModelName": "Prisma",
      "Modality": "MR",
      "NumberOfAverages": 1.0,
      "NumberOfPhaseEncodingSteps": 100,
      "PercentPhaseFieldOfView": 100.0,
      "PercentSampling": 100.0,
      "PerformedProcedureStepStartTime": "091723.716000",
      "PhotometricInterpretation": "MONOCHROME2",
      "PixelBandwidth": 2380.0,
      "PixelRepresentation": 0,
      "PixelSpacing": [2.0, 2.0],
      "ProtocolName": "bold_100x100_s3_2x2x2_232",
      "RepetitionTime": 2000.0,
      "Rows": 900,
      "SAR": 0.06386531421987,
      "SamplesPerPixel": 1,
      "ScanOptions": "FS",
      "ScanningSequence": "EP",
      "SequenceName": "*epfid2d1_100",
      "SequenceVariant": "SK",
      "SeriesDescription": "bold_100x100_s3_2x2x2_232",
      "SeriesNumber": 8,
      "SeriesTime": "094932.551000",
      "SliceLocation": -62.836155753905,
      "SliceThickness": 2.0,
      "SmallestImagePixelValue": 0,
      "SoftwareVersions": "syngo MR E11",
      "SpacingBetweenSlices": 1.9999999691846,
      "SpecificCharacterSet": "ISO_IR 100",
      "StudyID": "1",
      "StudyTime": "091723.573000",
      "TransmitCoilName": "Body",
      "VariableFlipAngleFlag": "N",
      "WindowCenterWidthExplanation": "Algo1",
      "dBdt": 0.0},
    "slices": {}
  },
  "time": {
    "samples": {
      "AcquisitionNumber": [1, 2, 3, 4, 5, 6, 7, 8, 9, 10, 11, 12, 13, 14, 15, 16, 17, 18, 19, 20, 21, 22, 23, 24, 25, 26, 27, 28, 29, 30, 31, 32, 33, 34, 35, 36, 37, 38, 39, 40, 41, 42, 43, 44, 45, 46, 47, 48, 49, 50, 51, 52, 53, 54, 55, 56, 57, 58, 59, 60, 61, 62, 63, 64, 65, 66, 67, 68, 69, 70, 71, 72, 73, 74, 75, 76, 77, 78, 79, 80, 81, 82, 83, 84, 85, 86, 87, 88, 89, 90, 91, 92, 93, 94, 95, 96, 97, 98, 99, 100, 101, 102, 103, 104, 105, 106, 107, 108, 109, 110, 111, 112, 113, 114, 115, 116, 117, 118, 119, 120, 121, 122, 123, 124, 125, 126, 127, 128, 129, 130, 131, 132, 133, 134, 135, 136, 137, 138, 139, 140, 141, 142, 143, 144, 145, 146, 147, 148, 149, 150, 151, 152, 153, 154, 155, 156, 157, 158, 159, 160, 161, 162, 163, 164, 165, 166, 167, 168, 169, 170, 171, 172, 173, 174, 175, 176, 177, 178, 179, 180, 181, 182, 183, 184, 185, 186, 187, 188, 189, 190, 191, 192, 193, 194, 195, 196, 197, 198, 199, 200, 201, 202, 203, 204, 205, 206, 207, 208, 209, 210, 211, 212, 213, 214, 215, 216, 217, 218, 219, 220, 221, 222, 223, 224, 225, 226, 227, 228, 229, 230, 231, 232],
      "AcquisitionTime": ["094929.842500", "094931.842500", "094933.842500", "094935.842500", "094937.842500", "094939.842500", "094941.842500", "094943.842500", "094945.842500", "094947.842500", "094949.842500", "094951.842500", "094953.842500", "094955.842500", "094957.842500", "094959.842500", "095001.842500", "095003.842500", "095005.842500", "095007.842500", "095009.842500", "095011.842500", "095013.842500", "095015.842500", "095017.842500", "095019.842500", "095021.842500", "095023.842500", "095025.842500", "095027.842500", "095029.842500", "095031.842500", "095033.842500", "095035.842500", "095037.842500", "095039.842500", "095041.842500", "095043.842500", "095045.842500", "095047.842500", "095049.842500", "095051.842500", "095053.842500", "095055.842500", "095057.842500", "095059.842500", "095101.842500", "095103.842500", "095105.842500", "095107.842500", "095109.842500", "095111.842500", "095113.842500", "095115.842500", "095117.842500", "095119.842500", "095121.842500", "095123.842500", "095125.842500", "095127.842500", "095129.842500", "095131.842500", "095133.842500", "095135.842500", "095137.842500", "095139.842500", "095141.842500", "095143.842500", "095145.842500", "095147.842500", "095149.842500", "095151.842500", "095153.842500", "095155.842500", "095157.842500", "095159.842500", "095201.842500", "095203.842500", "095205.842500", "095207.842500", "095209.842500", "095211.842500", "095213.842500", "095215.842500", "095217.842500", "095219.842500", "095221.842500", "095223.842500", "095225.842500", "095227.842500", "095229.842500", "095231.842500", "095233.842500", "095235.842500", "095237.842500", "095239.842500", "095241.842500", "095243.842500", "095245.842500", "095247.842500", "095249.842500", "095251.842500", "095253.842500", "095255.842500", "095257.842500", "095259.842500", "095301.842500", "095303.842500", "095305.842500", "095307.842500", "095309.842500", "095311.842500", "095313.842500", "095315.842500", "095317.842500", "095319.842500", "095321.842500", "095323.842500", "095325.842500", "095327.842500", "095329.842500", "095331.842500", "095333.842500", "095335.842500", "095337.842500", "095339.842500", "095341.842500", "095343.842500", "095345.842500", "095347.842500", "095349.842500", "095351.842500", "095353.842500", "095355.842500", "095357.842500", "095359.842500", "095401.842500", "095403.842500", "095405.842500", "095407.842500", "095409.842500", "095411.842500", "095413.842500", "095415.842500", "095417.842500", "095419.842500", "095421.842500", "095423.842500", "095425.842500", "095427.842500", "095429.842500", "095431.842500", "095433.842500", "095435.842500", "095437.842500", "095439.842500", "095441.842500", "095443.842500", "095445.842500", "095447.842500", "095449.842500", "095451.842500", "095453.842500", "095455.842500", "095457.842500", "095459.842500", "095501.842500", "095503.842500", "095505.842500", "095507.842500", "095509.842500", "095511.842500", "095513.842500", "095515.842500", "095517.842500", "095519.842500", "095521.842500", "095523.842500", "095525.842500", "095527.842500", "095529.842500", "095531.842500", "095533.842500", "095535.842500", "095537.842500", "095539.842500", "095541.842500", "095543.842500", "095545.842500", "095547.842500", "095549.842500", "095551.842500", "095553.842500", "095555.842500", "095557.842500", "095559.842500", "095601.842500", "095603.842500", "095605.842500", "095607.842500", "095609.842500", "095611.842500", "095613.842500", "095615.842500", "095617.842500", "095619.842500", "095621.842500", "095623.842500", "095625.842500", "095627.842500", "095629.842500", "095631.842500", "095633.842500", "095635.842500", "095637.842500", "095639.842500", "095641.842500", "095643.842500", "095645.842500", "095647.842500", "095649.842500", "095651.842500", "095653.842500", "095655.842500", "095657.842500", "095659.842500", "095701.842500", "095703.842500", "095705.842500", "095707.842500", "095709.842500", "095711.842500"],
      "ContentTime": ["094932.555000", "094934.051000", "094936.051000", "094938.050000", "094940.051000", "094942.050000", "094944.050000", "094946.050000", "094948.051000", "094950.050000", "094952.050000", "094954.050000", "094956.050000", "094958.051000", "095000.050000", "095002.051000", "095004.051000", "095006.050000", "095008.050000", "095010.050000", "095012.050000", "095014.050000", "095016.050000", "095018.050000", "095020.050000", "095022.050000", "095024.050000", "095026.050000", "095028.051000", "095030.050000", "095032.051000", "095034.051000", "095036.051000", "095038.050000", "095040.050000", "095042.051000", "095044.050000", "095046.050000", "095048.050000", "095050.051000", "095052.051000", "095054.049000", "095056.050000", "095058.051000", "095100.051000", "095102.050000", "095104.050000", "095106.051000", "095108.050000", "095110.051000", "095112.050000", "095114.050000", "095116.051000", "095118.050000", "095120.051000", "095122.050000", "095124.050000", "095126.050000", "095128.050000", "095130.051000", "095132.051000", "095134.050000", "095136.050000", "095138.050000", "095140.051000", "095142.050000", "095144.050000", "095146.050000", "095148.050000", "095150.050000", "095152.050000", "095154.050000", "095156.050000", "095158.050000", "095200.050000", "095202.051000", "095204.049000", "095206.050000", "095208.050000", "095210.050000", "095212.050000", "095214.050000", "095216.050000", "095218.050000", "095220.050000", "095222.051000", "095224.050000", "095226.050000", "095228.051000", "095230.050000", "095232.050000", "095234.051000", "095236.050000", "095238.051000", "095240.050000", "095242.050000", "095244.050000", "095246.050000", "095248.051000", "095250.051000", "095252.050000", "095254.050000", "095256.050000", "095258.051000", "095300.051000", "095302.050000", "095304.050000", "095306.051000", "095308.051000", "095310.050000", "095312.051000", "095314.051000", "095316.050000", "095318.050000", "095320.050000", "095322.051000", "095324.051000", "095326.050000", "095328.050000", "095330.050000", "095332.050000", "095334.050000", "095336.050000", "095338.051000", "095340.050000", "095342.051000", "095344.050000", "095346.051000", "095348.050000", "095350.050000", "095352.051000", "095354.051000", "095356.051000", "095358.050000", "095400.051000", "095402.051000", "095404.050000", "095406.050000", "095408.050000", "095410.050000", "095412.051000", "095414.050000", "095416.050000", "095418.051000", "095420.050000", "095422.050000", "095424.050000", "095426.050000", "095428.051000", "095430.050000", "095432.050000", "095434.050000", "095436.050000", "095438.050000", "095440.050000", "095442.051000", "095444.550000", "095446.050000", "095448.051000", "095450.050000", "095452.051000", "095454.050000", "095456.050000", "095458.051000", "095500.050000", "095502.051000", "095504.051000", "095506.051000", "095508.050000", "095510.051000", "095512.051000", "095514.051000", "095516.051000", "095518.050000", "095520.051000", "095522.051000", "095524.050000", "095526.050000", "095528.050000", "095530.051000", "095532.050000", "095534.050000", "095536.050000", "095538.050000", "095540.050000", "095542.050000", "095544.050000", "095546.050000", "095548.051000", "095550.050000", "095552.050000", "095554.050000", "095556.050000", "095558.051000", "095600.050000", "095602.050000", "095604.051000", "095606.051000", "095608.066000", "095610.051000", "095612.050000", "095614.050000", "095616.050000", "095618.051000", "095620.051000", "095622.051000", "095624.050000", "095626.050000", "095628.051000", "095630.050000", "095632.051000", "095634.051000", "095636.050000", "095638.050000", "095640.051000", "095642.050000", "095644.051000", "095646.050000", "095648.051000", "095650.051000", "095652.051000", "095654.051000", "095656.050000", "095658.050000", "095700.051000", "095702.051000", "095704.050000", "095706.050000", "095708.051000", "095710.051000", "095712.050000", "095713.874000"],
      "InstanceCreationTime": ["094932.555000", "094934.051000", "094936.051000", "094938.050000", "094940.051000", "094942.050000", "094944.050000", "094946.050000", "094948.051000", "094950.050000", "094952.050000", "094954.050000", "094956.050000", "094958.051000", "095000.050000", "095002.051000", "095004.051000", "095006.050000", "095008.050000", "095010.050000", "095012.050000", "095014.050000", "095016.050000", "095018.050000", "095020.050000", "095022.050000", "095024.050000", "095026.050000", "095028.051000", "095030.050000", "095032.051000", "095034.051000", "095036.051000", "095038.050000", "095040.050000", "095042.051000", "095044.050000", "095046.050000", "095048.050000", "095050.051000", "095052.051000", "095054.049000", "095056.050000", "095058.051000", "095100.051000", "095102.050000", "095104.050000", "095106.051000", "095108.050000", "095110.051000", "095112.050000", "095114.050000", "095116.051000", "095118.050000", "095120.051000", "095122.050000", "095124.050000", "095126.050000", "095128.050000", "095130.051000", "095132.051000", "095134.050000", "095136.050000", "095138.050000", "095140.051000", "095142.050000", "095144.050000", "095146.050000", "095148.050000", "095150.050000", "095152.050000", "095154.050000", "095156.050000", "095158.050000", "095200.050000", "095202.051000", "095204.049000", "095206.050000", "095208.050000", "095210.050000", "095212.050000", "095214.050000", "095216.050000", "095218.050000", "095220.050000", "095222.051000", "095224.050000", "095226.050000", "095228.051000", "095230.050000", "095232.050000", "095234.051000", "095236.050000", "095238.051000", "095240.050000", "095242.050000", "095244.050000", "095246.050000", "095248.051000", "095250.051000", "095252.050000", "095254.050000", "095256.050000", "095258.051000", "095300.051000", "095302.050000", "095304.050000", "095306.051000", "095308.051000", "095310.050000", "095312.051000", "095314.051000", "095316.050000", "095318.050000", "095320.050000", "095322.051000", "095324.051000", "095326.050000", "095328.050000", "095330.050000", "095332.050000", "095334.050000", "095336.050000", "095338.051000", "095340.050000", "095342.051000", "095344.050000", "095346.051000", "095348.050000", "095350.050000", "095352.051000", "095354.051000", "095356.051000", "095358.050000", "095400.051000", "095402.051000", "095404.050000", "095406.050000", "095408.050000", "095410.050000", "095412.051000", "095414.050000", "095416.050000", "095418.051000", "095420.050000", "095422.050000", "095424.050000", "095426.050000", "095428.051000", "095430.050000", "095432.050000", "095434.050000", "095436.050000", "095438.050000", "095440.050000", "095442.051000", "095444.550000", "095446.050000", "095448.051000", "095450.050000", "095452.051000", "095454.050000", "095456.050000", "095458.051000", "095500.050000", "095502.051000", "095504.051000", "095506.051000", "095508.050000", "095510.051000", "095512.051000", "095514.051000", "095516.051000", "095518.050000", "095520.051000", "095522.051000", "095524.050000", "095526.050000", "095528.050000", "095530.051000", "095532.050000", "095534.050000", "095536.050000", "095538.050000", "095540.050000", "095542.050000", "095544.050000", "095546.050000", "095548.051000", "095550.050000", "095552.050000", "095554.050000", "095556.050000", "095558.051000", "095600.050000", "095602.050000", "095604.051000", "095606.051000", "095608.066000", "095610.051000", "095612.050000", "095614.050000", "095616.050000", "095618.051000", "095620.051000", "095622.051000", "095624.050000", "095626.050000", "095628.051000", "095630.050000", "095632.051000", "095634.051000", "095636.050000", "095638.050000", "095640.051000", "095642.050000", "095644.051000", "095646.050000", "095648.051000", "095650.051000", "095652.051000", "095654.051000", "095656.050000", "095658.050000", "095700.051000", "095702.051000", "095704.050000", "095706.050000", "095708.051000", "095710.051000", "095712.050000", "095713.874000"],
      "InstanceNumber": [1, 2, 3, 4, 5, 6, 7, 8, 9, 10, 11, 12, 13, 14, 15, 16, 17, 18, 19, 20, 21, 22, 23, 24, 25, 26, 27, 28, 29, 30, 31, 32, 33, 34, 35, 36, 37, 38, 39, 40, 41, 42, 43, 44, 45, 46, 47, 48, 49, 50, 51, 52, 53, 54, 55, 56, 57, 58, 59, 60, 61, 62, 63, 64, 65, 66, 67, 68, 69, 70, 71, 72, 73, 74, 75, 76, 77, 78, 79, 80, 81, 82, 83, 84, 85, 86, 87, 88, 89, 90, 91, 92, 93, 94, 95, 96, 97, 98, 99, 100, 101, 102, 103, 104, 105, 106, 107, 108, 109, 110, 111, 112, 113, 114, 115, 116, 117, 118, 119, 120, 121, 122, 123, 124, 125, 126, 127, 128, 129, 130, 131, 132, 133, 134, 135, 136, 137, 138, 139, 140, 141, 142, 143, 144, 145, 146, 147, 148, 149, 150, 151, 152, 153, 154, 155, 156, 157, 158, 159, 160, 161, 162, 163, 164, 165, 166, 167, 168, 169, 170, 171, 172, 173, 174, 175, 176, 177, 178, 179, 180, 181, 182, 183, 184, 185, 186, 187, 188, 189, 190, 191, 192, 193, 194, 195, 196, 197, 198, 199, 200, 201, 202, 203, 204, 205, 206, 207, 208, 209, 210, 211, 212, 213, 214, 215, 216, 217, 218, 219, 220, 221, 222, 223, 224, 225, 226, 227, 228, 229, 230, 231, 232],
      "LargestImagePixelValue": [2845, 2833, 2811, 2802, 2794, 2805, 2781, 2759, 2776, 2786, 2775, 2777, 2791, 2755, 2767, 2767, 2780, 2833, 2801, 2794, 2804, 2793, 2759, 2843, 2811, 2800, 2843, 2817, 2841, 2765, 2786, 2763, 2791, 2739, 2756, 2763, 2797, 2824, 2794, 2759, 2786, 2800, 2842, 2803, 2803, 2763, 2806, 2814, 2796, 2799, 2823, 2807, 2804, 2774, 2742, 2777, 2754, 2770, 2777, 2784, 2797, 2794, 2757, 2757, 2797, 2790, 2772, 2784, 2747, 2793, 2807, 2809, 2781, 2790, 2791, 2764, 2794, 2779, 2833, 2811, 2798, 2820, 2805, 2779, 2798, 2780, 2793, 2793, 2763, 2760, 2775, 2800, 2795, 2760, 2737, 2759, 2749, 2779, 2786, 2754, 2895, 2815, 2771, 2830, 2771, 2826, 2817, 2757, 2862, 2756, 2788, 2739, 2765, 2774, 2799, 2782, 2741, 2727, 2781, 2758, 2757, 2807, 2751, 2765, 2731, 2778, 2758, 2774, 2763, 2777, 2751, 2844, 2713, 2739, 2759, 2769, 2727, 2747, 2734, 2730, 2749, 2747, 2734, 2731, 2741, 2809, 2818, 2836, 2795, 2870, 2813, 2805, 2760, 2700, 2705, 2701, 2715, 2705, 2727, 2689, 2706, 2736, 2910, 2768, 2743, 2783, 2721, 2717, 2691, 2711, 2725, 2754, 2698, 2691, 2677, 2708, 2724, 2705, 2705, 2711, 2667, 2683, 2696, 2679, 2690, 2688, 2760, 2727, 2719, 2722, 2700, 2711, 2666, 2685, 2664, 2677, 2665, 2700, 2710, 2708, 2710, 2757, 2713, 2893, 2784, 2681, 2788, 2750, 2692, 2692, 2663, 2712, 2729, 2699, 2700, 2736, 2693, 2713, 2726, 2726, 2719, 2698, 2725, 2708, 2728, 2720, 2709, 2716, 2698, 2693, 2690, 2695],
      "WindowCenter": [752.0, 750.0, 750.0, 749.0, 750.0, 750.0, 750.0, 750.0, 751.0, 751.0, 752.0, 751.0, 750.0, 749.0, 748.0, 748.0, 748.0, 749.0, 750.0, 752.0, 752.0, 752.0, 751.0, 752.0, 751.0, 750.0, 750.0, 752.0, 749.0, 750.0, 748.0, 750.0, 749.0, 750.0, 751.0, 752.0, 752.0, 752.0, 751.0, 751.0, 752.0, 752.0, 752.0, 751.0, 751.0, 752.0, 751.0, 752.0, 752.0, 751.0, 751.0, 751.0, 751.0, 751.0, 750.0, 751.0, 751.0, 752.0, 752.0, 752.0, 751.0, 751.0, 750.0, 750.0, 750.0, 750.0, 750.0, 750.0, 750.0, 751.0, 751.0, 751.0, 751.0, 750.0, 750.0, 750.0, 751.0, 751.0, 752.0, 751.0, 751.0, 753.0, 751.0, 751.0, 750.0, 750.0, 752.0, 752.0, 749.0, 748.0, 749.0, 750.0, 750.0, 751.0, 751.0, 752.0, 751.0, 752.0, 754.0, 752.0, 754.0, 752.0, 751.0, 751.0, 750.0, 750.0, 749.0, 746.0, 749.0, 747.0, 747.0, 746.0, 747.0, 748.0, 749.0, 750.0, 748.0, 749.0, 749.0, 748.0, 747.0, 749.0, 750.0, 750.0, 749.0, 749.0, 749.0, 749.0, 750.0, 750.0, 749.0, 751.0, 750.0, 749.0, 749.0, 749.0, 748.0, 747.0, 747.0, 747.0, 747.0, 748.0, 749.0, 748.0, 749.0, 751.0, 753.0, 754.0, 753.0, 753.0, 752.0, 751.0, 751.0, 750.0, 749.0, 748.0, 749.0, 749.0, 749.0, 748.0, 748.0, 747.0, 750.0, 748.0, 749.0, 750.0, 748.0, 747.0, 748.0, 748.0, 749.0, 749.0, 747.0, 745.0, 745.0, 746.0, 747.0, 747.0, 747.0, 746.0, 746.0, 746.0, 747.0, 748.0, 748.0, 748.0, 749.0, 749.0, 748.0, 748.0, 748.0, 749.0, 747.0, 747.0, 746.0, 747.0, 748.0, 749.0, 750.0, 750.0, 750.0, 750.0, 747.0, 750.0, 748.0, 744.0, 747.0, 748.0, 747.0, 747.0, 747.0, 748.0, 749.0, 749.0, 749.0, 749.0, 749.0, 749.0, 749.0, 749.0, 747.0, 747.0, 748.0, 748.0, 749.0, 749.0, 749.0, 750.0, 749.0, 747.0, 746.0, 746.0],
      "WindowWidth": [1614.0, 1610.0, 1608.0, 1606.0, 1608.0, 1609.0, 1608.0, 1608.0, 1613.0, 1611.0, 1613.0, 1611.0, 1610.0, 1607.0, 1605.0, 1604.0, 1605.0, 1608.0, 1610.0, 1614.0, 1615.0, 1615.0, 1612.0, 1614.0, 1611.0, 1611.0, 1611.0, 1613.0, 1608.0, 1609.0, 1604.0, 1610.0, 1607.0, 1609.0, 1613.0, 1616.0, 1615.0, 1614.0, 1614.0, 1613.0, 1615.0, 1615.0, 1615.0, 1613.0, 1613.0, 1614.0, 1613.0, 1614.0, 1614.0, 1613.0, 1613.0, 1612.0, 1612.0, 1612.0, 1611.0, 1612.0, 1612.0, 1614.0, 1616.0, 1615.0, 1613.0, 1612.0, 1609.0, 1608.0, 1609.0, 1610.0, 1607.0, 1610.0, 1610.0, 1613.0, 1613.0, 1612.0, 1610.0, 1609.0, 1609.0, 1610.0, 1613.0, 1613.0, 1613.0, 1612.0, 1613.0, 1616.0, 1613.0, 1611.0, 1610.0, 1610.0, 1614.0, 1613.0, 1608.0, 1605.0, 1606.0, 1609.0, 1609.0, 1611.0, 1612.0, 1614.0, 1612.0, 1614.0, 1619.0, 1614.0, 1618.0, 1615.0, 1613.0, 1612.0, 1609.0, 1608.0, 1607.0, 1598.0, 1607.0, 1601.0, 1601.0, 1599.0, 1601.0, 1605.0, 1608.0, 1608.0, 1605.0, 1605.0, 1606.0, 1604.0, 1602.0, 1607.0, 1608.0, 1609.0, 1606.0, 1606.0, 1605.0, 1608.0, 1609.0, 1610.0, 1608.0, 1613.0, 1609.0, 1607.0, 1606.0, 1606.0, 1603.0, 1602.0, 1600.0, 1602.0, 1602.0, 1605.0, 1606.0, 1604.0, 1607.0, 1612.0, 1617.0, 1619.0, 1616.0, 1617.0, 1614.0, 1612.0, 1612.0, 1608.0, 1607.0, 1603.0, 1605.0, 1606.0, 1607.0, 1603.0, 1603.0, 1602.0, 1609.0, 1605.0, 1606.0, 1609.0, 1605.0, 1602.0, 1603.0, 1602.0, 1605.0, 1606.0, 1600.0, 1596.0, 1597.0, 1598.0, 1602.0, 1602.0, 1601.0, 1599.0, 1598.0, 1600.0, 1602.0, 1603.0, 1602.0, 1602.0, 1605.0, 1606.0, 1604.0, 1603.0, 1604.0, 1605.0, 1601.0, 1600.0, 1598.0, 1600.0, 1603.0, 1607.0, 1609.0, 1608.0, 1608.0, 1609.0, 1602.0, 1609.0, 1605.0, 1594.0, 1602.0, 1603.0, 1600.0, 1600.0, 1600.0, 1604.0, 1606.0, 1605.0, 1605.0, 1606.0, 1605.0, 1607.0, 1607.0, 1605.0, 1601.0, 1602.0, 1604.0, 1604.0, 1606.0, 1607.0, 1607.0, 1609.0, 1606.0, 1600.0, 1599.0, 1598.0]
    },
    "slices": {}
  }
}