{
  "AcquisitionMatrixPE": 100,
  "AcquisitionNumber": 1,
  "AcquisitionTime": "09:37:31.930000",
  "BandwidthPerPixelPhaseEncode": 18.519,
  "BaseResolution": 100,
  "BodyPartExamined": "BRAIN",
  "ConsistencyInfo": "N4_VE11C_LATEST_20160120",
  "ConversionSoftware": "dcm2niix",
  "ConversionSoftwareVersion": "v1.0.20180622 GCC4.9.2",
  "DerivedVendorReportedEchoSpacing": 0.000539986,
  "DeviceSerialNumber": "166078",
  "DwellTime": 2.1e-06,
  "EchoTime": 0.034,
  "EchoTrainLength": 100,
  "EffectiveEchoSpacing": 0.000539986,
  "FlipAngle": 90,
  "ImageOrientationPatientDICOM": [0.999042, -0.00349058, 0.0436191, 0.00348726, 0.999994, 0.000152259],
  "ImageType": [
    "ORIGINAL",
    "PRIMARY",
    "M",
    "ND",
    "MOSAIC"
],
  "InPlanePhaseEncodingDirectionDICOM": "COL",
  "InstitutionAddress": "Street_StreetNo_Bei_Jing_District_CN_ZIP",
  "InstitutionName": "BeiJing_Normal_University",
  "InstitutionalDepartmentName": "Department",
  "MRAcquisitionType": "2D",
  "MagneticFieldStrength": 3,
  "Manufacturer": "Siemens",
  "ManufacturersModelName": "Prisma",
  "Modality": "MR",
  "MultibandAccelerationFactor": 3,
  "PartialFourier": 1,
  "PatientPosition": "HFS",
  "PercentPhaseFOV": 100,
  "PhaseEncodingDirection": "j-",
  "PhaseEncodingSteps": 100,
  "PhaseResolution": 1,
  "PixelBandwidth": 2380,
  "ProcedureStepDescription": "BNU_P2018_64CH_Liu.Jia",
  "ProtocolName": "bold_100x100_s3_2x2x2_232",
  "PulseSequenceDetails": "%SiemensSeq%_ep2d_bold",
  "ReceiveCoilActiveElements": "HC1-7;NC1",
  "ReceiveCoilName": "HeadNeck_64",
  "ReconMatrixPE": 100,
  "RepetitionTime": 2,
  "SAR": 0.0638653,
  "ScanOptions": "FS",
  "ScanningSequence": "EP",
  "SequenceName": "_epfid2d1_100",
  "SequenceVariant": "SK",
  "SeriesDescription": "bold_100x100_s3_2x2x2_232",
  "SeriesNumber": 5,
  "ShimSetting": [-5459, -11528, -1282, 370, -46, -220, -133, 20],
  "SliceThickness": 2,
  "SliceTiming": [1.485, 0, 0.99, 0.0825, 1.0725, 0.165, 1.155, 0.2475, 1.2375, 0.33, 1.32, 0.4125, 1.4025, 0.5775, 1.5675, 0.66, 1.65, 0.7425, 1.7325, 0.825, 1.815, 0.9075, 1.8975, 0.495, 1.485, 0, 0.99, 0.0825, 1.0725, 0.165, 1.155, 0.2475, 1.2375, 0.33, 1.32, 0.4125, 1.4025, 0.5775, 1.5675, 0.66, 1.65, 0.7425, 1.7325, 0.825, 1.815, 0.9075, 1.8975, 0.495, 1.485, 0, 0.99, 0.0825, 1.0725, 0.165, 1.155, 0.2475, 1.2375, 0.33, 1.32, 0.4125, 1.4025, 0.5775, 1.5675, 0.66, 1.65, 0.7425, 1.7325, 0.825, 1.815, 0.9075, 1.8975, 0.495],
  "SoftwareVersions": "syngo_MR_E11",
  "SpacingBetweenSlices": 2,
  "StationName": "AWP166078",
  "TaskName": "motor",
  "TotalReadoutTime": 0.0534586,
  "TxRefAmp": 208.882,
  "dcmmeta_affine": [
    [-1.998084306716919, 0.006974524352699518, 0.08723877370357513, 98.6962661743164],
    [0.006981168873608112, 1.9999878406524658, 4.008798182297824e-09, -89.58219909667969],
    [0.08723824471235275, -0.0003045183257199824, 1.9980964660644531, -67.20519256591797],
    [0.0, 0.0, 0.0, 1.0]
],
  "dcmmeta_reorient_transform": [
    [0.0, -1.0, 0.0, 99.0],
    [1.0, 0.0, 0.0, 0.0],
    [0.0, 0.0, 1.0, 0.0],
    [0.0, 0.0, 0.0, 1.0]
],
  "dcmmeta_shape": [100, 100, 72, 232],
  "dcmmeta_slice_dim": 2,
  "dcmmeta_version": 0.6,
  "global": {
    "const": {
      "AcquisitionMatrix": [100, 0, 0, 100],
      "AngioFlag": "N",
      "BitsAllocated": 16,
      "BitsStored": 12,
      "BodyPartExamined": "BRAIN",
      "Columns": 900,
      "EchoNumbers": 1,
      "EchoTime": 34.0,
      "EchoTrainLength": 100,
      "FlipAngle": 90.0,
      "HighBit": 11,
      "ImageOrientationPatient": [0.99904213526783, -0.0034905844497, 0.04361912172075, 0.00348726209934, 0.99999390789154, 0.00015225915806],
      "ImagePositionPatient": [-901.4102653492, -905.6192560131, -102.25244286418],
      "ImageType": [
        "ORIGINAL",
        "PRIMARY",
        "M",
        "ND",
        "MOSAIC"
],
      "ImagedNucleus": "1H",
      "ImagingFrequency": 123.257816,
      "InPlanePhaseEncodingDirection": "COL",
      "MRAcquisitionType": "2D",
      "MagneticFieldStrength": 3.0,
      "Manufacturer": "SIEMENS",
      "ManufacturerModelName": "Prisma",
      "Modality": "MR",
      "NumberOfAverages": 1.0,
      "NumberOfPhaseEncodingSteps": 100,
      "PercentPhaseFieldOfView": 100.0,
      "PercentSampling": 100.0,
      "PerformedProcedureStepStartTime": "091723.716000",
      "PhotometricInterpretation": "MONOCHROME2",
      "PixelBandwidth": 2380.0,
      "PixelRepresentation": 0,
      "PixelSpacing": [2.0, 2.0],
      "ProtocolName": "bold_100x100_s3_2x2x2_232",
      "RepetitionTime": 2000.0,
      "Rows": 900,
      "SAR": 0.06386531421987,
      "SamplesPerPixel": 1,
      "ScanOptions": "FS",
      "ScanningSequence": "EP",
      "SequenceName": "*epfid2d1_100",
      "SequenceVariant": "SK",
      "SeriesDescription": "bold_100x100_s3_2x2x2_232",
      "SeriesNumber": 5,
      "SeriesTime": "093734.668000",
      "SliceLocation": -62.836155753905,
      "SliceThickness": 2.0,
      "SmallestImagePixelValue": 0,
      "SoftwareVersions": "syngo MR E11",
      "SpacingBetweenSlices": 1.9999999691846,
      "SpecificCharacterSet": "ISO_IR 100",
      "StudyID": "1",
      "StudyTime": "091723.573000",
      "TransmitCoilName": "Body",
      "VariableFlipAngleFlag": "N",
      "WindowCenterWidthExplanation": "Algo1",
      "dBdt": 0.0},
    "slices": {}
  },
  "time": {
    "samples": {
      "AcquisitionNumber": [1, 2, 3, 4, 5, 6, 7, 8, 9, 10, 11, 12, 13, 14, 15, 16, 17, 18, 19, 20, 21, 22, 23, 24, 25, 26, 27, 28, 29, 30, 31, 32, 33, 34, 35, 36, 37, 38, 39, 40, 41, 42, 43, 44, 45, 46, 47, 48, 49, 50, 51, 52, 53, 54, 55, 56, 57, 58, 59, 60, 61, 62, 63, 64, 65, 66, 67, 68, 69, 70, 71, 72, 73, 74, 75, 76, 77, 78, 79, 80, 81, 82, 83, 84, 85, 86, 87, 88, 89, 90, 91, 92, 93, 94, 95, 96, 97, 98, 99, 100, 101, 102, 103, 104, 105, 106, 107, 108, 109, 110, 111, 112, 113, 114, 115, 116, 117, 118, 119, 120, 121, 122, 123, 124, 125, 126, 127, 128, 129, 130, 131, 132, 133, 134, 135, 136, 137, 138, 139, 140, 141, 142, 143, 144, 145, 146, 147, 148, 149, 150, 151, 152, 153, 154, 155, 156, 157, 158, 159, 160, 161, 162, 163, 164, 165, 166, 167, 168, 169, 170, 171, 172, 173, 174, 175, 176, 177, 178, 179, 180, 181, 182, 183, 184, 185, 186, 187, 188, 189, 190, 191, 192, 193, 194, 195, 196, 197, 198, 199, 200, 201, 202, 203, 204, 205, 206, 207, 208, 209, 210, 211, 212, 213, 214, 215, 216, 217, 218, 219, 220, 221, 222, 223, 224, 225, 226, 227, 228, 229, 230, 231, 232],
      "AcquisitionTime": ["093731.930000", "093733.930000", "093735.930000", "093737.930000", "093739.930000", "093741.930000", "093743.930000", "093745.930000", "093747.930000", "093749.930000", "093751.930000", "093753.930000", "093755.930000", "093757.930000", "093759.930000", "093801.930000", "093803.930000", "093805.930000", "093807.930000", "093809.930000", "093811.930000", "093813.930000", "093815.930000", "093817.930000", "093819.930000", "093821.930000", "093823.930000", "093825.930000", "093827.930000", "093829.930000", "093831.930000", "093833.930000", "093835.930000", "093837.930000", "093839.930000", "093841.930000", "093843.930000", "093845.930000", "093847.930000", "093849.930000", "093851.930000", "093853.930000", "093855.930000", "093857.930000", "093859.930000", "093901.930000", "093903.930000", "093905.930000", "093907.930000", "093909.930000", "093911.930000", "093913.930000", "093915.930000", "093917.930000", "093919.930000", "093921.930000", "093923.930000", "093925.930000", "093927.930000", "093929.930000", "093931.930000", "093933.930000", "093935.930000", "093937.930000", "093939.930000", "093941.930000", "093943.930000", "093945.930000", "093947.930000", "093949.930000", "093951.930000", "093953.930000", "093955.930000", "093957.930000", "093959.930000", "094001.930000", "094003.930000", "094005.930000", "094007.930000", "094009.930000", "094011.930000", "094013.930000", "094015.930000", "094017.930000", "094019.930000", "094021.930000", "094023.930000", "094025.930000", "094027.930000", "094029.930000", "094031.930000", "094033.930000", "094035.930000", "094037.930000", "094039.930000", "094041.930000", "094043.930000", "094045.930000", "094047.930000", "094049.930000", "094051.930000", "094053.930000", "094055.930000", "094057.930000", "094059.930000", "094101.930000", "094103.930000", "094105.930000", "094107.930000", "094109.930000", "094111.930000", "094113.930000", "094115.930000", "094117.930000", "094119.930000", "094121.930000", "094123.930000", "094125.930000", "094127.930000", "094129.930000", "094131.930000", "094133.930000", "094135.930000", "094137.930000", "094139.930000", "094141.930000", "094143.930000", "094145.930000", "094147.930000", "094149.930000", "094151.930000", "094153.930000", "094155.930000", "094157.930000", "094159.930000", "094201.930000", "094203.930000", "094205.930000", "094207.930000", "094209.930000", "094211.930000", "094213.930000", "094215.930000", "094217.930000", "094219.930000", "094221.930000", "094223.930000", "094225.930000", "094227.930000", "094229.930000", "094231.930000", "094233.930000", "094235.930000", "094237.930000", "094239.930000", "094241.930000", "094243.930000", "094245.930000", "094247.930000", "094249.930000", "094251.930000", "094253.930000", "094255.930000", "094257.930000", "094259.930000", "094301.930000", "094303.930000", "094305.930000", "094307.930000", "094309.930000", "094311.930000", "094313.930000", "094315.930000", "094317.930000", "094319.930000", "094321.930000", "094323.930000", "094325.930000", "094327.930000", "094329.930000", "094331.930000", "094333.930000", "094335.930000", "094337.930000", "094339.930000", "094341.930000", "094343.930000", "094345.930000", "094347.930000", "094349.930000", "094351.930000", "094353.930000", "094355.930000", "094357.930000", "094359.930000", "094401.930000", "094403.930000", "094405.930000", "094407.930000", "094409.930000", "094411.930000", "094413.930000", "094415.930000", "094417.930000", "094419.930000", "094421.930000", "094423.930000", "094425.930000", "094427.930000", "094429.930000", "094431.930000", "094433.930000", "094435.930000", "094437.930000", "094439.930000", "094441.930000", "094443.930000", "094445.930000", "094447.930000", "094449.930000", "094451.930000", "094453.930000", "094455.930000", "094457.930000", "094459.930000", "094501.930000", "094503.930000", "094505.930000", "094507.930000", "094509.930000", "094511.930000", "094513.930000"],
      "ContentTime": ["093734.672000", "093735.668000", "093737.667000", "093739.668000", "093741.666000", "093743.667000", "093745.667000", "093747.667000", "093749.667000", "093751.667000", "093753.667000", "093755.667000", "093757.667000", "093759.666000", "093801.666000", "093803.667000", "093805.667000", "093807.668000", "093809.668000", "093811.667000", "093814.167000", "093815.667000", "093817.667000", "093819.667000", "093821.666000", "093823.667000", "093825.667000", "093827.668000", "093829.667000", "093831.667000", "093834.167000", "093835.666000", "093837.666000", "093839.666000", "093841.667000", "093843.667000", "093845.667000", "093847.668000", "093849.667000", "093851.667000", "093853.667000", "093855.666000", "093857.667000", "093859.668000", "093901.667000", "093903.668000", "093905.667000", "093907.668000", "093909.667000", "093911.666000", "093913.667000", "093915.667000", "093917.667000", "093919.667000", "093921.667000", "093924.167000", "093925.667000", "093927.666000", "093929.666000", "093931.667000", "093934.168000", "093935.667000", "093937.668000", "093939.667000", "093941.667000", "093943.666000", "093946.166000", "093947.666000", "093949.667000", "093951.667000", "093953.667000", "093955.667000", "093957.667000", "093959.667000", "094002.167000", "094003.667000", "094005.666000", "094007.667000", "094009.667000", "094011.667000", "094013.667000", "094015.667000", "094017.668000", "094019.666000", "094021.666000", "094023.666000", "094025.667000", "094027.667000", "094029.667000", "094031.667000", "094034.168000", "094035.667000", "094037.666000", "094039.667000", "094041.667000", "094043.668000", "094046.167000", "094047.667000", "094049.668000", "094052.168000", "094053.667000", "094055.667000", "094058.166000", "094059.666000", "094101.667000", "094103.668000", "094105.667000", "094107.668000", "094109.667000", "094111.666000", "094113.666000", "094115.666000", "094117.668000", "094119.668000", "094121.667000", "094123.668000", "094125.667000", "094128.168000", "094129.666000", "094131.666000", "094133.666000", "094135.668000", "094137.668000", "094139.667000", "094141.667000", "094143.667000", "094145.667000", "094147.666000", "094149.667000", "094152.167000", "094153.667000", "094155.667000", "094158.167000", "094159.668000", "094201.667000", "094203.667000", "094205.666000", "094207.667000", "094209.668000", "094211.667000", "094213.668000", "094215.668000", "094217.667000", "094219.667000", "094221.666000", "094223.667000", "094225.667000", "094227.667000", "094230.167000", "094231.668000", "094233.668000", "094235.668000", "094237.668000", "094239.666000", "094241.666000", "094243.666000", "094246.167000", "094247.668000", "094249.667000", "094251.668000", "094253.667000", "094256.167000", "094257.666000", "094259.667000", "094301.666000", "094303.667000", "094305.668000", "094307.668000", "094309.667000", "094311.667000", "094313.666000", "094315.666000", "094317.666000", "094319.667000", "094321.668000", "094323.667000", "094325.667000", "094327.667000", "094329.668000", "094331.666000", "094334.166000", "094335.667000", "094337.667000", "094339.667000", "094341.667000", "094343.667000", "094345.667000", "094347.668000", "094350.167000", "094351.666000", "094353.666000", "094355.667000", "094357.668000", "094359.667000", "094401.668000", "094403.668000", "094405.667000", "094407.666000", "094409.667000", "094411.666000", "094413.667000", "094415.667000", "094417.668000", "094419.668000", "094421.668000", "094423.667000", "094425.667000", "094427.667000", "094429.667000", "094431.668000", "094433.667000", "094435.668000", "094437.668000", "094439.668000", "094441.666000", "094444.167000", "094445.666000", "094447.668000", "094449.668000", "094451.667000", "094453.668000", "094455.667000", "094457.667000", "094459.667000", "094501.667000", "094503.666000", "094505.668000", "094507.667000", "094509.667000", "094511.668000", "094513.668000", "094515.565000"],
      "InstanceCreationTime": ["093734.672000", "093735.668000", "093737.667000", "093739.668000", "093741.666000", "093743.667000", "093745.667000", "093747.667000", "093749.667000", "093751.667000", "093753.667000", "093755.667000", "093757.667000", "093759.666000", "093801.666000", "093803.667000", "093805.667000", "093807.668000", "093809.668000", "093811.667000", "093814.167000", "093815.667000", "093817.667000", "093819.667000", "093821.666000", "093823.667000", "093825.667000", "093827.668000", "093829.667000", "093831.667000", "093834.167000", "093835.666000", "093837.666000", "093839.666000", "093841.667000", "093843.667000", "093845.667000", "093847.668000", "093849.667000", "093851.667000", "093853.667000", "093855.666000", "093857.667000", "093859.668000", "093901.667000", "093903.668000", "093905.667000", "093907.668000", "093909.667000", "093911.666000", "093913.667000", "093915.667000", "093917.667000", "093919.667000", "093921.667000", "093924.167000", "093925.667000", "093927.666000", "093929.666000", "093931.667000", "093934.168000", "093935.667000", "093937.668000", "093939.667000", "093941.667000", "093943.666000", "093946.166000", "093947.666000", "093949.667000", "093951.667000", "093953.667000", "093955.667000", "093957.667000", "093959.667000", "094002.167000", "094003.667000", "094005.666000", "094007.667000", "094009.667000", "094011.667000", "094013.667000", "094015.667000", "094017.668000", "094019.666000", "094021.666000", "094023.666000", "094025.667000", "094027.667000", "094029.667000", "094031.667000", "094034.168000", "094035.667000", "094037.666000", "094039.667000", "094041.667000", "094043.668000", "094046.167000", "094047.667000", "094049.668000", "094052.168000", "094053.667000", "094055.667000", "094058.166000", "094059.666000", "094101.667000", "094103.668000", "094105.667000", "094107.668000", "094109.667000", "094111.666000", "094113.666000", "094115.666000", "094117.668000", "094119.668000", "094121.667000", "094123.668000", "094125.667000", "094128.168000", "094129.666000", "094131.666000", "094133.666000", "094135.668000", "094137.668000", "094139.667000", "094141.667000", "094143.667000", "094145.667000", "094147.666000", "094149.667000", "094152.167000", "094153.667000", "094155.667000", "094158.167000", "094159.668000", "094201.667000", "094203.667000", "094205.666000", "094207.667000", "094209.668000", "094211.667000", "094213.668000", "094215.668000", "094217.667000", "094219.667000", "094221.666000", "094223.667000", "094225.667000", "094227.667000", "094230.167000", "094231.668000", "094233.668000", "094235.668000", "094237.668000", "094239.666000", "094241.666000", "094243.666000", "094246.167000", "094247.668000", "094249.667000", "094251.668000", "094253.667000", "094256.167000", "094257.666000", "094259.667000", "094301.666000", "094303.667000", "094305.668000", "094307.668000", "094309.667000", "094311.667000", "094313.666000", "094315.666000", "094317.666000", "094319.667000", "094321.668000", "094323.667000", "094325.667000", "094327.667000", "094329.668000", "094331.666000", "094334.166000", "094335.667000", "094337.667000", "094339.667000", "094341.667000", "094343.667000", "094345.667000", "094347.668000", "094350.167000", "094351.666000", "094353.666000", "094355.667000", "094357.668000", "094359.667000", "094401.668000", "094403.668000", "094405.667000", "094407.666000", "094409.667000", "094411.666000", "094413.667000", "094415.667000", "094417.668000", "094419.668000", "094421.668000", "094423.667000", "094425.667000", "094427.667000", "094429.667000", "094431.668000", "094433.667000", "094435.668000", "094437.668000", "094439.668000", "094441.666000", "094444.167000", "094445.666000", "094447.668000", "094449.668000", "094451.667000", "094453.668000", "094455.667000", "094457.667000", "094459.667000", "094501.667000", "094503.666000", "094505.668000", "094507.667000", "094509.667000", "094511.668000", "094513.668000", "094515.565000"],
      "InstanceNumber": [1, 2, 3, 4, 5, 6, 7, 8, 9, 10, 11, 12, 13, 14, 15, 16, 17, 18, 19, 20, 21, 22, 23, 24, 25, 26, 27, 28, 29, 30, 31, 32, 33, 34, 35, 36, 37, 38, 39, 40, 41, 42, 43, 44, 45, 46, 47, 48, 49, 50, 51, 52, 53, 54, 55, 56, 57, 58, 59, 60, 61, 62, 63, 64, 65, 66, 67, 68, 69, 70, 71, 72, 73, 74, 75, 76, 77, 78, 79, 80, 81, 82, 83, 84, 85, 86, 87, 88, 89, 90, 91, 92, 93, 94, 95, 96, 97, 98, 99, 100, 101, 102, 103, 104, 105, 106, 107, 108, 109, 110, 111, 112, 113, 114, 115, 116, 117, 118, 119, 120, 121, 122, 123, 124, 125, 126, 127, 128, 129, 130, 131, 132, 133, 134, 135, 136, 137, 138, 139, 140, 141, 142, 143, 144, 145, 146, 147, 148, 149, 150, 151, 152, 153, 154, 155, 156, 157, 158, 159, 160, 161, 162, 163, 164, 165, 166, 167, 168, 169, 170, 171, 172, 173, 174, 175, 176, 177, 178, 179, 180, 181, 182, 183, 184, 185, 186, 187, 188, 189, 190, 191, 192, 193, 194, 195, 196, 197, 198, 199, 200, 201, 202, 203, 204, 205, 206, 207, 208, 209, 210, 211, 212, 213, 214, 215, 216, 217, 218, 219, 220, 221, 222, 223, 224, 225, 226, 227, 228, 229, 230, 231, 232],
      "LargestImagePixelValue": [2882, 2845, 2846, 2818, 2809, 2843, 2802, 2826, 2821, 2812, 2847, 2819, 2809, 2824, 2811, 2839, 2812, 2795, 2814, 2808, 2813, 2853, 2829, 2815, 2821, 2830, 2814, 2829, 2797, 2802, 2808, 2799, 2831, 2800, 2823, 2787, 2811, 2765, 2753, 2772, 2817, 2814, 2790, 2757, 2784, 2815, 2797, 2779, 2746, 2755, 2767, 2777, 2805, 2773, 2773, 2801, 2792, 2768, 2778, 2778, 2793, 2785, 2749, 2798, 2747, 2792, 2781, 2792, 2780, 2771, 2790, 2771, 2756, 2813, 2846, 2757, 2818, 2783, 2833, 2761, 2794, 2764, 2746, 2762, 2754, 2770, 2779, 2790, 2762, 2742, 2737, 2770, 2756, 2752, 2770, 2737, 2729, 2716, 2748, 2758, 2732, 2764, 2732, 2750, 2750, 2713, 2715, 2722, 2814, 2730, 2730, 2718, 2783, 2727, 2737, 2736, 2729, 2721, 2740, 2731, 2736, 2723, 2730, 2721, 2706, 2690, 2699, 2720, 2723, 2724, 2732, 2740, 2745, 2717, 2701, 2759, 2752, 2772, 2741, 2732, 2736, 2762, 2766, 2803, 2741, 2724, 2742, 2739, 2766, 2748, 2732, 2764, 2744, 2800, 2781, 2787, 2820, 2789, 2736, 2925, 2764, 2716, 2759, 2749, 2775, 2752, 2766, 2744, 2771, 2761, 2780, 2751, 2766, 2728, 2733, 2721, 2744, 2764, 2753, 2757, 2743, 2746, 2723, 2725, 2724, 2749, 2759, 2761, 2773, 2763, 2759, 2770, 2781, 2769, 2707, 2765, 2669, 2693, 2741, 2692, 2678, 2648, 2664, 2641, 2728, 2658, 2623, 2645, 2657, 2727, 2657, 2678, 2706, 2684, 2670, 2690, 2701, 2673, 2748, 2746, 2690, 2651, 2629, 2670, 2656, 2649, 2649, 2690, 2689, 2675, 2656, 2637],
      "WindowCenter": [753.0, 752.0, 751.0, 750.0, 750.0, 751.0, 751.0, 752.0, 752.0, 752.0, 754.0, 753.0, 752.0, 752.0, 751.0, 752.0, 751.0, 751.0, 751.0, 751.0, 753.0, 753.0, 753.0, 753.0, 753.0, 753.0, 753.0, 751.0, 751.0, 751.0, 751.0, 751.0, 752.0, 752.0, 753.0, 753.0, 752.0, 751.0, 751.0, 750.0, 750.0, 751.0, 749.0, 749.0, 749.0, 750.0, 750.0, 749.0, 747.0, 749.0, 750.0, 750.0, 751.0, 751.0, 751.0, 752.0, 753.0, 754.0, 755.0, 755.0, 754.0, 754.0, 753.0, 753.0, 753.0, 753.0, 752.0, 752.0, 752.0, 751.0, 751.0, 751.0, 751.0, 752.0, 750.0, 751.0, 749.0, 750.0, 749.0, 747.0, 751.0, 750.0, 750.0, 750.0, 749.0, 749.0, 751.0, 752.0, 752.0, 751.0, 751.0, 751.0, 751.0, 750.0, 752.0, 751.0, 751.0, 750.0, 750.0, 750.0, 749.0, 749.0, 749.0, 749.0, 750.0, 750.0, 752.0, 752.0, 752.0, 751.0, 751.0, 750.0, 751.0, 750.0, 750.0, 749.0, 748.0, 748.0, 748.0, 749.0, 749.0, 748.0, 748.0, 748.0, 748.0, 748.0, 748.0, 748.0, 748.0, 748.0, 749.0, 749.0, 749.0, 749.0, 748.0, 750.0, 749.0, 750.0, 750.0, 750.0, 750.0, 751.0, 751.0, 753.0, 753.0, 751.0, 751.0, 751.0, 750.0, 750.0, 750.0, 750.0, 750.0, 751.0, 749.0, 752.0, 751.0, 750.0, 750.0, 749.0, 749.0, 750.0, 750.0, 750.0, 751.0, 750.0, 750.0, 749.0, 750.0, 751.0, 751.0, 750.0, 750.0, 749.0, 750.0, 749.0, 749.0, 750.0, 750.0, 751.0, 749.0, 749.0, 750.0, 750.0, 750.0, 752.0, 754.0, 754.0, 753.0, 752.0, 751.0, 752.0, 752.0, 752.0, 752.0, 752.0, 750.0, 749.0, 748.0, 748.0, 748.0, 747.0, 747.0, 747.0, 748.0, 746.0, 746.0, 747.0, 748.0, 749.0, 748.0, 749.0, 749.0, 748.0, 748.0, 749.0, 750.0, 750.0, 751.0, 751.0, 750.0, 748.0, 747.0, 748.0, 748.0, 747.0, 747.0, 749.0, 749.0, 748.0, 748.0, 747.0],
      "WindowWidth": [1619.0, 1614.0, 1613.0, 1611.0, 1609.0, 1614.0, 1613.0, 1614.0, 1616.0, 1617.0, 1622.0, 1618.0, 1615.0, 1616.0, 1613.0, 1614.0, 1613.0, 1613.0, 1613.0, 1615.0, 1619.0, 1619.0, 1618.0, 1618.0, 1618.0, 1618.0, 1617.0, 1612.0, 1613.0, 1615.0, 1612.0, 1613.0, 1616.0, 1617.0, 1619.0, 1618.0, 1617.0, 1613.0, 1612.0, 1611.0, 1611.0, 1612.0, 1608.0, 1607.0, 1607.0, 1609.0, 1610.0, 1608.0, 1604.0, 1607.0, 1610.0, 1610.0, 1612.0, 1613.0, 1613.0, 1615.0, 1618.0, 1620.0, 1623.0, 1624.0, 1622.0, 1621.0, 1618.0, 1619.0, 1617.0, 1617.0, 1616.0, 1616.0, 1615.0, 1614.0, 1613.0, 1613.0, 1613.0, 1615.0, 1610.0, 1613.0, 1607.0, 1611.0, 1608.0, 1604.0, 1612.0, 1610.0, 1610.0, 1611.0, 1609.0, 1609.0, 1613.0, 1616.0, 1614.0, 1612.0, 1612.0, 1612.0, 1613.0, 1612.0, 1615.0, 1614.0, 1612.0, 1609.0, 1609.0, 1609.0, 1608.0, 1608.0, 1606.0, 1608.0, 1609.0, 1611.0, 1615.0, 1615.0, 1615.0, 1612.0, 1612.0, 1611.0, 1613.0, 1609.0, 1609.0, 1608.0, 1606.0, 1604.0, 1605.0, 1607.0, 1608.0, 1605.0, 1605.0, 1605.0, 1604.0, 1604.0, 1604.0, 1604.0, 1605.0, 1605.0, 1607.0, 1607.0, 1608.0, 1606.0, 1606.0, 1609.0, 1608.0, 1610.0, 1610.0, 1610.0, 1611.0, 1613.0, 1613.0, 1618.0, 1617.0, 1613.0, 1614.0, 1613.0, 1611.0, 1611.0, 1611.0, 1610.0, 1609.0, 1613.0, 1608.0, 1615.0, 1613.0, 1609.0, 1610.0, 1608.0, 1608.0, 1608.0, 1609.0, 1609.0, 1612.0, 1610.0, 1610.0, 1609.0, 1611.0, 1613.0, 1612.0, 1611.0, 1609.0, 1607.0, 1609.0, 1608.0, 1609.0, 1610.0, 1611.0, 1612.0, 1608.0, 1609.0, 1610.0, 1611.0, 1610.0, 1616.0, 1621.0, 1620.0, 1618.0, 1614.0, 1614.0, 1615.0, 1615.0, 1616.0, 1615.0, 1616.0, 1609.0, 1607.0, 1605.0, 1604.0, 1604.0, 1603.0, 1602.0, 1601.0, 1604.0, 1599.0, 1598.0, 1601.0, 1603.0, 1606.0, 1605.0, 1606.0, 1607.0, 1604.0, 1604.0, 1607.0, 1609.0, 1608.0, 1612.0, 1612.0, 1609.0, 1603.0, 1601.0, 1603.0, 1605.0, 1602.0, 1602.0, 1607.0, 1606.0, 1605.0, 1604.0, 1603.0]
    },
    "slices": {}
  }
}