{
  "AcquisitionMatrixPE": 100,
  "AcquisitionNumber": 1,
  "AcquisitionTime": "11:40:5.232500",
  "BandwidthPerPixelPhaseEncode": 18.519,
  "BaseResolution": 100,
  "BodyPartExamined": "BRAIN",
  "ConsistencyInfo": "N4_VE11C_LATEST_20160120",
  "ConversionSoftware": "dcm2niix",
  "ConversionSoftwareVersion": "v1.0.20180622 GCC4.9.2",
  "DerivedVendorReportedEchoSpacing": 0.000539986,
  "DeviceSerialNumber": "166078",
  "DwellTime": 2.1e-06,
  "EchoTime": 0.034,
  "EchoTrainLength": 100,
  "EffectiveEchoSpacing": 0.000539986,
  "FlipAngle": 90,
  "ImageOrientationPatientDICOM": [0.999451, 0.0030031, 0.0329964, 1.77093e-08, 0.995884, -0.0906388],
  "ImageType": [
    "ORIGINAL",
    "PRIMARY",
    "M",
    "ND",
    "MOSAIC"
],
  "InPlanePhaseEncodingDirectionDICOM": "COL",
  "InstitutionAddress": "Street_StreetNo_Bei_Jing_District_CN_ZIP",
  "InstitutionName": "BeiJing_Normal_University",
  "InstitutionalDepartmentName": "Department",
  "MRAcquisitionType": "2D",
  "MagneticFieldStrength": 3,
  "Manufacturer": "Siemens",
  "ManufacturersModelName": "Prisma",
  "Modality": "MR",
  "MultibandAccelerationFactor": 3,
  "PartialFourier": 1,
  "PatientPosition": "HFS",
  "PercentPhaseFOV": 100,
  "PhaseEncodingDirection": "j-",
  "PhaseEncodingSteps": 100,
  "PhaseResolution": 1,
  "PixelBandwidth": 2380,
  "ProcedureStepDescription": "BNU_P2018_64CH_Liu.Jia",
  "ProtocolName": "bold_100x100_s3_2x2x2_232",
  "PulseSequenceDetails": "%SiemensSeq%_ep2d_bold",
  "ReceiveCoilActiveElements": "HC1-7;NC1",
  "ReceiveCoilName": "HeadNeck_64",
  "ReconMatrixPE": 100,
  "RepetitionTime": 2,
  "SAR": 0.0653837,
  "ScanOptions": "FS",
  "ScanningSequence": "EP",
  "SequenceName": "_epfid2d1_100",
  "SequenceVariant": "SK",
  "SeriesDescription": "bold_100x100_s3_2x2x2_232",
  "SeriesNumber": 3,
  "ShimSetting": [-5454, -11515, -1258, 340, 1, -267, -74, 37],
  "SliceThickness": 2,
  "SliceTiming": [1.4825, 0, 0.9875, 0.0825, 1.07, 0.165, 1.1525, 0.245, 1.235, 0.3275, 1.3175, 0.41, 1.4, 0.575, 1.565, 0.6575, 1.6475, 0.74, 1.73, 0.8225, 1.8125, 0.905, 1.895, 0.4925, 1.4825, 0, 0.9875, 0.0825, 1.07, 0.165, 1.1525, 0.245, 1.235, 0.3275, 1.3175, 0.41, 1.4, 0.575, 1.565, 0.6575, 1.6475, 0.74, 1.73, 0.8225, 1.8125, 0.905, 1.895, 0.4925, 1.4825, 0, 0.9875, 0.0825, 1.07, 0.165, 1.1525, 0.245, 1.235, 0.3275, 1.3175, 0.41, 1.4, 0.575, 1.565, 0.6575, 1.6475, 0.74, 1.73, 0.8225, 1.8125, 0.905, 1.895, 0.4925],
  "SoftwareVersions": "syngo_MR_E11",
  "SpacingBetweenSlices": 2,
  "StationName": "AWP166078",
  "TaskName": "motor",
  "TotalReadoutTime": 0.0534586,
  "TxRefAmp": 222.689,
  "dcmmeta_affine": [
    [-1.9989019632339478, 3.541859072697662e-08, 0.0662655234336853, 99.3802261352539],
    [-0.006006195209920406, 1.9917676448822021, -0.18117815256118774, -82.82722473144531],
    [0.06599276512861252, 0.18127767741680145, 1.9906741380691528, -79.59740447998047],
    [0.0, 0.0, 0.0, 1.0]
],
  "dcmmeta_reorient_transform": [
    [0.0, -1.0, 0.0, 99.0],
    [1.0, 0.0, 0.0, 0.0],
    [0.0, 0.0, 1.0, 0.0],
    [0.0, 0.0, 0.0, 1.0]
],
  "dcmmeta_shape": [100, 100, 72, 232],
  "dcmmeta_slice_dim": 2,
  "dcmmeta_version": 0.6,
  "global": {
    "const": {
      "AcquisitionMatrix": [100, 0, 0, 100],
      "AngioFlag": "N",
      "BitsAllocated": 16,
      "BitsStored": 12,
      "BodyPartExamined": "BRAIN",
      "Columns": 900,
      "EchoNumbers": 1,
      "EchoTime": 34.0,
      "EchoTrainLength": 100,
      "FlipAngle": 90.0,
      "HighBit": 11,
      "ImageOrientationPatient": [0.99945095930776, 0.00300309758102, 0.03299638379749, 1.7709296e-08, 0.99588382873019, -0.0906388419702],
      "ImagePositionPatient": [-898.94101479909, -913.46731079038, -15.536948777412],
      "ImageType": [
        "ORIGINAL",
        "PRIMARY",
        "M",
        "ND",
        "MOSAIC"
],
      "ImagedNucleus": "1H",
      "ImagingFrequency": 123.257796,
      "InPlanePhaseEncodingDirection": "COL",
      "MRAcquisitionType": "2D",
      "MagneticFieldStrength": 3.0,
      "Manufacturer": "SIEMENS",
      "ManufacturerModelName": "Prisma",
      "Modality": "MR",
      "NumberOfAverages": 1.0,
      "NumberOfPhaseEncodingSteps": 100,
      "PercentPhaseFieldOfView": 100.0,
      "PercentSampling": 100.0,
      "PerformedProcedureStepStartTime": "113713.140000",
      "PhotometricInterpretation": "MONOCHROME2",
      "PixelBandwidth": 2380.0,
      "PixelRepresentation": 0,
      "PixelSpacing": [2.0, 2.0],
      "ProtocolName": "bold_100x100_s3_2x2x2_232",
      "RepetitionTime": 2000.0,
      "Rows": 900,
      "SAR": 0.06538365653626,
      "SamplesPerPixel": 1,
      "ScanOptions": "FS",
      "ScanningSequence": "EP",
      "SequenceName": "*epfid2d1_100",
      "SequenceVariant": "SK",
      "SeriesDescription": "bold_100x100_s3_2x2x2_232",
      "SeriesNumber": 3,
      "SeriesTime": "114007.678000",
      "SliceLocation": -68.430263346424,
      "SliceThickness": 2.0,
      "SmallestImagePixelValue": 0,
      "SoftwareVersions": "syngo MR E11",
      "SpacingBetweenSlices": 1.9999999898209,
      "SpecificCharacterSet": "ISO_IR 100",
      "StudyID": "1",
      "StudyTime": "113713.050000",
      "TransmitCoilName": "Body",
      "VariableFlipAngleFlag": "N",
      "WindowCenterWidthExplanation": "Algo1",
      "dBdt": 0.0},
    "slices": {}
  },
  "time": {
    "samples": {
      "AcquisitionNumber": [1, 2, 3, 4, 5, 6, 7, 8, 9, 10, 11, 12, 13, 14, 15, 16, 17, 18, 19, 20, 21, 22, 23, 24, 25, 26, 27, 28, 29, 30, 31, 32, 33, 34, 35, 36, 37, 38, 39, 40, 41, 42, 43, 44, 45, 46, 47, 48, 49, 50, 51, 52, 53, 54, 55, 56, 57, 58, 59, 60, 61, 62, 63, 64, 65, 66, 67, 68, 69, 70, 71, 72, 73, 74, 75, 76, 77, 78, 79, 80, 81, 82, 83, 84, 85, 86, 87, 88, 89, 90, 91, 92, 93, 94, 95, 96, 97, 98, 99, 100, 101, 102, 103, 104, 105, 106, 107, 108, 109, 110, 111, 112, 113, 114, 115, 116, 117, 118, 119, 120, 121, 122, 123, 124, 125, 126, 127, 128, 129, 130, 131, 132, 133, 134, 135, 136, 137, 138, 139, 140, 141, 142, 143, 144, 145, 146, 147, 148, 149, 150, 151, 152, 153, 154, 155, 156, 157, 158, 159, 160, 161, 162, 163, 164, 165, 166, 167, 168, 169, 170, 171, 172, 173, 174, 175, 176, 177, 178, 179, 180, 181, 182, 183, 184, 185, 186, 187, 188, 189, 190, 191, 192, 193, 194, 195, 196, 197, 198, 199, 200, 201, 202, 203, 204, 205, 206, 207, 208, 209, 210, 211, 212, 213, 214, 215, 216, 217, 218, 219, 220, 221, 222, 223, 224, 225, 226, 227, 228, 229, 230, 231, 232],
      "AcquisitionTime": ["114005.232500", "114007.232500", "114009.232500", "114011.232500", "114013.232500", "114015.232500", "114017.232500", "114019.232500", "114021.232500", "114023.232500", "114025.232500", "114027.232500", "114029.232500", "114031.232500", "114033.232500", "114035.232500", "114037.232500", "114039.232500", "114041.232500", "114043.232500", "114045.232500", "114047.232500", "114049.232500", "114051.232500", "114053.232500", "114055.232500", "114057.232500", "114059.232500", "114101.232500", "114103.232500", "114105.232500", "114107.232500", "114109.232500", "114111.232500", "114113.232500", "114115.232500", "114117.232500", "114119.232500", "114121.232500", "114123.232500", "114125.232500", "114127.232500", "114129.232500", "114131.232500", "114133.232500", "114135.232500", "114137.232500", "114139.232500", "114141.232500", "114143.232500", "114145.232500", "114147.232500", "114149.232500", "114151.232500", "114153.232500", "114155.232500", "114157.232500", "114159.232500", "114201.232500", "114203.232500", "114205.232500", "114207.232500", "114209.232500", "114211.232500", "114213.232500", "114215.232500", "114217.232500", "114219.232500", "114221.232500", "114223.232500", "114225.232500", "114227.232500", "114229.232500", "114231.232500", "114233.232500", "114235.232500", "114237.232500", "114239.232500", "114241.232500", "114243.232500", "114245.232500", "114247.232500", "114249.232500", "114251.232500", "114253.232500", "114255.232500", "114257.232500", "114259.232500", "114301.232500", "114303.232500", "114305.232500", "114307.232500", "114309.232500", "114311.232500", "114313.232500", "114315.232500", "114317.232500", "114319.232500", "114321.232500", "114323.232500", "114325.232500", "114327.232500", "114329.232500", "114331.232500", "114333.232500", "114335.232500", "114337.232500", "114339.232500", "114341.232500", "114343.232500", "114345.232500", "114347.232500", "114349.232500", "114351.232500", "114353.232500", "114355.232500", "114357.232500", "114359.232500", "114401.232500", "114403.232500", "114405.232500", "114407.232500", "114409.232500", "114411.232500", "114413.232500", "114415.232500", "114417.232500", "114419.232500", "114421.232500", "114423.232500", "114425.232500", "114427.232500", "114429.232500", "114431.232500", "114433.232500", "114435.232500", "114437.232500", "114439.232500", "114441.232500", "114443.232500", "114445.232500", "114447.232500", "114449.232500", "114451.232500", "114453.232500", "114455.232500", "114457.232500", "114459.232500", "114501.232500", "114503.232500", "114505.232500", "114507.232500", "114509.232500", "114511.232500", "114513.232500", "114515.232500", "114517.232500", "114519.232500", "114521.232500", "114523.232500", "114525.232500", "114527.232500", "114529.232500", "114531.232500", "114533.232500", "114535.232500", "114537.232500", "114539.232500", "114541.232500", "114543.232500", "114545.232500", "114547.232500", "114549.232500", "114551.232500", "114553.232500", "114555.232500", "114557.232500", "114559.232500", "114601.232500", "114603.232500", "114605.232500", "114607.232500", "114609.232500", "114611.232500", "114613.232500", "114615.232500", "114617.232500", "114619.232500", "114621.232500", "114623.232500", "114625.232500", "114627.232500", "114629.232500", "114631.232500", "114633.232500", "114635.232500", "114637.232500", "114639.232500", "114641.232500", "114643.232500", "114645.232500", "114647.232500", "114649.232500", "114651.232500", "114653.232500", "114655.232500", "114657.232500", "114659.232500", "114701.232500", "114703.232500", "114705.232500", "114707.232500", "114709.232500", "114711.232500", "114713.232500", "114715.232500", "114717.232500", "114719.232500", "114721.232500", "114723.232500", "114725.232500", "114727.232500", "114729.232500", "114731.232500", "114733.232500", "114735.232500", "114737.232500", "114739.232500", "114741.232500", "114743.232500", "114745.232500", "114747.232500"],
      "ContentTime": ["114007.681000", "114009.177000", "114011.178000", "114013.177000", "114015.177000", "114017.177000", "114019.177000", "114021.178000", "114023.177000", "114025.178000", "114027.178000", "114029.177000", "114031.178000", "114033.178000", "114035.178000", "114037.177000", "114039.177000", "114041.176000", "114043.177000", "114045.177000", "114047.177000", "114049.177000", "114051.177000", "114053.177000", "114055.177000", "114057.178000", "114059.177000", "114101.177000", "114103.178000", "114105.177000", "114107.178000", "114109.177000", "114111.178000", "114113.177000", "114115.178000", "114117.177000", "114119.177000", "114121.177000", "114123.177000", "114125.177000", "114127.178000", "114129.178000", "114131.177000", "114133.177000", "114135.177000", "114137.178000", "114139.177000", "114141.177000", "114143.177000", "114145.178000", "114147.177000", "114149.178000", "114151.176000", "114153.177000", "114155.178000", "114157.178000", "114159.178000", "114201.177000", "114203.177000", "114205.177000", "114207.177000", "114209.177000", "114211.178000", "114213.178000", "114215.177000", "114217.177000", "114219.177000", "114221.177000", "114223.177000", "114225.177000", "114227.177000", "114229.178000", "114231.178000", "114233.177000", "114235.177000", "114237.178000", "114239.178000", "114241.177000", "114243.177000", "114245.177000", "114247.178000", "114249.178000", "114251.178000", "114253.177000", "114255.177000", "114257.178000", "114259.177000", "114301.177000", "114303.177000", "114305.177000", "114307.177000", "114309.177000", "114311.177000", "114313.178000", "114315.177000", "114317.178000", "114319.177000", "114321.177000", "114323.178000", "114325.178000", "114327.178000", "114329.178000", "114331.177000", "114333.177000", "114335.178000", "114337.177000", "114339.177000", "114341.177000", "114343.177000", "114345.177000", "114347.177000", "114349.178000", "114351.198000", "114353.177000", "114355.177000", "114357.178000", "114359.177000", "114401.177000", "114403.177000", "114405.178000", "114407.177000", "114409.178000", "114411.177000", "114413.178000", "114415.177000", "114417.177000", "114419.178000", "114421.177000", "114423.177000", "114425.177000", "114427.178000", "114429.177000", "114431.178000", "114433.178000", "114435.178000", "114437.178000", "114439.177000", "114441.177000", "114443.178000", "114445.177000", "114447.177000", "114449.177000", "114451.178000", "114453.177000", "114455.177000", "114457.177000", "114459.178000", "114501.177000", "114503.177000", "114505.178000", "114507.177000", "114509.178000", "114511.178000", "114513.178000", "114515.177000", "114517.177000", "114519.178000", "114521.176000", "114523.178000", "114525.178000", "114527.178000", "114529.177000", "114531.178000", "114533.178000", "114535.177000", "114537.177000", "114539.178000", "114541.178000", "114543.177000", "114545.177000", "114547.177000", "114549.177000", "114551.178000", "114553.177000", "114555.178000", "114557.177000", "114559.178000", "114601.178000", "114603.177000", "114605.177000", "114607.178000", "114609.178000", "114611.177000", "114613.177000", "114615.177000", "114617.178000", "114619.177000", "114621.178000", "114623.178000", "114625.178000", "114627.178000", "114629.177000", "114631.177000", "114633.177000", "114635.177000", "114637.177000", "114639.177000", "114641.178000", "114643.178000", "114645.177000", "114647.178000", "114649.177000", "114651.177000", "114653.177000", "114655.178000", "114657.178000", "114659.177000", "114701.177000", "114703.177000", "114705.178000", "114707.177000", "114709.177000", "114711.177000", "114713.178000", "114715.178000", "114717.177000", "114719.177000", "114721.178000", "114723.178000", "114725.178000", "114727.177000", "114729.178000", "114731.177000", "114733.177000", "114735.178000", "114737.178000", "114739.177000", "114741.177000", "114743.177000", "114745.177000", "114747.178000", "114748.844000"],
      "InstanceCreationTime": ["114007.681000", "114009.177000", "114011.178000", "114013.177000", "114015.177000", "114017.177000", "114019.177000", "114021.178000", "114023.177000", "114025.178000", "114027.178000", "114029.177000", "114031.178000", "114033.178000", "114035.178000", "114037.177000", "114039.177000", "114041.176000", "114043.177000", "114045.177000", "114047.177000", "114049.177000", "114051.177000", "114053.177000", "114055.177000", "114057.178000", "114059.177000", "114101.177000", "114103.178000", "114105.177000", "114107.178000", "114109.177000", "114111.178000", "114113.177000", "114115.178000", "114117.177000", "114119.177000", "114121.177000", "114123.177000", "114125.177000", "114127.178000", "114129.178000", "114131.177000", "114133.177000", "114135.177000", "114137.178000", "114139.177000", "114141.177000", "114143.177000", "114145.178000", "114147.177000", "114149.178000", "114151.176000", "114153.177000", "114155.178000", "114157.178000", "114159.178000", "114201.177000", "114203.177000", "114205.177000", "114207.177000", "114209.177000", "114211.178000", "114213.178000", "114215.177000", "114217.177000", "114219.177000", "114221.177000", "114223.177000", "114225.177000", "114227.177000", "114229.178000", "114231.178000", "114233.177000", "114235.177000", "114237.178000", "114239.178000", "114241.177000", "114243.177000", "114245.177000", "114247.178000", "114249.178000", "114251.178000", "114253.177000", "114255.177000", "114257.178000", "114259.177000", "114301.177000", "114303.177000", "114305.177000", "114307.177000", "114309.177000", "114311.177000", "114313.178000", "114315.177000", "114317.178000", "114319.177000", "114321.177000", "114323.178000", "114325.178000", "114327.178000", "114329.178000", "114331.177000", "114333.177000", "114335.178000", "114337.177000", "114339.177000", "114341.177000", "114343.177000", "114345.177000", "114347.177000", "114349.178000", "114351.198000", "114353.177000", "114355.177000", "114357.178000", "114359.177000", "114401.177000", "114403.177000", "114405.178000", "114407.177000", "114409.178000", "114411.177000", "114413.178000", "114415.177000", "114417.177000", "114419.178000", "114421.177000", "114423.177000", "114425.177000", "114427.178000", "114429.177000", "114431.178000", "114433.178000", "114435.178000", "114437.178000", "114439.177000", "114441.177000", "114443.178000", "114445.177000", "114447.177000", "114449.177000", "114451.178000", "114453.177000", "114455.177000", "114457.177000", "114459.178000", "114501.177000", "114503.177000", "114505.178000", "114507.177000", "114509.178000", "114511.178000", "114513.178000", "114515.177000", "114517.177000", "114519.178000", "114521.176000", "114523.178000", "114525.178000", "114527.178000", "114529.177000", "114531.178000", "114533.178000", "114535.177000", "114537.177000", "114539.178000", "114541.178000", "114543.177000", "114545.177000", "114547.177000", "114549.177000", "114551.178000", "114553.177000", "114555.178000", "114557.177000", "114559.178000", "114601.178000", "114603.177000", "114605.177000", "114607.178000", "114609.178000", "114611.177000", "114613.177000", "114615.177000", "114617.178000", "114619.177000", "114621.178000", "114623.178000", "114625.178000", "114627.178000", "114629.177000", "114631.177000", "114633.177000", "114635.177000", "114637.177000", "114639.177000", "114641.178000", "114643.178000", "114645.177000", "114647.178000", "114649.177000", "114651.177000", "114653.177000", "114655.178000", "114657.178000", "114659.177000", "114701.177000", "114703.177000", "114705.178000", "114707.177000", "114709.177000", "114711.177000", "114713.178000", "114715.178000", "114717.177000", "114719.177000", "114721.178000", "114723.178000", "114725.178000", "114727.177000", "114729.178000", "114731.177000", "114733.177000", "114735.178000", "114737.178000", "114739.177000", "114741.177000", "114743.177000", "114745.177000", "114747.178000", "114748.844000"],
      "InstanceNumber": [1, 2, 3, 4, 5, 6, 7, 8, 9, 10, 11, 12, 13, 14, 15, 16, 17, 18, 19, 20, 21, 22, 23, 24, 25, 26, 27, 28, 29, 30, 31, 32, 33, 34, 35, 36, 37, 38, 39, 40, 41, 42, 43, 44, 45, 46, 47, 48, 49, 50, 51, 52, 53, 54, 55, 56, 57, 58, 59, 60, 61, 62, 63, 64, 65, 66, 67, 68, 69, 70, 71, 72, 73, 74, 75, 76, 77, 78, 79, 80, 81, 82, 83, 84, 85, 86, 87, 88, 89, 90, 91, 92, 93, 94, 95, 96, 97, 98, 99, 100, 101, 102, 103, 104, 105, 106, 107, 108, 109, 110, 111, 112, 113, 114, 115, 116, 117, 118, 119, 120, 121, 122, 123, 124, 125, 126, 127, 128, 129, 130, 131, 132, 133, 134, 135, 136, 137, 138, 139, 140, 141, 142, 143, 144, 145, 146, 147, 148, 149, 150, 151, 152, 153, 154, 155, 156, 157, 158, 159, 160, 161, 162, 163, 164, 165, 166, 167, 168, 169, 170, 171, 172, 173, 174, 175, 176, 177, 178, 179, 180, 181, 182, 183, 184, 185, 186, 187, 188, 189, 190, 191, 192, 193, 194, 195, 196, 197, 198, 199, 200, 201, 202, 203, 204, 205, 206, 207, 208, 209, 210, 211, 212, 213, 214, 215, 216, 217, 218, 219, 220, 221, 222, 223, 224, 225, 226, 227, 228, 229, 230, 231, 232],
      "LargestImagePixelValue": [3332, 3301, 3289, 3285, 3309, 3296, 3298, 3289, 3285, 3288, 3283, 3284, 3282, 3267, 3253, 3290, 3282, 3269, 3273, 3288, 3278, 3311, 3289, 3302, 3320, 3252, 3351, 3294, 3314, 3264, 3283, 3276, 3420, 3336, 3313, 3302, 3301, 3296, 3321, 3280, 3249, 3288, 3320, 3338, 3290, 3343, 3333, 3292, 3305, 3317, 3259, 3295, 3408, 3315, 3327, 3320, 3289, 3308, 3313, 3335, 3321, 3293, 3302, 3304, 3247, 3283, 3339, 3328, 3346, 3326, 3311, 3293, 3312, 3292, 3322, 3317, 3348, 3324, 3348, 3341, 3314, 3311, 3314, 3318, 3311, 3339, 3334, 3326, 3337, 3315, 3346, 3345, 3341, 3337, 3342, 3334, 3358, 3306, 3302, 3237, 3276, 3301, 3316, 3304, 3272, 3303, 3310, 3329, 3322, 3303, 3321, 3299, 3324, 3286, 3312, 3297, 3320, 3284, 3313, 3304, 3294, 3312, 3288, 3310, 3297, 3323, 3300, 3326, 3295, 3327, 3348, 3337, 3340, 3322, 3323, 3315, 3279, 3331, 3317, 3311, 3322, 3302, 3322, 3294, 3328, 3318, 3326, 3340, 3341, 3311, 3298, 3314, 3316, 3315, 3342, 3295, 3322, 3314, 3312, 3317, 3328, 3294, 3336, 3318, 3304, 3313, 3342, 3317, 3330, 3375, 3344, 3361, 3355, 3331, 3349, 3342, 3314, 3316, 3316, 3346, 3338, 3762, 3322, 3337, 3339, 3342, 3354, 3354, 3360, 3351, 3332, 3342, 3346, 3316, 3322, 3322, 3341, 3299, 3328, 3312, 3327, 3323, 3338, 3307, 3297, 3324, 3288, 3359, 3289, 3336, 3351, 3341, 3337, 3346, 3333, 3351, 3315, 3329, 3341, 3289, 3340, 3342, 3332, 3329, 3352, 3368, 3333, 3324, 3311, 3306, 3300, 3307],
      "WindowCenter": [766.0, 766.0, 766.0, 765.0, 765.0, 765.0, 766.0, 766.0, 766.0, 765.0, 766.0, 767.0, 768.0, 767.0, 767.0, 766.0, 766.0, 766.0, 768.0, 768.0, 767.0, 766.0, 766.0, 767.0, 768.0, 765.0, 769.0, 766.0, 767.0, 768.0, 768.0, 768.0, 767.0, 767.0, 767.0, 768.0, 768.0, 768.0, 767.0, 768.0, 767.0, 768.0, 768.0, 768.0, 767.0, 767.0, 767.0, 767.0, 766.0, 767.0, 766.0, 767.0, 767.0, 766.0, 767.0, 767.0, 766.0, 768.0, 768.0, 768.0, 767.0, 766.0, 766.0, 765.0, 765.0, 765.0, 765.0, 765.0, 764.0, 764.0, 765.0, 766.0, 768.0, 767.0, 767.0, 766.0, 767.0, 766.0, 767.0, 766.0, 767.0, 766.0, 767.0, 767.0, 767.0, 768.0, 767.0, 766.0, 767.0, 766.0, 767.0, 768.0, 768.0, 767.0, 767.0, 767.0, 769.0, 767.0, 766.0, 764.0, 763.0, 765.0, 767.0, 766.0, 765.0, 767.0, 768.0, 768.0, 767.0, 767.0, 767.0, 768.0, 768.0, 768.0, 769.0, 769.0, 768.0, 767.0, 767.0, 766.0, 766.0, 766.0, 766.0, 766.0, 766.0, 767.0, 769.0, 768.0, 766.0, 764.0, 766.0, 764.0, 765.0, 764.0, 765.0, 764.0, 765.0, 765.0, 766.0, 766.0, 766.0, 766.0, 766.0, 767.0, 768.0, 768.0, 768.0, 768.0, 768.0, 767.0, 767.0, 768.0, 768.0, 767.0, 767.0, 768.0, 768.0, 767.0, 768.0, 770.0, 769.0, 768.0, 767.0, 767.0, 767.0, 767.0, 768.0, 767.0, 767.0, 767.0, 766.0, 766.0, 766.0, 766.0, 765.0, 765.0, 765.0, 765.0, 766.0, 767.0, 766.0, 769.0, 768.0, 768.0, 767.0, 767.0, 769.0, 771.0, 771.0, 768.0, 767.0, 765.0, 765.0, 764.0, 765.0, 765.0, 766.0, 767.0, 767.0, 767.0, 767.0, 766.0, 767.0, 767.0, 766.0, 768.0, 767.0, 768.0, 766.0, 768.0, 768.0, 769.0, 769.0, 769.0, 769.0, 769.0, 769.0, 769.0, 769.0, 768.0, 768.0, 768.0, 768.0, 769.0, 769.0, 768.0, 768.0, 770.0, 769.0, 767.0, 765.0, 766.0],
      "WindowWidth": [1648.0, 1648.0, 1646.0, 1646.0, 1645.0, 1645.0, 1647.0, 1648.0, 1647.0, 1645.0, 1646.0, 1648.0, 1652.0, 1651.0, 1650.0, 1648.0, 1646.0, 1649.0, 1651.0, 1652.0, 1651.0, 1647.0, 1648.0, 1651.0, 1652.0, 1645.0, 1655.0, 1648.0, 1649.0, 1652.0, 1653.0, 1652.0, 1650.0, 1649.0, 1649.0, 1653.0, 1653.0, 1652.0, 1651.0, 1651.0, 1650.0, 1653.0, 1653.0, 1652.0, 1649.0, 1650.0, 1649.0, 1649.0, 1648.0, 1648.0, 1647.0, 1650.0, 1649.0, 1648.0, 1649.0, 1648.0, 1646.0, 1651.0, 1651.0, 1652.0, 1650.0, 1646.0, 1645.0, 1644.0, 1643.0, 1644.0, 1644.0, 1643.0, 1642.0, 1641.0, 1644.0, 1647.0, 1651.0, 1648.0, 1648.0, 1646.0, 1648.0, 1647.0, 1648.0, 1647.0, 1648.0, 1647.0, 1648.0, 1648.0, 1649.0, 1650.0, 1650.0, 1647.0, 1648.0, 1646.0, 1649.0, 1651.0, 1651.0, 1648.0, 1648.0, 1647.0, 1652.0, 1647.0, 1645.0, 1640.0, 1639.0, 1642.0, 1647.0, 1646.0, 1643.0, 1647.0, 1650.0, 1651.0, 1648.0, 1647.0, 1649.0, 1650.0, 1651.0, 1650.0, 1653.0, 1654.0, 1651.0, 1647.0, 1647.0, 1646.0, 1646.0, 1645.0, 1644.0, 1646.0, 1646.0, 1648.0, 1652.0, 1651.0, 1645.0, 1641.0, 1646.0, 1641.0, 1644.0, 1641.0, 1643.0, 1640.0, 1644.0, 1644.0, 1645.0, 1646.0, 1644.0, 1646.0, 1646.0, 1649.0, 1650.0, 1650.0, 1650.0, 1652.0, 1649.0, 1647.0, 1648.0, 1650.0, 1650.0, 1647.0, 1649.0, 1650.0, 1651.0, 1649.0, 1651.0, 1655.0, 1654.0, 1650.0, 1648.0, 1649.0, 1648.0, 1648.0, 1650.0, 1647.0, 1646.0, 1646.0, 1645.0, 1646.0, 1645.0, 1643.0, 1643.0, 1642.0, 1641.0, 1641.0, 1645.0, 1647.0, 1644.0, 1652.0, 1650.0, 1650.0, 1648.0, 1649.0, 1653.0, 1658.0, 1657.0, 1650.0, 1646.0, 1642.0, 1642.0, 1640.0, 1642.0, 1642.0, 1644.0, 1646.0, 1646.0, 1645.0, 1646.0, 1645.0, 1647.0, 1646.0, 1644.0, 1649.0, 1646.0, 1649.0, 1644.0, 1649.0, 1650.0, 1652.0, 1653.0, 1652.0, 1651.0, 1653.0, 1653.0, 1653.0, 1652.0, 1648.0, 1650.0, 1650.0, 1651.0, 1651.0, 1653.0, 1650.0, 1650.0, 1653.0, 1652.0, 1646.0, 1642.0, 1645.0]
    },
    "slices": {}
  }
}