{
  "AcquisitionMatrixPE": 100,
  "AcquisitionNumber": 1,
  "AcquisitionTime": "12:27:40.567500",
  "BandwidthPerPixelPhaseEncode": 18.519,
  "BaseResolution": 100,
  "BodyPartExamined": "BRAIN",
  "ConsistencyInfo": "N4_VE11C_LATEST_20160120",
  "ConversionSoftware": "dcm2niix",
  "ConversionSoftwareVersion": "v1.0.20180622 GCC4.9.2",
  "DerivedVendorReportedEchoSpacing": 0.000539986,
  "DeviceSerialNumber": "166078",
  "DwellTime": 2.1e-06,
  "EchoTime": 0.034,
  "EchoTrainLength": 100,
  "EffectiveEchoSpacing": 0.000539986,
  "FlipAngle": 90,
  "ImageOrientationPatientDICOM": [0.999451, 0.0030031, 0.0329964, 1.77093e-08, 0.995884, -0.0906388],
  "ImageType": [
    "ORIGINAL",
    "PRIMARY",
    "M",
    "ND",
    "MOSAIC"
],
  "InPlanePhaseEncodingDirectionDICOM": "COL",
  "InstitutionAddress": "Street_StreetNo_Bei_Jing_District_CN_ZIP",
  "InstitutionName": "BeiJing_Normal_University",
  "InstitutionalDepartmentName": "Department",
  "MRAcquisitionType": "2D",
  "MagneticFieldStrength": 3,
  "Manufacturer": "Siemens",
  "ManufacturersModelName": "Prisma",
  "Modality": "MR",
  "MultibandAccelerationFactor": 3,
  "PartialFourier": 1,
  "PatientPosition": "HFS",
  "PercentPhaseFOV": 100,
  "PhaseEncodingDirection": "j-",
  "PhaseEncodingSteps": 100,
  "PhaseResolution": 1,
  "PixelBandwidth": 2380,
  "ProcedureStepDescription": "BNU_P2018_64CH_Liu.Jia",
  "ProtocolName": "bold_100x100_s3_2x2x2_232",
  "PulseSequenceDetails": "%SiemensSeq%_ep2d_bold",
  "ReceiveCoilActiveElements": "HC1-7;NC1",
  "ReceiveCoilName": "HeadNeck_64",
  "ReconMatrixPE": 100,
  "RepetitionTime": 2,
  "SAR": 0.0653837,
  "ScanOptions": "FS",
  "ScanningSequence": "EP",
  "SequenceName": "_epfid2d1_100",
  "SequenceVariant": "SK",
  "SeriesDescription": "bold_100x100_s3_2x2x2_232",
  "SeriesNumber": 11,
  "ShimSetting": [-5454, -11515, -1258, 340, 1, -267, -74, 37],
  "SliceThickness": 2,
  "SliceTiming": [1.485, 0, 0.99, 0.0825, 1.0725, 0.165, 1.155, 0.2475, 1.2375, 0.33, 1.32, 0.4125, 1.4025, 0.5775, 1.5675, 0.66, 1.65, 0.7425, 1.7325, 0.825, 1.815, 0.9075, 1.8975, 0.495, 1.485, 0, 0.99, 0.0825, 1.0725, 0.165, 1.155, 0.2475, 1.2375, 0.33, 1.32, 0.4125, 1.4025, 0.5775, 1.5675, 0.66, 1.65, 0.7425, 1.7325, 0.825, 1.815, 0.9075, 1.8975, 0.495, 1.485, 0, 0.99, 0.0825, 1.0725, 0.165, 1.155, 0.2475, 1.2375, 0.33, 1.32, 0.4125, 1.4025, 0.5775, 1.5675, 0.66, 1.65, 0.7425, 1.7325, 0.825, 1.815, 0.9075, 1.8975, 0.495],
  "SoftwareVersions": "syngo_MR_E11",
  "SpacingBetweenSlices": 2,
  "StationName": "AWP166078",
  "TaskName": "motor",
  "TotalReadoutTime": 0.0534586,
  "TxRefAmp": 222.689,
  "dcmmeta_affine": [
    [-1.9989019632339478, 3.541859072697662e-08, 0.0662655234336853, 99.3802261352539],
    [-0.006006195209920406, 1.9917676448822021, -0.18117815256118774, -82.82722473144531],
    [0.06599276512861252, 0.18127767741680145, 1.9906741380691528, -79.59740447998047],
    [0.0, 0.0, 0.0, 1.0]
],
  "dcmmeta_reorient_transform": [
    [0.0, -1.0, 0.0, 99.0],
    [1.0, 0.0, 0.0, 0.0],
    [0.0, 0.0, 1.0, 0.0],
    [0.0, 0.0, 0.0, 1.0]
],
  "dcmmeta_shape": [100, 100, 72, 232],
  "dcmmeta_slice_dim": 2,
  "dcmmeta_version": 0.6,
  "global": {
    "const": {
      "AcquisitionMatrix": [100, 0, 0, 100],
      "AngioFlag": "N",
      "BitsAllocated": 16,
      "BitsStored": 12,
      "BodyPartExamined": "BRAIN",
      "Columns": 900,
      "EchoNumbers": 1,
      "EchoTime": 34.0,
      "EchoTrainLength": 100,
      "FlipAngle": 90.0,
      "HighBit": 11,
      "ImageOrientationPatient": [0.99945095930776, 0.00300309758102, 0.03299638379749, 1.7709296e-08, 0.99588382873019, -0.0906388419702],
      "ImagePositionPatient": [-898.94101479909, -913.46731079038, -15.536948777412],
      "ImageType": [
        "ORIGINAL",
        "PRIMARY",
        "M",
        "ND",
        "MOSAIC"
],
      "ImagedNucleus": "1H",
      "ImagingFrequency": 123.257818,
      "InPlanePhaseEncodingDirection": "COL",
      "MRAcquisitionType": "2D",
      "MagneticFieldStrength": 3.0,
      "Manufacturer": "SIEMENS",
      "ManufacturerModelName": "Prisma",
      "Modality": "MR",
      "NumberOfAverages": 1.0,
      "NumberOfPhaseEncodingSteps": 100,
      "PercentPhaseFieldOfView": 100.0,
      "PercentSampling": 100.0,
      "PerformedProcedureStepStartTime": "113713.140000",
      "PhotometricInterpretation": "MONOCHROME2",
      "PixelBandwidth": 2380.0,
      "PixelRepresentation": 0,
      "PixelSpacing": [2.0, 2.0],
      "ProtocolName": "bold_100x100_s3_2x2x2_232",
      "RepetitionTime": 2000.0,
      "Rows": 900,
      "SAR": 0.06538365653626,
      "SamplesPerPixel": 1,
      "ScanOptions": "FS",
      "ScanningSequence": "EP",
      "SequenceName": "*epfid2d1_100",
      "SequenceVariant": "SK",
      "SeriesDescription": "bold_100x100_s3_2x2x2_232",
      "SeriesNumber": 11,
      "SeriesTime": "122742.957000",
      "SliceLocation": -68.430263346424,
      "SliceThickness": 2.0,
      "SmallestImagePixelValue": 0,
      "SoftwareVersions": "syngo MR E11",
      "SpacingBetweenSlices": 1.9999999898209,
      "SpecificCharacterSet": "ISO_IR 100",
      "StudyID": "1",
      "StudyTime": "113713.050000",
      "TransmitCoilName": "Body",
      "VariableFlipAngleFlag": "N",
      "WindowCenterWidthExplanation": "Algo1",
      "dBdt": 0.0},
    "slices": {}
  },
  "time": {
    "samples": {
      "AcquisitionNumber": [1, 2, 3, 4, 5, 6, 7, 8, 9, 10, 11, 12, 13, 14, 15, 16, 17, 18, 19, 20, 21, 22, 23, 24, 25, 26, 27, 28, 29, 30, 31, 32, 33, 34, 35, 36, 37, 38, 39, 40, 41, 42, 43, 44, 45, 46, 47, 48, 49, 50, 51, 52, 53, 54, 55, 56, 57, 58, 59, 60, 61, 62, 63, 64, 65, 66, 67, 68, 69, 70, 71, 72, 73, 74, 75, 76, 77, 78, 79, 80, 81, 82, 83, 84, 85, 86, 87, 88, 89, 90, 91, 92, 93, 94, 95, 96, 97, 98, 99, 100, 101, 102, 103, 104, 105, 106, 107, 108, 109, 110, 111, 112, 113, 114, 115, 116, 117, 118, 119, 120, 121, 122, 123, 124, 125, 126, 127, 128, 129, 130, 131, 132, 133, 134, 135, 136, 137, 138, 139, 140, 141, 142, 143, 144, 145, 146, 147, 148, 149, 150, 151, 152, 153, 154, 155, 156, 157, 158, 159, 160, 161, 162, 163, 164, 165, 166, 167, 168, 169, 170, 171, 172, 173, 174, 175, 176, 177, 178, 179, 180, 181, 182, 183, 184, 185, 186, 187, 188, 189, 190, 191, 192, 193, 194, 195, 196, 197, 198, 199, 200, 201, 202, 203, 204, 205, 206, 207, 208, 209, 210, 211, 212, 213, 214, 215, 216, 217, 218, 219, 220, 221, 222, 223, 224, 225, 226, 227, 228, 229, 230, 231, 232],
      "AcquisitionTime": ["122740.567500", "122742.567500", "122744.567500", "122746.567500", "122748.567500", "122750.567500", "122752.567500", "122754.567500", "122756.567500", "122758.567500", "122800.567500", "122802.567500", "122804.567500", "122806.567500", "122808.567500", "122810.567500", "122812.567500", "122814.567500", "122816.567500", "122818.567500", "122820.567500", "122822.567500", "122824.567500", "122826.567500", "122828.567500", "122830.567500", "122832.567500", "122834.567500", "122836.567500", "122838.567500", "122840.567500", "122842.567500", "122844.567500", "122846.567500", "122848.567500", "122850.567500", "122852.567500", "122854.567500", "122856.567500", "122858.567500", "122900.567500", "122902.567500", "122904.567500", "122906.567500", "122908.567500", "122910.567500", "122912.567500", "122914.567500", "122916.567500", "122918.567500", "122920.567500", "122922.567500", "122924.567500", "122926.567500", "122928.567500", "122930.567500", "122932.567500", "122934.567500", "122936.567500", "122938.567500", "122940.567500", "122942.567500", "122944.567500", "122946.567500", "122948.567500", "122950.567500", "122952.567500", "122954.567500", "122956.567500", "122958.567500", "123000.567500", "123002.567500", "123004.567500", "123006.567500", "123008.567500", "123010.567500", "123012.567500", "123014.567500", "123016.567500", "123018.567500", "123020.567500", "123022.567500", "123024.567500", "123026.567500", "123028.567500", "123030.567500", "123032.567500", "123034.567500", "123036.567500", "123038.567500", "123040.567500", "123042.567500", "123044.567500", "123046.567500", "123048.567500", "123050.567500", "123052.567500", "123054.567500", "123056.567500", "123058.567500", "123100.567500", "123102.567500", "123104.567500", "123106.567500", "123108.567500", "123110.567500", "123112.567500", "123114.567500", "123116.567500", "123118.567500", "123120.567500", "123122.567500", "123124.567500", "123126.567500", "123128.567500", "123130.567500", "123132.567500", "123134.567500", "123136.567500", "123138.567500", "123140.567500", "123142.567500", "123144.567500", "123146.567500", "123148.567500", "123150.567500", "123152.567500", "123154.567500", "123156.567500", "123158.567500", "123200.567500", "123202.567500", "123204.567500", "123206.567500", "123208.567500", "123210.567500", "123212.567500", "123214.567500", "123216.567500", "123218.567500", "123220.567500", "123222.567500", "123224.567500", "123226.567500", "123228.567500", "123230.567500", "123232.567500", "123234.567500", "123236.567500", "123238.567500", "123240.567500", "123242.567500", "123244.567500", "123246.567500", "123248.567500", "123250.567500", "123252.567500", "123254.567500", "123256.567500", "123258.567500", "123300.567500", "123302.567500", "123304.567500", "123306.567500", "123308.567500", "123310.567500", "123312.567500", "123314.567500", "123316.567500", "123318.567500", "123320.567500", "123322.567500", "123324.567500", "123326.567500", "123328.567500", "123330.567500", "123332.567500", "123334.567500", "123336.567500", "123338.567500", "123340.567500", "123342.567500", "123344.567500", "123346.567500", "123348.567500", "123350.567500", "123352.567500", "123354.567500", "123356.567500", "123358.567500", "123400.567500", "123402.567500", "123404.567500", "123406.567500", "123408.567500", "123410.567500", "123412.567500", "123414.567500", "123416.567500", "123418.567500", "123420.567500", "123422.567500", "123424.567500", "123426.567500", "123428.567500", "123430.567500", "123432.567500", "123434.567500", "123436.567500", "123438.567500", "123440.567500", "123442.567500", "123444.567500", "123446.567500", "123448.567500", "123450.567500", "123452.567500", "123454.567500", "123456.567500", "123458.567500", "123500.567500", "123502.567500", "123504.567500", "123506.567500", "123508.567500", "123510.567500", "123512.567500", "123514.567500", "123516.567500", "123518.567500", "123520.567500", "123522.567500"],
      "ContentTime": ["122742.961000", "122744.457000", "122746.456000", "122748.456000", "122750.456000", "122752.457000", "122754.458000", "122756.456000", "122758.456000", "122800.457000", "122802.456000", "122804.456000", "122806.456000", "122808.456000", "122810.456000", "122812.457000", "122814.457000", "122816.456000", "122818.456000", "122820.456000", "122822.456000", "122824.456000", "122826.457000", "122828.456000", "122830.457000", "122832.457000", "122834.456000", "122836.456000", "122838.456000", "122840.456000", "122842.456000", "122844.456000", "122846.457000", "122848.457000", "122850.457000", "122852.456000", "122854.457000", "122856.457000", "122858.457000", "122900.456000", "122902.456000", "122904.457000", "122906.457000", "122908.456000", "122910.456000", "122912.456000", "122914.456000", "122916.456000", "122918.456000", "122920.456000", "122922.457000", "122924.456000", "122926.456000", "122928.456000", "122930.456000", "122932.456000", "122934.456000", "122936.457000", "122937.956000", "122940.457000", "122942.457000", "122944.457000", "122946.457000", "122948.456000", "122950.456000", "122952.456000", "122954.456000", "122956.457000", "122958.457000", "123000.457000", "123002.456000", "123004.456000", "123006.456000", "123008.456000", "123010.457000", "123012.456000", "123014.457000", "123016.457000", "123018.457000", "123020.456000", "123022.456000", "123024.456000", "123026.457000", "123028.456000", "123030.456000", "123032.457000", "123034.456000", "123036.457000", "123038.457000", "123040.456000", "123042.456000", "123044.456000", "123046.456000", "123048.456000", "123050.458000", "123052.456000", "123054.457000", "123056.456000", "123058.456000", "123100.456000", "123102.456000", "123104.457000", "123106.457000", "123108.457000", "123110.456000", "123112.456000", "123114.457000", "123116.456000", "123118.457000", "123120.456000", "123122.456000", "123124.457000", "123126.456000", "123128.456000", "123130.456000", "123132.456000", "123134.456000", "123136.456000", "123138.457000", "123140.457000", "123142.457000", "123144.457000", "123146.456000", "123148.456000", "123150.457000", "123152.456000", "123154.456000", "123156.457000", "123158.456000", "123200.457000", "123202.456000", "123204.456000", "123206.457000", "123208.456000", "123210.457000", "123212.457000", "123214.456000", "123216.458000", "123218.457000", "123220.457000", "123222.457000", "123224.456000", "123226.456000", "123228.456000", "123230.457000", "123232.457000", "123234.458000", "123236.456000", "123238.456000", "123240.456000", "123242.456000", "123244.456000", "123246.456000", "123248.456000", "123250.469000", "123252.457000", "123254.456000", "123256.456000", "123258.456000", "123300.456000", "123302.457000", "123304.456000", "123306.456000", "123308.457000", "123310.457000", "123312.456000", "123314.456000", "123316.457000", "123318.457000", "123320.456000", "123322.456000", "123324.457000", "123326.458000", "123328.457000", "123330.456000", "123332.457000", "123334.456000", "123336.456000", "123338.456000", "123340.456000", "123342.456000", "123344.457000", "123346.457000", "123348.456000", "123350.456000", "123352.456000", "123354.457000", "123356.457000", "123358.456000", "123400.457000", "123402.458000", "123404.456000", "123406.457000", "123408.457000", "123410.456000", "123412.456000", "123414.456000", "123416.456000", "123418.458000", "123420.457000", "123422.456000", "123424.456000", "123426.457000", "123428.457000", "123430.457000", "123432.456000", "123434.456000", "123436.458000", "123438.458000", "123440.457000", "123442.457000", "123444.456000", "123446.456000", "123448.457000", "123450.456000", "123452.456000", "123454.457000", "123456.456000", "123458.457000", "123500.456000", "123502.457000", "123504.457000", "123506.457000", "123508.456000", "123510.456000", "123512.457000", "123514.457000", "123516.456000", "123518.456000", "123520.456000", "123522.457000", "123523.968000"],
      "InstanceCreationTime": ["122742.961000", "122744.457000", "122746.456000", "122748.456000", "122750.456000", "122752.457000", "122754.458000", "122756.456000", "122758.456000", "122800.457000", "122802.456000", "122804.456000", "122806.456000", "122808.456000", "122810.456000", "122812.457000", "122814.457000", "122816.456000", "122818.456000", "122820.456000", "122822.456000", "122824.456000", "122826.457000", "122828.456000", "122830.457000", "122832.457000", "122834.456000", "122836.456000", "122838.456000", "122840.456000", "122842.456000", "122844.456000", "122846.457000", "122848.457000", "122850.457000", "122852.456000", "122854.457000", "122856.457000", "122858.457000", "122900.456000", "122902.456000", "122904.457000", "122906.457000", "122908.456000", "122910.456000", "122912.456000", "122914.456000", "122916.456000", "122918.456000", "122920.456000", "122922.457000", "122924.456000", "122926.456000", "122928.456000", "122930.456000", "122932.456000", "122934.456000", "122936.457000", "122937.956000", "122940.457000", "122942.457000", "122944.457000", "122946.457000", "122948.456000", "122950.456000", "122952.456000", "122954.456000", "122956.457000", "122958.457000", "123000.457000", "123002.456000", "123004.456000", "123006.456000", "123008.456000", "123010.457000", "123012.456000", "123014.457000", "123016.457000", "123018.457000", "123020.456000", "123022.456000", "123024.456000", "123026.457000", "123028.456000", "123030.456000", "123032.457000", "123034.456000", "123036.457000", "123038.457000", "123040.456000", "123042.456000", "123044.456000", "123046.456000", "123048.456000", "123050.458000", "123052.456000", "123054.457000", "123056.456000", "123058.456000", "123100.456000", "123102.456000", "123104.457000", "123106.457000", "123108.457000", "123110.456000", "123112.456000", "123114.457000", "123116.456000", "123118.457000", "123120.456000", "123122.456000", "123124.457000", "123126.456000", "123128.456000", "123130.456000", "123132.456000", "123134.456000", "123136.456000", "123138.457000", "123140.457000", "123142.457000", "123144.457000", "123146.456000", "123148.456000", "123150.457000", "123152.456000", "123154.456000", "123156.457000", "123158.456000", "123200.457000", "123202.456000", "123204.456000", "123206.457000", "123208.456000", "123210.457000", "123212.457000", "123214.456000", "123216.458000", "123218.457000", "123220.457000", "123222.457000", "123224.456000", "123226.456000", "123228.456000", "123230.457000", "123232.457000", "123234.458000", "123236.456000", "123238.456000", "123240.456000", "123242.456000", "123244.456000", "123246.456000", "123248.456000", "123250.469000", "123252.457000", "123254.456000", "123256.456000", "123258.456000", "123300.456000", "123302.457000", "123304.456000", "123306.456000", "123308.457000", "123310.457000", "123312.456000", "123314.456000", "123316.457000", "123318.457000", "123320.456000", "123322.456000", "123324.457000", "123326.458000", "123328.457000", "123330.456000", "123332.457000", "123334.456000", "123336.456000", "123338.456000", "123340.456000", "123342.456000", "123344.457000", "123346.457000", "123348.456000", "123350.456000", "123352.456000", "123354.457000", "123356.457000", "123358.456000", "123400.457000", "123402.458000", "123404.456000", "123406.457000", "123408.457000", "123410.456000", "123412.456000", "123414.456000", "123416.456000", "123418.458000", "123420.457000", "123422.456000", "123424.456000", "123426.457000", "123428.457000", "123430.457000", "123432.456000", "123434.456000", "123436.458000", "123438.458000", "123440.457000", "123442.457000", "123444.456000", "123446.456000", "123448.457000", "123450.456000", "123452.456000", "123454.457000", "123456.456000", "123458.457000", "123500.456000", "123502.457000", "123504.457000", "123506.457000", "123508.456000", "123510.456000", "123512.457000", "123514.457000", "123516.456000", "123518.456000", "123520.456000", "123522.457000", "123523.968000"],
      "InstanceNumber": [1, 2, 3, 4, 5, 6, 7, 8, 9, 10, 11, 12, 13, 14, 15, 16, 17, 18, 19, 20, 21, 22, 23, 24, 25, 26, 27, 28, 29, 30, 31, 32, 33, 34, 35, 36, 37, 38, 39, 40, 41, 42, 43, 44, 45, 46, 47, 48, 49, 50, 51, 52, 53, 54, 55, 56, 57, 58, 59, 60, 61, 62, 63, 64, 65, 66, 67, 68, 69, 70, 71, 72, 73, 74, 75, 76, 77, 78, 79, 80, 81, 82, 83, 84, 85, 86, 87, 88, 89, 90, 91, 92, 93, 94, 95, 96, 97, 98, 99, 100, 101, 102, 103, 104, 105, 106, 107, 108, 109, 110, 111, 112, 113, 114, 115, 116, 117, 118, 119, 120, 121, 122, 123, 124, 125, 126, 127, 128, 129, 130, 131, 132, 133, 134, 135, 136, 137, 138, 139, 140, 141, 142, 143, 144, 145, 146, 147, 148, 149, 150, 151, 152, 153, 154, 155, 156, 157, 158, 159, 160, 161, 162, 163, 164, 165, 166, 167, 168, 169, 170, 171, 172, 173, 174, 175, 176, 177, 178, 179, 180, 181, 182, 183, 184, 185, 186, 187, 188, 189, 190, 191, 192, 193, 194, 195, 196, 197, 198, 199, 200, 201, 202, 203, 204, 205, 206, 207, 208, 209, 210, 211, 212, 213, 214, 215, 216, 217, 218, 219, 220, 221, 222, 223, 224, 225, 226, 227, 228, 229, 230, 231, 232],
      "LargestImagePixelValue": [3380, 3312, 3311, 3272, 3271, 3291, 3263, 3277, 3282, 3264, 3279, 3248, 3297, 3267, 3272, 3273, 3296, 3285, 3300, 3299, 3302, 3266, 3291, 3323, 3327, 3329, 3284, 3274, 3288, 3301, 3297, 3313, 3299, 3295, 3309, 3300, 3286, 3311, 3280, 3291, 3293, 3313, 3308, 3302, 3283, 3257, 3303, 3266, 3283, 3280, 3224, 3245, 3220, 3251, 3244, 3253, 3311, 3259, 3266, 3287, 3281, 3290, 3318, 3289, 3298, 3281, 3266, 3271, 3268, 3253, 3275, 3273, 3281, 3237, 3284, 3267, 3264, 3250, 3281, 3262, 3251, 3277, 3260, 3285, 3284, 3274, 3261, 3295, 3271, 3271, 3283, 3232, 3239, 3257, 3269, 3254, 3235, 3235, 3226, 3251, 3236, 3221, 3234, 3231, 3283, 3238, 3399, 3305, 3277, 3304, 3281, 3315, 3234, 3276, 3241, 3257, 3247, 3259, 3255, 3257, 3259, 3388, 3314, 3405, 3280, 3292, 3421, 3172, 3237, 3307, 3264, 3286, 3239, 3233, 3233, 3255, 3235, 3300, 3265, 3257, 3259, 3267, 3241, 3209, 3229, 3236, 3236, 3229, 3274, 3211, 3225, 3218, 3230, 3235, 3228, 3236, 3246, 3238, 3222, 3247, 3250, 3306, 3278, 3294, 3274, 3257, 3276, 3253, 3273, 3289, 3331, 3301, 3337, 3349, 3346, 3320, 3337, 3308, 3269, 3273, 3257, 3225, 3306, 3315, 3299, 3340, 3294, 3234, 3250, 3277, 3302, 3272, 3355, 3289, 3323, 3342, 3362, 3338, 3342, 3369, 3331, 3340, 3325, 3302, 3365, 3337, 3323, 3342, 3320, 3298, 3318, 3332, 3338, 3284, 3277, 3324, 3319, 3266, 3285, 3282, 3291, 3326, 3300, 3310, 3565, 3362, 3386, 3253, 3255, 3281, 3290, 3308],
      "WindowCenter": [769.0, 767.0, 767.0, 766.0, 767.0, 767.0, 767.0, 767.0, 768.0, 766.0, 767.0, 767.0, 767.0, 766.0, 767.0, 766.0, 766.0, 767.0, 766.0, 763.0, 763.0, 759.0, 766.0, 761.0, 763.0, 765.0, 765.0, 767.0, 769.0, 769.0, 767.0, 767.0, 766.0, 766.0, 766.0, 766.0, 765.0, 767.0, 767.0, 769.0, 768.0, 767.0, 765.0, 766.0, 768.0, 767.0, 766.0, 765.0, 764.0, 765.0, 765.0, 766.0, 767.0, 768.0, 767.0, 765.0, 766.0, 766.0, 766.0, 767.0, 767.0, 767.0, 766.0, 767.0, 769.0, 768.0, 768.0, 768.0, 768.0, 768.0, 766.0, 765.0, 765.0, 765.0, 766.0, 768.0, 768.0, 766.0, 766.0, 766.0, 767.0, 768.0, 768.0, 767.0, 767.0, 766.0, 768.0, 769.0, 768.0, 767.0, 766.0, 767.0, 769.0, 769.0, 768.0, 766.0, 767.0, 767.0, 766.0, 766.0, 765.0, 765.0, 766.0, 769.0, 769.0, 768.0, 768.0, 766.0, 766.0, 768.0, 765.0, 766.0, 767.0, 770.0, 768.0, 768.0, 768.0, 767.0, 767.0, 766.0, 767.0, 769.0, 769.0, 771.0, 768.0, 764.0, 767.0, 764.0, 764.0, 769.0, 769.0, 770.0, 767.0, 766.0, 766.0, 766.0, 768.0, 767.0, 767.0, 765.0, 766.0, 766.0, 767.0, 767.0, 766.0, 767.0, 767.0, 768.0, 768.0, 767.0, 766.0, 766.0, 766.0, 768.0, 769.0, 769.0, 768.0, 768.0, 767.0, 768.0, 767.0, 767.0, 767.0, 766.0, 767.0, 767.0, 766.0, 766.0, 768.0, 767.0, 767.0, 767.0, 768.0, 767.0, 767.0, 767.0, 767.0, 767.0, 767.0, 768.0, 767.0, 767.0, 767.0, 768.0, 767.0, 768.0, 768.0, 766.0, 769.0, 768.0, 767.0, 766.0, 766.0, 767.0, 767.0, 769.0, 770.0, 768.0, 768.0, 769.0, 768.0, 769.0, 770.0, 770.0, 770.0, 769.0, 768.0, 768.0, 769.0, 770.0, 773.0, 770.0, 768.0, 765.0, 761.0, 768.0, 767.0, 767.0, 768.0, 769.0, 769.0, 768.0, 766.0, 767.0, 767.0, 766.0, 767.0, 766.0, 767.0, 766.0, 766.0, 767.0],
      "WindowWidth": [1650.0, 1646.0, 1645.0, 1644.0, 1645.0, 1646.0, 1646.0, 1646.0, 1648.0, 1644.0, 1647.0, 1646.0, 1647.0, 1645.0, 1645.0, 1644.0, 1644.0, 1645.0, 1643.0, 1637.0, 1635.0, 1624.0, 1643.0, 1631.0, 1636.0, 1641.0, 1640.0, 1646.0, 1650.0, 1651.0, 1646.0, 1645.0, 1644.0, 1645.0, 1644.0, 1644.0, 1641.0, 1647.0, 1647.0, 1650.0, 1648.0, 1646.0, 1642.0, 1644.0, 1648.0, 1646.0, 1644.0, 1639.0, 1637.0, 1641.0, 1640.0, 1642.0, 1645.0, 1648.0, 1645.0, 1640.0, 1642.0, 1643.0, 1644.0, 1647.0, 1645.0, 1644.0, 1643.0, 1645.0, 1650.0, 1650.0, 1648.0, 1649.0, 1648.0, 1648.0, 1643.0, 1641.0, 1640.0, 1640.0, 1644.0, 1649.0, 1648.0, 1644.0, 1644.0, 1644.0, 1647.0, 1648.0, 1648.0, 1645.0, 1644.0, 1645.0, 1650.0, 1651.0, 1649.0, 1646.0, 1643.0, 1646.0, 1651.0, 1651.0, 1649.0, 1644.0, 1646.0, 1645.0, 1644.0, 1643.0, 1639.0, 1640.0, 1643.0, 1650.0, 1650.0, 1649.0, 1647.0, 1643.0, 1642.0, 1648.0, 1641.0, 1643.0, 1645.0, 1653.0, 1648.0, 1649.0, 1647.0, 1646.0, 1645.0, 1642.0, 1645.0, 1652.0, 1652.0, 1656.0, 1648.0, 1639.0, 1645.0, 1638.0, 1638.0, 1652.0, 1651.0, 1652.0, 1646.0, 1642.0, 1644.0, 1644.0, 1649.0, 1647.0, 1645.0, 1640.0, 1642.0, 1643.0, 1644.0, 1645.0, 1644.0, 1645.0, 1645.0, 1648.0, 1648.0, 1646.0, 1642.0, 1643.0, 1643.0, 1649.0, 1651.0, 1652.0, 1649.0, 1648.0, 1645.0, 1648.0, 1646.0, 1645.0, 1646.0, 1644.0, 1646.0, 1645.0, 1644.0, 1644.0, 1647.0, 1645.0, 1645.0, 1646.0, 1647.0, 1646.0, 1645.0, 1645.0, 1646.0, 1645.0, 1645.0, 1648.0, 1645.0, 1646.0, 1646.0, 1647.0, 1647.0, 1648.0, 1648.0, 1645.0, 1652.0, 1649.0, 1645.0, 1643.0, 1643.0, 1646.0, 1646.0, 1651.0, 1652.0, 1647.0, 1649.0, 1650.0, 1649.0, 1651.0, 1653.0, 1654.0, 1652.0, 1650.0, 1649.0, 1648.0, 1650.0, 1655.0, 1661.0, 1655.0, 1648.0, 1642.0, 1631.0, 1648.0, 1645.0, 1645.0, 1649.0, 1652.0, 1650.0, 1648.0, 1644.0, 1645.0, 1646.0, 1644.0, 1644.0, 1644.0, 1645.0, 1642.0, 1643.0, 1646.0]
    },
    "slices": {}
  }
}