{
  "AcquisitionMatrixPE": 100,
  "AcquisitionNumber": 1,
  "AcquisitionTime": "12:19:1.725000",
  "BandwidthPerPixelPhaseEncode": 18.519,
  "BaseResolution": 100,
  "BodyPartExamined": "BRAIN",
  "ConsistencyInfo": "N4_VE11C_LATEST_20160120",
  "ConversionSoftware": "dcm2niix",
  "ConversionSoftwareVersion": "v1.0.20180622 GCC4.9.2",
  "DerivedVendorReportedEchoSpacing": 0.000539986,
  "DeviceSerialNumber": "166078",
  "DwellTime": 2.1e-06,
  "EchoTime": 0.034,
  "EchoTrainLength": 100,
  "EffectiveEchoSpacing": 0.000539986,
  "FlipAngle": 90,
  "ImageOrientationPatientDICOM": [0.999451, 0.0030031, 0.0329964, 1.77093e-08, 0.995884, -0.0906388],
  "ImageType": [
    "ORIGINAL",
    "PRIMARY",
    "M",
    "ND",
    "MOSAIC"
],
  "InPlanePhaseEncodingDirectionDICOM": "COL",
  "InstitutionAddress": "Street_StreetNo_Bei_Jing_District_CN_ZIP",
  "InstitutionName": "BeiJing_Normal_University",
  "InstitutionalDepartmentName": "Department",
  "MRAcquisitionType": "2D",
  "MagneticFieldStrength": 3,
  "Manufacturer": "Siemens",
  "ManufacturersModelName": "Prisma",
  "Modality": "MR",
  "MultibandAccelerationFactor": 3,
  "PartialFourier": 1,
  "PatientPosition": "HFS",
  "PercentPhaseFOV": 100,
  "PhaseEncodingDirection": "j-",
  "PhaseEncodingSteps": 100,
  "PhaseResolution": 1,
  "PixelBandwidth": 2380,
  "ProcedureStepDescription": "BNU_P2018_64CH_Liu.Jia",
  "ProtocolName": "bold_100x100_s3_2x2x2_232",
  "PulseSequenceDetails": "%SiemensSeq%_ep2d_bold",
  "ReceiveCoilActiveElements": "HC1-7;NC1",
  "ReceiveCoilName": "HeadNeck_64",
  "ReconMatrixPE": 100,
  "RepetitionTime": 2,
  "SAR": 0.0653837,
  "ScanOptions": "FS",
  "ScanningSequence": "EP",
  "SequenceName": "_epfid2d1_100",
  "SequenceVariant": "SK",
  "SeriesDescription": "bold_100x100_s3_2x2x2_232",
  "SeriesNumber": 10,
  "ShimSetting": [-5454, -11515, -1258, 340, 1, -267, -74, 37],
  "SliceThickness": 2,
  "SliceTiming": [1.485, 0, 0.99, 0.0825, 1.0725, 0.165, 1.155, 0.2475, 1.2375, 0.33, 1.32, 0.4125, 1.4025, 0.5775, 1.5675, 0.66, 1.65, 0.7425, 1.7325, 0.825, 1.815, 0.9075, 1.8975, 0.495, 1.485, 0, 0.99, 0.0825, 1.0725, 0.165, 1.155, 0.2475, 1.2375, 0.33, 1.32, 0.4125, 1.4025, 0.5775, 1.5675, 0.66, 1.65, 0.7425, 1.7325, 0.825, 1.815, 0.9075, 1.8975, 0.495, 1.485, 0, 0.99, 0.0825, 1.0725, 0.165, 1.155, 0.2475, 1.2375, 0.33, 1.32, 0.4125, 1.4025, 0.5775, 1.5675, 0.66, 1.65, 0.7425, 1.7325, 0.825, 1.815, 0.9075, 1.8975, 0.495],
  "SoftwareVersions": "syngo_MR_E11",
  "SpacingBetweenSlices": 2,
  "StationName": "AWP166078",
  "TaskName": "motor",
  "TotalReadoutTime": 0.0534586,
  "TxRefAmp": 222.689,
  "dcmmeta_affine": [
    [-1.9989019632339478, 3.541859072697662e-08, 0.0662655234336853, 99.3802261352539],
    [-0.006006195209920406, 1.9917676448822021, -0.18117815256118774, -82.82722473144531],
    [0.06599276512861252, 0.18127767741680145, 1.9906741380691528, -79.59740447998047],
    [0.0, 0.0, 0.0, 1.0]
],
  "dcmmeta_reorient_transform": [
    [0.0, -1.0, 0.0, 99.0],
    [1.0, 0.0, 0.0, 0.0],
    [0.0, 0.0, 1.0, 0.0],
    [0.0, 0.0, 0.0, 1.0]
],
  "dcmmeta_shape": [100, 100, 72, 232],
  "dcmmeta_slice_dim": 2,
  "dcmmeta_version": 0.6,
  "global": {
    "const": {
      "AcquisitionMatrix": [100, 0, 0, 100],
      "AngioFlag": "N",
      "BitsAllocated": 16,
      "BitsStored": 12,
      "BodyPartExamined": "BRAIN",
      "Columns": 900,
      "EchoNumbers": 1,
      "EchoTime": 34.0,
      "EchoTrainLength": 100,
      "FlipAngle": 90.0,
      "HighBit": 11,
      "ImageOrientationPatient": [0.99945095930776, 0.00300309758102, 0.03299638379749, 1.7709296e-08, 0.99588382873019, -0.0906388419702],
      "ImagePositionPatient": [-898.94101479909, -913.46731079038, -15.536948777412],
      "ImageType": [
        "ORIGINAL",
        "PRIMARY",
        "M",
        "ND",
        "MOSAIC"
],
      "ImagedNucleus": "1H",
      "ImagingFrequency": 123.257815,
      "InPlanePhaseEncodingDirection": "COL",
      "MRAcquisitionType": "2D",
      "MagneticFieldStrength": 3.0,
      "Manufacturer": "SIEMENS",
      "ManufacturerModelName": "Prisma",
      "Modality": "MR",
      "NumberOfAverages": 1.0,
      "NumberOfPhaseEncodingSteps": 100,
      "PercentPhaseFieldOfView": 100.0,
      "PercentSampling": 100.0,
      "PerformedProcedureStepStartTime": "113713.140000",
      "PhotometricInterpretation": "MONOCHROME2",
      "PixelBandwidth": 2380.0,
      "PixelRepresentation": 0,
      "PixelSpacing": [2.0, 2.0],
      "ProtocolName": "bold_100x100_s3_2x2x2_232",
      "RepetitionTime": 2000.0,
      "Rows": 900,
      "SAR": 0.06538365653626,
      "SamplesPerPixel": 1,
      "ScanOptions": "FS",
      "ScanningSequence": "EP",
      "SequenceName": "*epfid2d1_100",
      "SequenceVariant": "SK",
      "SeriesDescription": "bold_100x100_s3_2x2x2_232",
      "SeriesNumber": 10,
      "SeriesTime": "121903.994000",
      "SliceLocation": -68.430263346424,
      "SliceThickness": 2.0,
      "SmallestImagePixelValue": 0,
      "SoftwareVersions": "syngo MR E11",
      "SpacingBetweenSlices": 1.9999999898209,
      "SpecificCharacterSet": "ISO_IR 100",
      "StudyID": "1",
      "StudyTime": "113713.050000",
      "TransmitCoilName": "Body",
      "VariableFlipAngleFlag": "N",
      "WindowCenterWidthExplanation": "Algo1",
      "dBdt": 0.0},
    "slices": {}
  },
  "time": {
    "samples": {
      "AcquisitionNumber": [1, 2, 3, 4, 5, 6, 7, 8, 9, 10, 11, 12, 13, 14, 15, 16, 17, 18, 19, 20, 21, 22, 23, 24, 25, 26, 27, 28, 29, 30, 31, 32, 33, 34, 35, 36, 37, 38, 39, 40, 41, 42, 43, 44, 45, 46, 47, 48, 49, 50, 51, 52, 53, 54, 55, 56, 57, 58, 59, 60, 61, 62, 63, 64, 65, 66, 67, 68, 69, 70, 71, 72, 73, 74, 75, 76, 77, 78, 79, 80, 81, 82, 83, 84, 85, 86, 87, 88, 89, 90, 91, 92, 93, 94, 95, 96, 97, 98, 99, 100, 101, 102, 103, 104, 105, 106, 107, 108, 109, 110, 111, 112, 113, 114, 115, 116, 117, 118, 119, 120, 121, 122, 123, 124, 125, 126, 127, 128, 129, 130, 131, 132, 133, 134, 135, 136, 137, 138, 139, 140, 141, 142, 143, 144, 145, 146, 147, 148, 149, 150, 151, 152, 153, 154, 155, 156, 157, 158, 159, 160, 161, 162, 163, 164, 165, 166, 167, 168, 169, 170, 171, 172, 173, 174, 175, 176, 177, 178, 179, 180, 181, 182, 183, 184, 185, 186, 187, 188, 189, 190, 191, 192, 193, 194, 195, 196, 197, 198, 199, 200, 201, 202, 203, 204, 205, 206, 207, 208, 209, 210, 211, 212, 213, 214, 215, 216, 217, 218, 219, 220, 221, 222, 223, 224, 225, 226, 227, 228, 229, 230, 231, 232],
      "AcquisitionTime": ["121901.725000", "121903.725000", "121905.725000", "121907.725000", "121909.725000", "121911.725000", "121913.725000", "121915.725000", "121917.725000", "121919.725000", "121921.725000", "121923.725000", "121925.725000", "121927.725000", "121929.725000", "121931.725000", "121933.725000", "121935.725000", "121937.725000", "121939.725000", "121941.725000", "121943.725000", "121945.725000", "121947.725000", "121949.725000", "121951.725000", "121953.725000", "121955.725000", "121957.725000", "121959.725000", "122001.725000", "122003.725000", "122005.725000", "122007.725000", "122009.725000", "122011.725000", "122013.725000", "122015.725000", "122017.725000", "122019.725000", "122021.725000", "122023.725000", "122025.725000", "122027.725000", "122029.725000", "122031.725000", "122033.725000", "122035.725000", "122037.725000", "122039.725000", "122041.725000", "122043.725000", "122045.725000", "122047.725000", "122049.725000", "122051.725000", "122053.725000", "122055.725000", "122057.725000", "122059.725000", "122101.725000", "122103.725000", "122105.725000", "122107.725000", "122109.725000", "122111.725000", "122113.725000", "122115.725000", "122117.725000", "122119.725000", "122121.725000", "122123.725000", "122125.725000", "122127.725000", "122129.725000", "122131.725000", "122133.725000", "122135.725000", "122137.725000", "122139.725000", "122141.725000", "122143.725000", "122145.725000", "122147.725000", "122149.725000", "122151.725000", "122153.725000", "122155.725000", "122157.725000", "122159.725000", "122201.725000", "122203.725000", "122205.725000", "122207.725000", "122209.725000", "122211.725000", "122213.725000", "122215.725000", "122217.725000", "122219.725000", "122221.725000", "122223.725000", "122225.725000", "122227.725000", "122229.725000", "122231.725000", "122233.725000", "122235.725000", "122237.725000", "122239.725000", "122241.725000", "122243.725000", "122245.725000", "122247.725000", "122249.725000", "122251.725000", "122253.725000", "122255.725000", "122257.725000", "122259.725000", "122301.725000", "122303.725000", "122305.725000", "122307.725000", "122309.725000", "122311.725000", "122313.725000", "122315.725000", "122317.725000", "122319.725000", "122321.725000", "122323.725000", "122325.725000", "122327.725000", "122329.725000", "122331.725000", "122333.725000", "122335.725000", "122337.725000", "122339.725000", "122341.725000", "122343.725000", "122345.725000", "122347.725000", "122349.725000", "122351.725000", "122353.725000", "122355.725000", "122357.725000", "122359.725000", "122401.725000", "122403.725000", "122405.725000", "122407.725000", "122409.725000", "122411.725000", "122413.725000", "122415.725000", "122417.725000", "122419.725000", "122421.725000", "122423.725000", "122425.725000", "122427.725000", "122429.725000", "122431.725000", "122433.725000", "122435.725000", "122437.725000", "122439.725000", "122441.725000", "122443.725000", "122445.725000", "122447.725000", "122449.725000", "122451.725000", "122453.725000", "122455.725000", "122457.725000", "122459.725000", "122501.725000", "122503.725000", "122505.725000", "122507.725000", "122509.725000", "122511.725000", "122513.725000", "122515.725000", "122517.725000", "122519.725000", "122521.725000", "122523.725000", "122525.725000", "122527.725000", "122529.725000", "122531.725000", "122533.725000", "122535.725000", "122537.725000", "122539.725000", "122541.725000", "122543.725000", "122545.725000", "122547.725000", "122549.725000", "122551.725000", "122553.725000", "122555.725000", "122557.725000", "122559.725000", "122601.725000", "122603.725000", "122605.725000", "122607.725000", "122609.725000", "122611.725000", "122613.725000", "122615.725000", "122617.725000", "122619.725000", "122621.725000", "122623.725000", "122625.725000", "122627.725000", "122629.725000", "122631.725000", "122633.725000", "122635.725000", "122637.725000", "122639.725000", "122641.725000", "122643.725000"],
      "ContentTime": ["121903.998000", "121905.490000", "121907.491000", "121909.492000", "121911.491000", "121913.491000", "121915.491000", "121917.492000", "121919.490000", "121921.491000", "121923.490000", "121925.490000", "121927.492000", "121929.491000", "121931.492000", "121933.491000", "121935.490000", "121937.490000", "121939.491000", "121941.490000", "121943.490000", "121945.491000", "121947.491000", "121949.491000", "121951.492000", "121953.490000", "121955.491000", "121957.491000", "121959.490000", "122001.490000", "122003.491000", "122005.492000", "122007.491000", "122009.491000", "122011.490000", "122013.490000", "122015.490000", "122017.490000", "122019.492000", "122021.491000", "122023.491000", "122025.491000", "122027.491000", "122029.490000", "122031.490000", "122033.490000", "122035.491000", "122037.491000", "122039.492000", "122041.491000", "122043.492000", "122045.491000", "122047.490000", "122049.490000", "122051.490000", "122053.490000", "122055.491000", "122057.491000", "122059.491000", "122101.491000", "122103.490000", "122105.490000", "122107.490000", "122109.491000", "122111.491000", "122113.491000", "122115.491000", "122117.492000", "122119.491000", "122121.490000", "122123.490000", "122125.491000", "122127.491000", "122129.492000", "122131.491000", "122133.491000", "122135.491000", "122137.491000", "122139.490000", "122141.490000", "122143.491000", "122145.491000", "122147.492000", "122149.491000", "122151.491000", "122153.491000", "122155.490000", "122157.490000", "122159.491000", "122201.490000", "122203.490000", "122205.491000", "122207.491000", "122209.491000", "122211.491000", "122213.490000", "122215.490000", "122217.490000", "122219.490000", "122221.491000", "122223.492000", "122225.492000", "122227.491000", "122229.491000", "122231.490000", "122233.490000", "122235.490000", "122237.490000", "122239.491000", "122241.491000", "122243.491000", "122245.492000", "122247.491000", "122249.491000", "122251.490000", "122253.491000", "122255.490000", "122257.491000", "122259.491000", "122301.491000", "122303.491000", "122305.500000", "122307.490000", "122309.490000", "122311.491000", "122313.491000", "122315.491000", "122317.492000", "122319.491000", "122321.491000", "122323.491000", "122325.490000", "122327.490000", "122329.490000", "122331.490000", "122333.491000", "122335.491000", "122337.491000", "122339.491000", "122341.490000", "122343.490000", "122345.490000", "122347.490000", "122349.491000", "122351.491000", "122353.492000", "122355.491000", "122357.492000", "122359.490000", "122401.490000", "122403.490000", "122405.491000", "122407.491000", "122409.492000", "122411.491000", "122413.491000", "122415.490000", "122417.490000", "122419.490000", "122421.490000", "122423.490000", "122425.491000", "122427.491000", "122429.491000", "122431.491000", "122433.491000", "122435.491000", "122437.491000", "122439.491000", "122441.491000", "122443.491000", "122445.492000", "122447.492000", "122449.491000", "122451.490000", "122453.490000", "122455.490000", "122457.490000", "122459.491000", "122501.492000", "122503.492000", "122505.492000", "122507.491000", "122509.491000", "122511.490000", "122513.490000", "122515.491000", "122517.492000", "122519.491000", "122521.492000", "122523.491000", "122525.491000", "122527.490000", "122529.491000", "122531.490000", "122533.490000", "122535.491000", "122537.492000", "122539.492000", "122541.492000", "122543.491000", "122545.490000", "122547.490000", "122549.490000", "122551.491000", "122553.491000", "122555.492000", "122557.492000", "122559.491000", "122601.491000", "122603.490000", "122605.490000", "122607.490000", "122609.491000", "122611.491000", "122613.492000", "122615.492000", "122617.491000", "122619.490000", "122621.491000", "122623.490000", "122625.490000", "122627.491000", "122629.491000", "122631.491000", "122633.492000", "122635.491000", "122637.490000", "122639.490000", "122641.491000", "122643.490000", "122645.164000"],
      "InstanceCreationTime": ["121903.998000", "121905.490000", "121907.491000", "121909.492000", "121911.491000", "121913.491000", "121915.491000", "121917.492000", "121919.490000", "121921.491000", "121923.490000", "121925.490000", "121927.492000", "121929.491000", "121931.492000", "121933.491000", "121935.490000", "121937.490000", "121939.491000", "121941.490000", "121943.490000", "121945.491000", "121947.491000", "121949.491000", "121951.492000", "121953.490000", "121955.491000", "121957.491000", "121959.490000", "122001.490000", "122003.491000", "122005.492000", "122007.491000", "122009.491000", "122011.490000", "122013.490000", "122015.490000", "122017.490000", "122019.492000", "122021.491000", "122023.491000", "122025.491000", "122027.491000", "122029.490000", "122031.490000", "122033.490000", "122035.491000", "122037.491000", "122039.492000", "122041.491000", "122043.492000", "122045.491000", "122047.490000", "122049.490000", "122051.490000", "122053.490000", "122055.491000", "122057.491000", "122059.491000", "122101.491000", "122103.490000", "122105.490000", "122107.490000", "122109.491000", "122111.491000", "122113.491000", "122115.491000", "122117.492000", "122119.491000", "122121.490000", "122123.490000", "122125.491000", "122127.491000", "122129.492000", "122131.491000", "122133.491000", "122135.491000", "122137.491000", "122139.490000", "122141.490000", "122143.491000", "122145.491000", "122147.492000", "122149.491000", "122151.491000", "122153.491000", "122155.490000", "122157.490000", "122159.491000", "122201.490000", "122203.490000", "122205.491000", "122207.491000", "122209.491000", "122211.491000", "122213.490000", "122215.490000", "122217.490000", "122219.490000", "122221.491000", "122223.492000", "122225.492000", "122227.491000", "122229.491000", "122231.490000", "122233.490000", "122235.490000", "122237.490000", "122239.491000", "122241.491000", "122243.491000", "122245.492000", "122247.491000", "122249.491000", "122251.490000", "122253.491000", "122255.490000", "122257.491000", "122259.491000", "122301.491000", "122303.491000", "122305.500000", "122307.490000", "122309.490000", "122311.491000", "122313.491000", "122315.491000", "122317.492000", "122319.491000", "122321.491000", "122323.491000", "122325.490000", "122327.490000", "122329.490000", "122331.490000", "122333.491000", "122335.491000", "122337.491000", "122339.491000", "122341.490000", "122343.490000", "122345.490000", "122347.490000", "122349.491000", "122351.491000", "122353.492000", "122355.491000", "122357.492000", "122359.490000", "122401.490000", "122403.490000", "122405.491000", "122407.491000", "122409.492000", "122411.491000", "122413.491000", "122415.490000", "122417.490000", "122419.490000", "122421.490000", "122423.490000", "122425.491000", "122427.491000", "122429.491000", "122431.491000", "122433.491000", "122435.491000", "122437.491000", "122439.491000", "122441.491000", "122443.491000", "122445.492000", "122447.492000", "122449.491000", "122451.490000", "122453.490000", "122455.490000", "122457.490000", "122459.491000", "122501.492000", "122503.492000", "122505.492000", "122507.491000", "122509.491000", "122511.490000", "122513.490000", "122515.491000", "122517.492000", "122519.491000", "122521.492000", "122523.491000", "122525.491000", "122527.490000", "122529.491000", "122531.490000", "122533.490000", "122535.491000", "122537.492000", "122539.492000", "122541.492000", "122543.491000", "122545.490000", "122547.490000", "122549.490000", "122551.491000", "122553.491000", "122555.492000", "122557.492000", "122559.491000", "122601.491000", "122603.490000", "122605.490000", "122607.490000", "122609.491000", "122611.491000", "122613.492000", "122615.492000", "122617.491000", "122619.490000", "122621.491000", "122623.490000", "122625.490000", "122627.491000", "122629.491000", "122631.491000", "122633.492000", "122635.491000", "122637.490000", "122639.490000", "122641.491000", "122643.490000", "122645.164000"],
      "InstanceNumber": [1, 2, 3, 4, 5, 6, 7, 8, 9, 10, 11, 12, 13, 14, 15, 16, 17, 18, 19, 20, 21, 22, 23, 24, 25, 26, 27, 28, 29, 30, 31, 32, 33, 34, 35, 36, 37, 38, 39, 40, 41, 42, 43, 44, 45, 46, 47, 48, 49, 50, 51, 52, 53, 54, 55, 56, 57, 58, 59, 60, 61, 62, 63, 64, 65, 66, 67, 68, 69, 70, 71, 72, 73, 74, 75, 76, 77, 78, 79, 80, 81, 82, 83, 84, 85, 86, 87, 88, 89, 90, 91, 92, 93, 94, 95, 96, 97, 98, 99, 100, 101, 102, 103, 104, 105, 106, 107, 108, 109, 110, 111, 112, 113, 114, 115, 116, 117, 118, 119, 120, 121, 122, 123, 124, 125, 126, 127, 128, 129, 130, 131, 132, 133, 134, 135, 136, 137, 138, 139, 140, 141, 142, 143, 144, 145, 146, 147, 148, 149, 150, 151, 152, 153, 154, 155, 156, 157, 158, 159, 160, 161, 162, 163, 164, 165, 166, 167, 168, 169, 170, 171, 172, 173, 174, 175, 176, 177, 178, 179, 180, 181, 182, 183, 184, 185, 186, 187, 188, 189, 190, 191, 192, 193, 194, 195, 196, 197, 198, 199, 200, 201, 202, 203, 204, 205, 206, 207, 208, 209, 210, 211, 212, 213, 214, 215, 216, 217, 218, 219, 220, 221, 222, 223, 224, 225, 226, 227, 228, 229, 230, 231, 232],
      "LargestImagePixelValue": [3412, 3383, 3358, 3343, 3345, 3366, 3364, 3370, 3355, 3320, 3321, 3307, 3327, 3301, 3295, 3322, 3305, 3302, 3301, 3299, 3306, 3304, 3314, 3303, 3292, 3299, 3311, 3337, 3289, 3278, 3306, 3285, 3317, 3247, 3250, 3254, 3300, 3298, 3259, 3262, 3312, 3291, 3271, 3271, 3340, 3311, 3309, 3376, 3299, 3304, 3293, 3287, 3296, 3292, 3297, 3336, 3324, 3315, 3356, 3314, 3326, 3293, 3325, 3308, 3296, 3301, 3299, 3297, 3310, 3302, 3308, 3330, 3293, 3301, 3290, 3315, 3368, 3310, 3323, 3313, 3318, 3338, 3309, 3324, 3351, 3329, 3345, 3321, 3334, 3365, 3336, 3358, 3355, 3343, 3329, 3344, 3308, 3328, 3324, 3308, 3347, 3290, 3286, 3290, 3293, 3310, 3296, 3302, 3425, 3316, 3298, 3308, 3307, 3308, 3314, 3323, 3307, 3301, 3322, 3304, 3323, 3323, 3313, 3324, 3307, 3319, 3295, 3317, 3326, 3309, 3296, 3310, 3285, 3285, 3298, 3286, 3278, 3303, 3291, 3287, 3287, 3300, 3311, 3274, 3297, 3297, 3282, 3302, 3300, 3311, 3283, 3291, 3288, 3291, 3397, 3325, 3345, 3319, 3299, 3434, 3259, 3310, 3287, 3315, 3305, 3300, 3294, 3309, 3303, 3320, 3299, 3319, 3303, 3309, 3332, 3315, 3299, 3300, 3317, 3295, 3336, 3343, 3325, 3313, 3312, 3305, 3306, 3306, 3352, 3344, 3301, 3270, 3347, 3249, 3290, 3287, 3309, 3282, 3309, 3297, 3299, 3346, 3255, 3320, 3307, 3312, 3302, 3279, 3268, 3314, 3274, 3289, 3267, 3264, 3304, 3289, 3299, 3319, 3301, 3301, 3274, 3296, 3303, 3275, 3285, 3311, 3261, 3298, 3294, 3321, 3298, 3296],
      "WindowCenter": [769.0, 767.0, 767.0, 768.0, 768.0, 767.0, 766.0, 766.0, 766.0, 766.0, 766.0, 768.0, 767.0, 767.0, 766.0, 766.0, 766.0, 767.0, 767.0, 767.0, 766.0, 766.0, 767.0, 767.0, 766.0, 766.0, 766.0, 766.0, 766.0, 765.0, 766.0, 765.0, 766.0, 766.0, 766.0, 764.0, 765.0, 766.0, 766.0, 765.0, 765.0, 765.0, 764.0, 763.0, 766.0, 761.0, 765.0, 767.0, 766.0, 766.0, 765.0, 765.0, 765.0, 766.0, 766.0, 767.0, 767.0, 766.0, 767.0, 768.0, 768.0, 766.0, 768.0, 767.0, 765.0, 765.0, 765.0, 765.0, 765.0, 767.0, 766.0, 766.0, 763.0, 764.0, 765.0, 765.0, 766.0, 764.0, 765.0, 765.0, 767.0, 766.0, 764.0, 765.0, 768.0, 768.0, 767.0, 768.0, 767.0, 769.0, 768.0, 769.0, 768.0, 767.0, 765.0, 766.0, 766.0, 767.0, 767.0, 767.0, 767.0, 766.0, 765.0, 764.0, 764.0, 765.0, 767.0, 766.0, 766.0, 763.0, 761.0, 762.0, 763.0, 765.0, 766.0, 766.0, 766.0, 765.0, 765.0, 764.0, 765.0, 767.0, 768.0, 769.0, 768.0, 766.0, 766.0, 766.0, 768.0, 769.0, 768.0, 766.0, 764.0, 763.0, 764.0, 766.0, 765.0, 764.0, 764.0, 764.0, 764.0, 767.0, 767.0, 766.0, 765.0, 765.0, 765.0, 766.0, 766.0, 767.0, 766.0, 765.0, 766.0, 768.0, 770.0, 770.0, 768.0, 769.0, 767.0, 769.0, 766.0, 768.0, 766.0, 767.0, 768.0, 767.0, 766.0, 766.0, 767.0, 769.0, 769.0, 768.0, 766.0, 766.0, 767.0, 767.0, 766.0, 767.0, 767.0, 768.0, 768.0, 769.0, 768.0, 768.0, 767.0, 767.0, 770.0, 770.0, 772.0, 766.0, 766.0, 766.0, 766.0, 763.0, 769.0, 767.0, 762.0, 769.0, 768.0, 767.0, 766.0, 765.0, 763.0, 769.0, 768.0, 768.0, 767.0, 766.0, 766.0, 766.0, 766.0, 766.0, 766.0, 765.0, 765.0, 765.0, 766.0, 768.0, 769.0, 769.0, 767.0, 766.0, 765.0, 765.0, 766.0, 766.0, 765.0, 766.0, 768.0, 767.0, 767.0, 766.0],
      "WindowWidth": [1652.0, 1648.0, 1648.0, 1650.0, 1649.0, 1646.0, 1643.0, 1644.0, 1645.0, 1643.0, 1645.0, 1650.0, 1647.0, 1646.0, 1643.0, 1645.0, 1644.0, 1645.0, 1647.0, 1646.0, 1645.0, 1645.0, 1647.0, 1646.0, 1643.0, 1643.0, 1643.0, 1644.0, 1643.0, 1641.0, 1642.0, 1640.0, 1643.0, 1643.0, 1643.0, 1639.0, 1640.0, 1643.0, 1643.0, 1641.0, 1640.0, 1639.0, 1639.0, 1634.0, 1644.0, 1630.0, 1641.0, 1646.0, 1644.0, 1643.0, 1640.0, 1641.0, 1641.0, 1643.0, 1643.0, 1645.0, 1645.0, 1644.0, 1646.0, 1647.0, 1647.0, 1644.0, 1648.0, 1645.0, 1641.0, 1639.0, 1639.0, 1640.0, 1641.0, 1645.0, 1642.0, 1642.0, 1636.0, 1638.0, 1640.0, 1641.0, 1643.0, 1639.0, 1641.0, 1641.0, 1647.0, 1643.0, 1638.0, 1642.0, 1648.0, 1648.0, 1647.0, 1648.0, 1646.0, 1650.0, 1648.0, 1651.0, 1649.0, 1646.0, 1642.0, 1644.0, 1644.0, 1646.0, 1645.0, 1645.0, 1645.0, 1644.0, 1641.0, 1639.0, 1639.0, 1641.0, 1645.0, 1643.0, 1642.0, 1635.0, 1630.0, 1633.0, 1636.0, 1640.0, 1643.0, 1643.0, 1643.0, 1641.0, 1640.0, 1638.0, 1639.0, 1646.0, 1649.0, 1652.0, 1648.0, 1643.0, 1642.0, 1644.0, 1648.0, 1651.0, 1649.0, 1644.0, 1638.0, 1637.0, 1640.0, 1642.0, 1640.0, 1639.0, 1638.0, 1640.0, 1639.0, 1647.0, 1647.0, 1644.0, 1639.0, 1641.0, 1641.0, 1644.0, 1644.0, 1645.0, 1642.0, 1642.0, 1644.0, 1649.0, 1655.0, 1653.0, 1648.0, 1651.0, 1647.0, 1651.0, 1643.0, 1647.0, 1643.0, 1646.0, 1647.0, 1645.0, 1643.0, 1644.0, 1646.0, 1650.0, 1651.0, 1648.0, 1644.0, 1643.0, 1646.0, 1645.0, 1644.0, 1646.0, 1646.0, 1647.0, 1647.0, 1650.0, 1649.0, 1649.0, 1647.0, 1647.0, 1654.0, 1655.0, 1659.0, 1645.0, 1645.0, 1643.0, 1643.0, 1636.0, 1650.0, 1647.0, 1634.0, 1651.0, 1649.0, 1645.0, 1643.0, 1641.0, 1637.0, 1651.0, 1648.0, 1648.0, 1644.0, 1644.0, 1642.0, 1643.0, 1642.0, 1643.0, 1643.0, 1640.0, 1639.0, 1641.0, 1643.0, 1648.0, 1650.0, 1650.0, 1646.0, 1642.0, 1640.0, 1640.0, 1641.0, 1642.0, 1641.0, 1643.0, 1647.0, 1646.0, 1645.0, 1642.0]
    },
    "slices": {}
  }
}