{
  "AcquisitionMatrixPE": 100,
  "AcquisitionNumber": 1,
  "AcquisitionTime": "11:58:6.345000",
  "BandwidthPerPixelPhaseEncode": 18.519,
  "BaseResolution": 100,
  "BodyPartExamined": "BRAIN",
  "ConsistencyInfo": "N4_VE11C_LATEST_20160120",
  "ConversionSoftware": "dcm2niix",
  "ConversionSoftwareVersion": "v1.0.20180622 GCC4.9.2",
  "DerivedVendorReportedEchoSpacing": 0.000539986,
  "DeviceSerialNumber": "166078",
  "DwellTime": 2.1e-06,
  "EchoTime": 0.034,
  "EchoTrainLength": 100,
  "EffectiveEchoSpacing": 0.000539986,
  "FlipAngle": 90,
  "ImageOrientationPatientDICOM": [0.999451, 0.0030031, 0.0329964, 1.77093e-08, 0.995884, -0.0906388],
  "ImageType": [
    "ORIGINAL",
    "PRIMARY",
    "M",
    "ND",
    "MOSAIC"
],
  "InPlanePhaseEncodingDirectionDICOM": "COL",
  "InstitutionAddress": "Street_StreetNo_Bei_Jing_District_CN_ZIP",
  "InstitutionName": "BeiJing_Normal_University",
  "InstitutionalDepartmentName": "Department",
  "MRAcquisitionType": "2D",
  "MagneticFieldStrength": 3,
  "Manufacturer": "Siemens",
  "ManufacturersModelName": "Prisma",
  "Modality": "MR",
  "MultibandAccelerationFactor": 3,
  "PartialFourier": 1,
  "PatientPosition": "HFS",
  "PercentPhaseFOV": 100,
  "PhaseEncodingDirection": "j-",
  "PhaseEncodingSteps": 100,
  "PhaseResolution": 1,
  "PixelBandwidth": 2380,
  "ProcedureStepDescription": "BNU_P2018_64CH_Liu.Jia",
  "ProtocolName": "bold_100x100_s3_2x2x2_232",
  "PulseSequenceDetails": "%SiemensSeq%_ep2d_bold",
  "ReceiveCoilActiveElements": "HC1-7;NC1",
  "ReceiveCoilName": "HeadNeck_64",
  "ReconMatrixPE": 100,
  "RepetitionTime": 2,
  "SAR": 0.0653837,
  "ScanOptions": "FS",
  "ScanningSequence": "EP",
  "SequenceName": "_epfid2d1_100",
  "SequenceVariant": "SK",
  "SeriesDescription": "bold_100x100_s3_2x2x2_232",
  "SeriesNumber": 6,
  "ShimSetting": [-5454, -11515, -1258, 340, 1, -267, -74, 37],
  "SliceThickness": 2,
  "SliceTiming": [1.485, 0, 0.99, 0.0825, 1.0725, 0.165, 1.155, 0.2475, 1.2375, 0.33, 1.32, 0.4125, 1.4025, 0.5775, 1.5675, 0.66, 1.65, 0.7425, 1.7325, 0.825, 1.815, 0.9075, 1.8975, 0.495, 1.485, 0, 0.99, 0.0825, 1.0725, 0.165, 1.155, 0.2475, 1.2375, 0.33, 1.32, 0.4125, 1.4025, 0.5775, 1.5675, 0.66, 1.65, 0.7425, 1.7325, 0.825, 1.815, 0.9075, 1.8975, 0.495, 1.485, 0, 0.99, 0.0825, 1.0725, 0.165, 1.155, 0.2475, 1.2375, 0.33, 1.32, 0.4125, 1.4025, 0.5775, 1.5675, 0.66, 1.65, 0.7425, 1.7325, 0.825, 1.815, 0.9075, 1.8975, 0.495],
  "SoftwareVersions": "syngo_MR_E11",
  "SpacingBetweenSlices": 2,
  "StationName": "AWP166078",
  "TaskName": "motor",
  "TotalReadoutTime": 0.0534586,
  "TxRefAmp": 222.689,
  "dcmmeta_affine": [
    [-1.9989019632339478, 3.541859072697662e-08, 0.0662655234336853, 99.3802261352539],
    [-0.006006195209920406, 1.9917676448822021, -0.18117815256118774, -82.82722473144531],
    [0.06599276512861252, 0.18127767741680145, 1.9906741380691528, -79.59740447998047],
    [0.0, 0.0, 0.0, 1.0]
],
  "dcmmeta_reorient_transform": [
    [0.0, -1.0, 0.0, 99.0],
    [1.0, 0.0, 0.0, 0.0],
    [0.0, 0.0, 1.0, 0.0],
    [0.0, 0.0, 0.0, 1.0]
],
  "dcmmeta_shape": [100, 100, 72, 232],
  "dcmmeta_slice_dim": 2,
  "dcmmeta_version": 0.6,
  "global": {
    "const": {
      "AcquisitionMatrix": [100, 0, 0, 100],
      "AngioFlag": "N",
      "BitsAllocated": 16,
      "BitsStored": 12,
      "BodyPartExamined": "BRAIN",
      "Columns": 900,
      "EchoNumbers": 1,
      "EchoTime": 34.0,
      "EchoTrainLength": 100,
      "FlipAngle": 90.0,
      "HighBit": 11,
      "ImageOrientationPatient": [0.99945095930776, 0.00300309758102, 0.03299638379749, 1.7709296e-08, 0.99588382873019, -0.0906388419702],
      "ImagePositionPatient": [-898.94101479909, -913.46731079038, -15.536948777412],
      "ImageType": [
        "ORIGINAL",
        "PRIMARY",
        "M",
        "ND",
        "MOSAIC"
],
      "ImagedNucleus": "1H",
      "ImagingFrequency": 123.257811,
      "InPlanePhaseEncodingDirection": "COL",
      "MRAcquisitionType": "2D",
      "MagneticFieldStrength": 3.0,
      "Manufacturer": "SIEMENS",
      "ManufacturerModelName": "Prisma",
      "Modality": "MR",
      "NumberOfAverages": 1.0,
      "NumberOfPhaseEncodingSteps": 100,
      "PercentPhaseFieldOfView": 100.0,
      "PercentSampling": 100.0,
      "PerformedProcedureStepStartTime": "113713.140000",
      "PhotometricInterpretation": "MONOCHROME2",
      "PixelBandwidth": 2380.0,
      "PixelRepresentation": 0,
      "PixelSpacing": [2.0, 2.0],
      "ProtocolName": "bold_100x100_s3_2x2x2_232",
      "RepetitionTime": 2000.0,
      "Rows": 900,
      "SAR": 0.06538365653626,
      "SamplesPerPixel": 1,
      "ScanOptions": "FS",
      "ScanningSequence": "EP",
      "SequenceName": "*epfid2d1_100",
      "SequenceVariant": "SK",
      "SeriesDescription": "bold_100x100_s3_2x2x2_232",
      "SeriesNumber": 6,
      "SeriesTime": "115809.159000",
      "SliceLocation": -68.430263346424,
      "SliceThickness": 2.0,
      "SmallestImagePixelValue": 0,
      "SoftwareVersions": "syngo MR E11",
      "SpacingBetweenSlices": 1.9999999898209,
      "SpecificCharacterSet": "ISO_IR 100",
      "StudyID": "1",
      "StudyTime": "113713.050000",
      "TransmitCoilName": "Body",
      "VariableFlipAngleFlag": "N",
      "WindowCenterWidthExplanation": "Algo1",
      "dBdt": 0.0},
    "slices": {}
  },
  "time": {
    "samples": {
      "AcquisitionNumber": [1, 2, 3, 4, 5, 6, 7, 8, 9, 10, 11, 12, 13, 14, 15, 16, 17, 18, 19, 20, 21, 22, 23, 24, 25, 26, 27, 28, 29, 30, 31, 32, 33, 34, 35, 36, 37, 38, 39, 40, 41, 42, 43, 44, 45, 46, 47, 48, 49, 50, 51, 52, 53, 54, 55, 56, 57, 58, 59, 60, 61, 62, 63, 64, 65, 66, 67, 68, 69, 70, 71, 72, 73, 74, 75, 76, 77, 78, 79, 80, 81, 82, 83, 84, 85, 86, 87, 88, 89, 90, 91, 92, 93, 94, 95, 96, 97, 98, 99, 100, 101, 102, 103, 104, 105, 106, 107, 108, 109, 110, 111, 112, 113, 114, 115, 116, 117, 118, 119, 120, 121, 122, 123, 124, 125, 126, 127, 128, 129, 130, 131, 132, 133, 134, 135, 136, 137, 138, 139, 140, 141, 142, 143, 144, 145, 146, 147, 148, 149, 150, 151, 152, 153, 154, 155, 156, 157, 158, 159, 160, 161, 162, 163, 164, 165, 166, 167, 168, 169, 170, 171, 172, 173, 174, 175, 176, 177, 178, 179, 180, 181, 182, 183, 184, 185, 186, 187, 188, 189, 190, 191, 192, 193, 194, 195, 196, 197, 198, 199, 200, 201, 202, 203, 204, 205, 206, 207, 208, 209, 210, 211, 212, 213, 214, 215, 216, 217, 218, 219, 220, 221, 222, 223, 224, 225, 226, 227, 228, 229, 230, 231, 232],
      "AcquisitionTime": ["115806.345000", "115808.345000", "115810.345000", "115812.345000", "115814.345000", "115816.345000", "115818.345000", "115820.345000", "115822.345000", "115824.345000", "115826.345000", "115828.345000", "115830.345000", "115832.345000", "115834.345000", "115836.345000", "115838.345000", "115840.345000", "115842.345000", "115844.345000", "115846.345000", "115848.345000", "115850.345000", "115852.345000", "115854.345000", "115856.345000", "115858.345000", "115900.345000", "115902.345000", "115904.345000", "115906.345000", "115908.345000", "115910.345000", "115912.345000", "115914.345000", "115916.345000", "115918.345000", "115920.345000", "115922.345000", "115924.345000", "115926.345000", "115928.345000", "115930.345000", "115932.345000", "115934.345000", "115936.345000", "115938.345000", "115940.345000", "115942.345000", "115944.345000", "115946.345000", "115948.345000", "115950.345000", "115952.345000", "115954.345000", "115956.345000", "115958.345000", "120000.345000", "120002.345000", "120004.345000", "120006.345000", "120008.345000", "120010.345000", "120012.345000", "120014.345000", "120016.345000", "120018.345000", "120020.345000", "120022.345000", "120024.345000", "120026.345000", "120028.345000", "120030.345000", "120032.345000", "120034.345000", "120036.345000", "120038.345000", "120040.345000", "120042.345000", "120044.345000", "120046.345000", "120048.345000", "120050.345000", "120052.345000", "120054.345000", "120056.345000", "120058.345000", "120100.345000", "120102.345000", "120104.345000", "120106.345000", "120108.345000", "120110.345000", "120112.345000", "120114.345000", "120116.345000", "120118.345000", "120120.345000", "120122.345000", "120124.345000", "120126.345000", "120128.345000", "120130.345000", "120132.345000", "120134.345000", "120136.345000", "120138.345000", "120140.345000", "120142.345000", "120144.345000", "120146.345000", "120148.345000", "120150.345000", "120152.345000", "120154.345000", "120156.345000", "120158.345000", "120200.345000", "120202.345000", "120204.345000", "120206.345000", "120208.345000", "120210.345000", "120212.345000", "120214.345000", "120216.345000", "120218.345000", "120220.345000", "120222.345000", "120224.345000", "120226.345000", "120228.345000", "120230.345000", "120232.345000", "120234.345000", "120236.345000", "120238.345000", "120240.345000", "120242.345000", "120244.345000", "120246.345000", "120248.345000", "120250.345000", "120252.345000", "120254.345000", "120256.345000", "120258.345000", "120300.345000", "120302.345000", "120304.345000", "120306.345000", "120308.345000", "120310.345000", "120312.345000", "120314.345000", "120316.345000", "120318.345000", "120320.345000", "120322.345000", "120324.345000", "120326.345000", "120328.345000", "120330.345000", "120332.345000", "120334.345000", "120336.345000", "120338.345000", "120340.345000", "120342.345000", "120344.345000", "120346.345000", "120348.345000", "120350.345000", "120352.345000", "120354.345000", "120356.345000", "120358.345000", "120400.345000", "120402.345000", "120404.345000", "120406.345000", "120408.345000", "120410.345000", "120412.345000", "120414.345000", "120416.345000", "120418.345000", "120420.345000", "120422.345000", "120424.345000", "120426.345000", "120428.345000", "120430.345000", "120432.345000", "120434.345000", "120436.345000", "120438.345000", "120440.345000", "120442.345000", "120444.345000", "120446.345000", "120448.345000", "120450.345000", "120452.345000", "120454.345000", "120456.345000", "120458.345000", "120500.345000", "120502.345000", "120504.345000", "120506.345000", "120508.345000", "120510.345000", "120512.345000", "120514.345000", "120516.345000", "120518.345000", "120520.345000", "120522.345000", "120524.345000", "120526.345000", "120528.345000", "120530.345000", "120532.345000", "120534.345000", "120536.345000", "120538.345000", "120540.345000", "120542.345000", "120544.345000", "120546.345000", "120548.345000"],
      "ContentTime": ["115809.162000", "115810.659000", "115812.658000", "115814.659000", "115816.658000", "115818.658000", "115820.658000", "115822.658000", "115824.658000", "115826.658000", "115828.659000", "115830.658000", "115832.658000", "115834.658000", "115836.658000", "115838.659000", "115840.658000", "115842.658000", "115844.658000", "115846.660000", "115848.658000", "115850.658000", "115852.658000", "115854.658000", "115856.658000", "115858.659000", "115900.659000", "115902.659000", "115904.660000", "115906.659000", "115908.659000", "115910.658000", "115912.658000", "115914.658000", "115916.659000", "115918.658000", "115920.659000", "115922.658000", "115924.658000", "115926.658000", "115928.658000", "115930.658000", "115932.658000", "115934.659000", "115936.658000", "115938.660000", "115940.658000", "115942.658000", "115944.658000", "115946.658000", "115948.658000", "115950.659000", "115952.658000", "115954.659000", "115956.659000", "115958.658000", "120000.658000", "120002.659000", "120004.658000", "120006.658000", "120008.659000", "120010.658000", "120012.658000", "120014.659000", "120016.659000", "120018.659000", "120020.658000", "120022.658000", "120024.658000", "120026.658000", "120028.658000", "120030.659000", "120032.659000", "120034.658000", "120036.659000", "120038.659000", "120040.658000", "120042.658000", "120044.658000", "120046.659000", "120048.660000", "120050.659000", "120052.658000", "120054.658000", "120056.658000", "120058.659000", "120100.659000", "120102.658000", "120104.658000", "120106.659000", "120108.659000", "120110.658000", "120112.659000", "120114.658000", "120116.658000", "120118.658000", "120120.659000", "120122.659000", "120124.659000", "120126.658000", "120128.658000", "120130.658000", "120132.658000", "120134.658000", "120136.659000", "120138.659000", "120140.660000", "120142.658000", "120144.659000", "120146.658000", "120148.659000", "120150.658000", "120152.658000", "120154.658000", "120156.659000", "120159.160000", "120201.159000", "120202.658000", "120204.658000", "120206.658000", "120208.658000", "120210.658000", "120212.659000", "120214.658000", "120216.659000", "120218.658000", "120220.659000", "120222.659000", "120224.658000", "120226.659000", "120228.658000", "120230.658000", "120232.658000", "120234.659000", "120236.658000", "120238.658000", "120240.678000", "120242.658000", "120244.658000", "120246.658000", "120248.659000", "120250.659000", "120252.659000", "120254.658000", "120256.658000", "120258.658000", "120300.659000", "120302.658000", "120304.658000", "120306.659000", "120308.659000", "120310.659000", "120312.659000", "120314.659000", "120316.676000", "120318.658000", "120320.658000", "120322.658000", "120324.658000", "120326.659000", "120328.659000", "120330.659000", "120332.658000", "120334.659000", "120336.658000", "120338.658000", "120340.658000", "120342.659000", "120344.660000", "120346.658000", "120348.659000", "120350.659000", "120352.659000", "120354.658000", "120356.658000", "120358.659000", "120400.660000", "120402.658000", "120404.659000", "120406.658000", "120408.659000", "120410.658000", "120412.659000", "120414.658000", "120416.658000", "120418.659000", "120420.658000", "120422.659000", "120424.658000", "120426.658000", "120428.658000", "120430.658000", "120432.658000", "120434.658000", "120436.659000", "120438.658000", "120440.658000", "120442.658000", "120444.659000", "120446.658000", "120448.659000", "120450.658000", "120452.659000", "120454.660000", "120456.659000", "120458.659000", "120500.659000", "120502.659000", "120504.658000", "120506.659000", "120508.659000", "120510.659000", "120512.659000", "120514.658000", "120516.659000", "120518.658000", "120520.658000", "120522.658000", "120524.659000", "120526.658000", "120528.659000", "120530.658000", "120532.659000", "120534.658000", "120536.658000", "120538.658000", "120540.658000", "120542.658000", "120544.659000", "120546.659000", "120548.658000", "120550.448000"],
      "InstanceCreationTime": ["115809.162000", "115810.659000", "115812.658000", "115814.659000", "115816.658000", "115818.658000", "115820.658000", "115822.658000", "115824.658000", "115826.658000", "115828.659000", "115830.658000", "115832.658000", "115834.658000", "115836.658000", "115838.659000", "115840.658000", "115842.658000", "115844.658000", "115846.660000", "115848.658000", "115850.658000", "115852.658000", "115854.658000", "115856.658000", "115858.659000", "115900.659000", "115902.659000", "115904.660000", "115906.659000", "115908.659000", "115910.658000", "115912.658000", "115914.658000", "115916.659000", "115918.658000", "115920.659000", "115922.658000", "115924.658000", "115926.658000", "115928.658000", "115930.658000", "115932.658000", "115934.659000", "115936.658000", "115938.660000", "115940.658000", "115942.658000", "115944.658000", "115946.658000", "115948.658000", "115950.659000", "115952.658000", "115954.659000", "115956.659000", "115958.658000", "120000.658000", "120002.659000", "120004.658000", "120006.658000", "120008.659000", "120010.658000", "120012.658000", "120014.659000", "120016.659000", "120018.659000", "120020.658000", "120022.658000", "120024.658000", "120026.658000", "120028.658000", "120030.659000", "120032.659000", "120034.658000", "120036.659000", "120038.659000", "120040.658000", "120042.658000", "120044.658000", "120046.659000", "120048.660000", "120050.659000", "120052.658000", "120054.658000", "120056.658000", "120058.659000", "120100.659000", "120102.658000", "120104.658000", "120106.659000", "120108.659000", "120110.658000", "120112.659000", "120114.658000", "120116.658000", "120118.658000", "120120.659000", "120122.659000", "120124.659000", "120126.658000", "120128.658000", "120130.658000", "120132.658000", "120134.658000", "120136.659000", "120138.659000", "120140.660000", "120142.658000", "120144.659000", "120146.658000", "120148.659000", "120150.658000", "120152.658000", "120154.658000", "120156.659000", "120159.160000", "120201.159000", "120202.658000", "120204.658000", "120206.658000", "120208.658000", "120210.658000", "120212.659000", "120214.658000", "120216.659000", "120218.658000", "120220.659000", "120222.659000", "120224.658000", "120226.659000", "120228.658000", "120230.658000", "120232.658000", "120234.659000", "120236.658000", "120238.658000", "120240.678000", "120242.658000", "120244.658000", "120246.658000", "120248.659000", "120250.659000", "120252.659000", "120254.658000", "120256.658000", "120258.658000", "120300.659000", "120302.658000", "120304.658000", "120306.659000", "120308.659000", "120310.659000", "120312.659000", "120314.659000", "120316.676000", "120318.658000", "120320.658000", "120322.658000", "120324.658000", "120326.659000", "120328.659000", "120330.659000", "120332.658000", "120334.659000", "120336.658000", "120338.658000", "120340.658000", "120342.659000", "120344.660000", "120346.658000", "120348.659000", "120350.659000", "120352.659000", "120354.658000", "120356.658000", "120358.659000", "120400.660000", "120402.658000", "120404.659000", "120406.658000", "120408.659000", "120410.658000", "120412.659000", "120414.658000", "120416.658000", "120418.659000", "120420.658000", "120422.659000", "120424.658000", "120426.658000", "120428.658000", "120430.658000", "120432.658000", "120434.658000", "120436.659000", "120438.658000", "120440.658000", "120442.658000", "120444.659000", "120446.658000", "120448.659000", "120450.658000", "120452.659000", "120454.660000", "120456.659000", "120458.659000", "120500.659000", "120502.659000", "120504.658000", "120506.659000", "120508.659000", "120510.659000", "120512.659000", "120514.658000", "120516.659000", "120518.658000", "120520.658000", "120522.658000", "120524.659000", "120526.658000", "120528.659000", "120530.658000", "120532.659000", "120534.658000", "120536.658000", "120538.658000", "120540.658000", "120542.658000", "120544.659000", "120546.659000", "120548.658000", "120550.448000"],
      "InstanceNumber": [1, 2, 3, 4, 5, 6, 7, 8, 9, 10, 11, 12, 13, 14, 15, 16, 17, 18, 19, 20, 21, 22, 23, 24, 25, 26, 27, 28, 29, 30, 31, 32, 33, 34, 35, 36, 37, 38, 39, 40, 41, 42, 43, 44, 45, 46, 47, 48, 49, 50, 51, 52, 53, 54, 55, 56, 57, 58, 59, 60, 61, 62, 63, 64, 65, 66, 67, 68, 69, 70, 71, 72, 73, 74, 75, 76, 77, 78, 79, 80, 81, 82, 83, 84, 85, 86, 87, 88, 89, 90, 91, 92, 93, 94, 95, 96, 97, 98, 99, 100, 101, 102, 103, 104, 105, 106, 107, 108, 109, 110, 111, 112, 113, 114, 115, 116, 117, 118, 119, 120, 121, 122, 123, 124, 125, 126, 127, 128, 129, 130, 131, 132, 133, 134, 135, 136, 137, 138, 139, 140, 141, 142, 143, 144, 145, 146, 147, 148, 149, 150, 151, 152, 153, 154, 155, 156, 157, 158, 159, 160, 161, 162, 163, 164, 165, 166, 167, 168, 169, 170, 171, 172, 173, 174, 175, 176, 177, 178, 179, 180, 181, 182, 183, 184, 185, 186, 187, 188, 189, 190, 191, 192, 193, 194, 195, 196, 197, 198, 199, 200, 201, 202, 203, 204, 205, 206, 207, 208, 209, 210, 211, 212, 213, 214, 215, 216, 217, 218, 219, 220, 221, 222, 223, 224, 225, 226, 227, 228, 229, 230, 231, 232],
      "LargestImagePixelValue": [3384, 3339, 3327, 3304, 3307, 3310, 3321, 3311, 3320, 3321, 3347, 3333, 3307, 3316, 3310, 3297, 3306, 3315, 3315, 3299, 3323, 3305, 3322, 3321, 3326, 3354, 3320, 3330, 3335, 3362, 3322, 3313, 3351, 3350, 3322, 3347, 3355, 3334, 3317, 3337, 3346, 3327, 3356, 3314, 3299, 3404, 3339, 3310, 3348, 3338, 3358, 3323, 3322, 3307, 3311, 3317, 3310, 3315, 3346, 3325, 3345, 3332, 3333, 3322, 3324, 3315, 3343, 3328, 3344, 3325, 3349, 3314, 3330, 3317, 3305, 3334, 3319, 3338, 3348, 3319, 3332, 3313, 3319, 3325, 3315, 3311, 3309, 3330, 3325, 3312, 3302, 3320, 3324, 3320, 3316, 3325, 3337, 3324, 3308, 3317, 3322, 3300, 3324, 3317, 3333, 3332, 3308, 3292, 3294, 3289, 3236, 3428, 3350, 3330, 3379, 3363, 3336, 3337, 3315, 3333, 3319, 3321, 3377, 3341, 3344, 3304, 3324, 3312, 3325, 3262, 3281, 3327, 3309, 3352, 3326, 3334, 3321, 3341, 3328, 3315, 3341, 3304, 3329, 3341, 3328, 3318, 3339, 3334, 3321, 3349, 3308, 3326, 3313, 3338, 3335, 3328, 3329, 3320, 3341, 3324, 3320, 3343, 3322, 3317, 3331, 3308, 3316, 3306, 3317, 3294, 3295, 3289, 3295, 3292, 3315, 3316, 3308, 3301, 3311, 3296, 3300, 3306, 3327, 3305, 3331, 3328, 3373, 3314, 3424, 3333, 3443, 3298, 3334, 3382, 3468, 3289, 3310, 3334, 3355, 3357, 3352, 3323, 3338, 3313, 3317, 3311, 3315, 3327, 3303, 3318, 3346, 3321, 3300, 3295, 3311, 3297, 3332, 3335, 3309, 3345, 3345, 3342, 3329, 3333, 3310, 3354, 3342, 3338, 3308, 3348, 3310, 3305],
      "WindowCenter": [767.0, 765.0, 766.0, 765.0, 765.0, 765.0, 766.0, 766.0, 768.0, 772.0, 772.0, 769.0, 767.0, 765.0, 764.0, 764.0, 764.0, 763.0, 764.0, 765.0, 766.0, 765.0, 766.0, 765.0, 766.0, 765.0, 766.0, 767.0, 767.0, 767.0, 767.0, 767.0, 769.0, 770.0, 770.0, 768.0, 768.0, 768.0, 768.0, 768.0, 769.0, 768.0, 768.0, 770.0, 768.0, 769.0, 768.0, 768.0, 768.0, 767.0, 768.0, 767.0, 769.0, 769.0, 768.0, 767.0, 767.0, 766.0, 768.0, 769.0, 769.0, 768.0, 767.0, 765.0, 765.0, 768.0, 770.0, 769.0, 768.0, 767.0, 767.0, 767.0, 766.0, 767.0, 766.0, 767.0, 768.0, 768.0, 767.0, 766.0, 765.0, 765.0, 766.0, 767.0, 766.0, 768.0, 770.0, 770.0, 767.0, 765.0, 765.0, 765.0, 764.0, 765.0, 765.0, 766.0, 767.0, 768.0, 768.0, 768.0, 768.0, 766.0, 767.0, 766.0, 767.0, 768.0, 769.0, 766.0, 767.0, 765.0, 766.0, 767.0, 767.0, 770.0, 773.0, 774.0, 772.0, 770.0, 769.0, 769.0, 768.0, 768.0, 768.0, 768.0, 766.0, 766.0, 764.0, 766.0, 766.0, 764.0, 766.0, 767.0, 768.0, 768.0, 767.0, 767.0, 767.0, 767.0, 766.0, 767.0, 767.0, 766.0, 766.0, 769.0, 770.0, 770.0, 769.0, 769.0, 768.0, 768.0, 767.0, 767.0, 766.0, 766.0, 768.0, 769.0, 768.0, 767.0, 767.0, 767.0, 768.0, 768.0, 770.0, 772.0, 771.0, 768.0, 767.0, 767.0, 766.0, 764.0, 765.0, 766.0, 765.0, 764.0, 765.0, 766.0, 767.0, 766.0, 766.0, 766.0, 767.0, 767.0, 766.0, 766.0, 767.0, 767.0, 770.0, 767.0, 767.0, 764.0, 763.0, 758.0, 757.0, 762.0, 764.0, 763.0, 767.0, 768.0, 767.0, 767.0, 767.0, 765.0, 766.0, 766.0, 766.0, 766.0, 765.0, 765.0, 764.0, 763.0, 763.0, 766.0, 766.0, 765.0, 765.0, 766.0, 766.0, 766.0, 765.0, 766.0, 768.0, 768.0, 766.0, 766.0, 767.0, 768.0, 768.0, 766.0, 766.0, 765.0, 765.0, 765.0],
      "WindowWidth": [1647.0, 1642.0, 1645.0, 1641.0, 1643.0, 1643.0, 1645.0, 1645.0, 1652.0, 1660.0, 1661.0, 1653.0, 1647.0, 1641.0, 1638.0, 1639.0, 1638.0, 1637.0, 1639.0, 1642.0, 1644.0, 1643.0, 1643.0, 1643.0, 1644.0, 1642.0, 1645.0, 1647.0, 1646.0, 1646.0, 1646.0, 1647.0, 1651.0, 1655.0, 1653.0, 1650.0, 1651.0, 1650.0, 1649.0, 1649.0, 1651.0, 1650.0, 1650.0, 1654.0, 1650.0, 1651.0, 1648.0, 1648.0, 1649.0, 1648.0, 1648.0, 1648.0, 1652.0, 1652.0, 1651.0, 1648.0, 1648.0, 1645.0, 1649.0, 1651.0, 1652.0, 1649.0, 1646.0, 1642.0, 1643.0, 1649.0, 1655.0, 1653.0, 1648.0, 1646.0, 1647.0, 1648.0, 1646.0, 1647.0, 1645.0, 1646.0, 1651.0, 1651.0, 1646.0, 1643.0, 1643.0, 1642.0, 1643.0, 1646.0, 1646.0, 1650.0, 1655.0, 1654.0, 1646.0, 1642.0, 1642.0, 1641.0, 1640.0, 1642.0, 1642.0, 1645.0, 1647.0, 1650.0, 1650.0, 1648.0, 1649.0, 1644.0, 1648.0, 1644.0, 1646.0, 1649.0, 1653.0, 1645.0, 1647.0, 1642.0, 1644.0, 1646.0, 1647.0, 1655.0, 1662.0, 1664.0, 1659.0, 1654.0, 1650.0, 1651.0, 1650.0, 1649.0, 1648.0, 1649.0, 1643.0, 1645.0, 1639.0, 1643.0, 1643.0, 1640.0, 1643.0, 1646.0, 1649.0, 1649.0, 1647.0, 1648.0, 1648.0, 1645.0, 1645.0, 1645.0, 1646.0, 1645.0, 1645.0, 1651.0, 1654.0, 1654.0, 1653.0, 1651.0, 1650.0, 1649.0, 1647.0, 1645.0, 1644.0, 1644.0, 1649.0, 1653.0, 1649.0, 1646.0, 1647.0, 1647.0, 1650.0, 1649.0, 1654.0, 1661.0, 1657.0, 1648.0, 1645.0, 1645.0, 1644.0, 1638.0, 1640.0, 1642.0, 1642.0, 1638.0, 1641.0, 1643.0, 1645.0, 1643.0, 1642.0, 1644.0, 1647.0, 1646.0, 1643.0, 1645.0, 1646.0, 1648.0, 1654.0, 1647.0, 1647.0, 1638.0, 1636.0, 1623.0, 1620.0, 1635.0, 1639.0, 1637.0, 1647.0, 1649.0, 1648.0, 1646.0, 1646.0, 1642.0, 1643.0, 1643.0, 1644.0, 1643.0, 1641.0, 1642.0, 1639.0, 1637.0, 1637.0, 1643.0, 1644.0, 1641.0, 1641.0, 1644.0, 1644.0, 1645.0, 1642.0, 1645.0, 1648.0, 1649.0, 1645.0, 1645.0, 1648.0, 1650.0, 1649.0, 1645.0, 1644.0, 1641.0, 1640.0, 1640.0]
    },
    "slices": {}
  }
}