{
  "AcquisitionMatrixPE": 100,
  "AcquisitionNumber": 1,
  "AcquisitionTime": "14:43:10.665000",
  "BandwidthPerPixelPhaseEncode": 18.519,
  "BaseResolution": 100,
  "BodyPartExamined": "BRAIN",
  "ConsistencyInfo": "N4_VE11C_LATEST_20160120",
  "ConversionSoftware": "dcm2niix",
  "ConversionSoftwareVersion": "v1.0.20180622 GCC4.9.2",
  "DerivedVendorReportedEchoSpacing": 0.000539986,
  "DeviceSerialNumber": "166078",
  "DwellTime": 2.1e-06,
  "EchoTime": 0.034,
  "EchoTrainLength": 100,
  "EffectiveEchoSpacing": 0.000539986,
  "FlipAngle": 90,
  "ImageOrientationPatientDICOM": [0.999386, 0.0350392, -0.000137643, -0.0348994, 0.995734, 0.0854168],
  "ImageType": [
    "ORIGINAL",
    "PRIMARY",
    "M",
    "ND",
    "MOSAIC"
],
  "InPlanePhaseEncodingDirectionDICOM": "COL",
  "InstitutionAddress": "Street_StreetNo_Bei_Jing_District_CN_ZIP",
  "InstitutionName": "BeiJing_Normal_University",
  "InstitutionalDepartmentName": "Department",
  "MRAcquisitionType": "2D",
  "MagneticFieldStrength": 3,
  "Manufacturer": "Siemens",
  "ManufacturersModelName": "Prisma",
  "Modality": "MR",
  "MultibandAccelerationFactor": 3,
  "PartialFourier": 1,
  "PatientPosition": "HFS",
  "PercentPhaseFOV": 100,
  "PhaseEncodingDirection": "j-",
  "PhaseEncodingSteps": 100,
  "PhaseResolution": 1,
  "PixelBandwidth": 2380,
  "ProcedureStepDescription": "BNU_P2018_64CH_Liu.Jia",
  "ProtocolName": "bold_100x100_s3_2x2x2_232",
  "PulseSequenceDetails": "%SiemensSeq%_ep2d_bold",
  "ReceiveCoilActiveElements": "HC1-7;NC1",
  "ReceiveCoilName": "HeadNeck_64",
  "ReconMatrixPE": 100,
  "RepetitionTime": 2,
  "SAR": 0.0635105,
  "ScanOptions": "FS",
  "ScanningSequence": "EP",
  "SequenceName": "_epfid2d1_100",
  "SequenceVariant": "SK",
  "SeriesDescription": "bold_100x100_s3_2x2x2_232",
  "SeriesNumber": 9,
  "ShimSetting": [-5472, -11473, -1296, 453, -75, -219, -105, 79],
  "SliceThickness": 2,
  "SliceTiming": [1.485, 0, 0.99, 0.0825, 1.0725, 0.165, 1.155, 0.2475, 1.2375, 0.33, 1.32, 0.4125, 1.4025, 0.5775, 1.5675, 0.66, 1.65, 0.7425, 1.7325, 0.825, 1.815, 0.9075, 1.8975, 0.495, 1.485, 0, 0.99, 0.0825, 1.0725, 0.165, 1.155, 0.2475, 1.2375, 0.33, 1.32, 0.4125, 1.4025, 0.5775, 1.5675, 0.66, 1.65, 0.7425, 1.7325, 0.825, 1.815, 0.9075, 1.8975, 0.495, 1.485, 0, 0.99, 0.0825, 1.0725, 0.165, 1.155, 0.2475, 1.2375, 0.33, 1.32, 0.4125, 1.4025, 0.5775, 1.5675, 0.66, 1.65, 0.7425, 1.7325, 0.825, 1.815, 0.9075, 1.8975, 0.495],
  "SoftwareVersions": "syngo_MR_E11",
  "SpacingBetweenSlices": 2,
  "StationName": "AWP166078",
  "TaskName": "motor",
  "TotalReadoutTime": 0.0534586,
  "TxRefAmp": 209.933,
  "dcmmeta_affine": [
    [-1.9987719058990479, -0.0697987899184227, -0.006259985268115997, 103.73918914794922],
    [-0.07007840275764465, 1.991467833518982, 0.17071910202503204, -96.47779846191406],
    [-0.00027528603095561266, -0.17083361744880676, 1.9926905632019043, -61.73902893066406],
    [0.0, 0.0, 0.0, 1.0]
],
  "dcmmeta_reorient_transform": [
    [0.0, -1.0, 0.0, 99.0],
    [1.0, 0.0, 0.0, 0.0],
    [0.0, 0.0, 1.0, 0.0],
    [0.0, 0.0, 0.0, 1.0]
],
  "dcmmeta_shape": [100, 100, 72, 232],
  "dcmmeta_slice_dim": 2,
  "dcmmeta_version": 0.6,
  "global": {
    "const": {
      "AcquisitionMatrix": [100, 0, 0, 100],
      "AngioFlag": "N",
      "BitsAllocated": 16,
      "BitsStored": 12,
      "BodyPartExamined": "BRAIN",
      "Columns": 900,
      "EchoNumbers": 1,
      "EchoTime": 34.0,
      "EchoTrainLength": 100,
      "FlipAngle": 90.0,
      "HighBit": 11,
      "ImageOrientationPatient": [0.99938592911293, 0.03503920298006, -0.0001376430171, -0.0348993959253, 0.99573390039182, 0.08541681201352],
      "ImagePositionPatient": [-868.41833911793, -925.29599583354, -146.87489406454],
      "ImageType": [
        "ORIGINAL",
        "PRIMARY",
        "M",
        "ND",
        "MOSAIC"
],
      "ImagedNucleus": "1H",
      "ImagingFrequency": 123.25787,
      "InPlanePhaseEncodingDirection": "COL",
      "MRAcquisitionType": "2D",
      "MagneticFieldStrength": 3.0,
      "Manufacturer": "SIEMENS",
      "ManufacturerModelName": "Prisma",
      "Modality": "MR",
      "NumberOfAverages": 1.0,
      "NumberOfPhaseEncodingSteps": 100,
      "PercentPhaseFieldOfView": 100.0,
      "PercentSampling": 100.0,
      "PerformedProcedureStepStartTime": "140101.484000",
      "PhotometricInterpretation": "MONOCHROME2",
      "PixelBandwidth": 2380.0,
      "PixelRepresentation": 0,
      "PixelSpacing": [2.0, 2.0],
      "ProtocolName": "bold_100x100_s3_2x2x2_232",
      "RepetitionTime": 2000.0,
      "Rows": 900,
      "SAR": 0.06351053867547,
      "SamplesPerPixel": 1,
      "ScanOptions": "FS",
      "ScanningSequence": "EP",
      "SequenceName": "*epfid2d1_100",
      "SequenceVariant": "SK",
      "SeriesDescription": "bold_100x100_s3_2x2x2_232",
      "SeriesNumber": 9,
      "SeriesTime": "144313.215000",
      "SliceLocation": -70.073397286917,
      "SliceThickness": 2.0,
      "SmallestImagePixelValue": 0,
      "SoftwareVersions": "syngo MR E11",
      "SpacingBetweenSlices": 1.9999999109636,
      "SpecificCharacterSet": "ISO_IR 100",
      "StudyID": "1",
      "StudyTime": "140101.393000",
      "TransmitCoilName": "Body",
      "VariableFlipAngleFlag": "N",
      "WindowCenterWidthExplanation": "Algo1",
      "dBdt": 0.0},
    "slices": {}
  },
  "time": {
    "samples": {
      "AcquisitionNumber": [1, 2, 3, 4, 5, 6, 7, 8, 9, 10, 11, 12, 13, 14, 15, 16, 17, 18, 19, 20, 21, 22, 23, 24, 25, 26, 27, 28, 29, 30, 31, 32, 33, 34, 35, 36, 37, 38, 39, 40, 41, 42, 43, 44, 45, 46, 47, 48, 49, 50, 51, 52, 53, 54, 55, 56, 57, 58, 59, 60, 61, 62, 63, 64, 65, 66, 67, 68, 69, 70, 71, 72, 73, 74, 75, 76, 77, 78, 79, 80, 81, 82, 83, 84, 85, 86, 87, 88, 89, 90, 91, 92, 93, 94, 95, 96, 97, 98, 99, 100, 101, 102, 103, 104, 105, 106, 107, 108, 109, 110, 111, 112, 113, 114, 115, 116, 117, 118, 119, 120, 121, 122, 123, 124, 125, 126, 127, 128, 129, 130, 131, 132, 133, 134, 135, 136, 137, 138, 139, 140, 141, 142, 143, 144, 145, 146, 147, 148, 149, 150, 151, 152, 153, 154, 155, 156, 157, 158, 159, 160, 161, 162, 163, 164, 165, 166, 167, 168, 169, 170, 171, 172, 173, 174, 175, 176, 177, 178, 179, 180, 181, 182, 183, 184, 185, 186, 187, 188, 189, 190, 191, 192, 193, 194, 195, 196, 197, 198, 199, 200, 201, 202, 203, 204, 205, 206, 207, 208, 209, 210, 211, 212, 213, 214, 215, 216, 217, 218, 219, 220, 221, 222, 223, 224, 225, 226, 227, 228, 229, 230, 231, 232],
      "AcquisitionTime": ["144310.665000", "144312.665000", "144314.665000", "144316.665000", "144318.665000", "144320.665000", "144322.665000", "144324.665000", "144326.665000", "144328.665000", "144330.665000", "144332.665000", "144334.665000", "144336.665000", "144338.665000", "144340.665000", "144342.665000", "144344.665000", "144346.665000", "144348.665000", "144350.665000", "144352.665000", "144354.665000", "144356.665000", "144358.665000", "144400.665000", "144402.665000", "144404.665000", "144406.665000", "144408.665000", "144410.665000", "144412.665000", "144414.665000", "144416.665000", "144418.665000", "144420.665000", "144422.665000", "144424.665000", "144426.665000", "144428.665000", "144430.665000", "144432.665000", "144434.665000", "144436.665000", "144438.665000", "144440.665000", "144442.665000", "144444.665000", "144446.665000", "144448.665000", "144450.665000", "144452.665000", "144454.665000", "144456.665000", "144458.665000", "144500.665000", "144502.665000", "144504.665000", "144506.665000", "144508.665000", "144510.665000", "144512.665000", "144514.665000", "144516.665000", "144518.665000", "144520.665000", "144522.665000", "144524.665000", "144526.665000", "144528.665000", "144530.665000", "144532.665000", "144534.665000", "144536.665000", "144538.665000", "144540.665000", "144542.665000", "144544.665000", "144546.665000", "144548.665000", "144550.665000", "144552.665000", "144554.665000", "144556.665000", "144558.665000", "144600.665000", "144602.665000", "144604.665000", "144606.665000", "144608.665000", "144610.665000", "144612.665000", "144614.665000", "144616.665000", "144618.665000", "144620.665000", "144622.665000", "144624.665000", "144626.665000", "144628.665000", "144630.665000", "144632.665000", "144634.665000", "144636.665000", "144638.665000", "144640.665000", "144642.665000", "144644.665000", "144646.665000", "144648.665000", "144650.665000", "144652.665000", "144654.665000", "144656.665000", "144658.665000", "144700.665000", "144702.665000", "144704.665000", "144706.665000", "144708.665000", "144710.665000", "144712.665000", "144714.665000", "144716.665000", "144718.665000", "144720.665000", "144722.665000", "144724.665000", "144726.665000", "144728.665000", "144730.665000", "144732.665000", "144734.665000", "144736.665000", "144738.665000", "144740.665000", "144742.665000", "144744.665000", "144746.665000", "144748.665000", "144750.665000", "144752.665000", "144754.665000", "144756.665000", "144758.665000", "144800.665000", "144802.665000", "144804.665000", "144806.665000", "144808.665000", "144810.665000", "144812.665000", "144814.665000", "144816.665000", "144818.665000", "144820.665000", "144822.665000", "144824.665000", "144826.665000", "144828.665000", "144830.665000", "144832.665000", "144834.665000", "144836.665000", "144838.665000", "144840.665000", "144842.665000", "144844.665000", "144846.665000", "144848.665000", "144850.665000", "144852.665000", "144854.665000", "144856.665000", "144858.665000", "144900.665000", "144902.665000", "144904.665000", "144906.665000", "144908.665000", "144910.665000", "144912.665000", "144914.665000", "144916.665000", "144918.665000", "144920.665000", "144922.665000", "144924.665000", "144926.665000", "144928.665000", "144930.665000", "144932.665000", "144934.665000", "144936.665000", "144938.665000", "144940.665000", "144942.665000", "144944.665000", "144946.665000", "144948.665000", "144950.665000", "144952.665000", "144954.665000", "144956.665000", "144958.665000", "145000.665000", "145002.665000", "145004.665000", "145006.665000", "145008.665000", "145010.665000", "145012.665000", "145014.665000", "145016.665000", "145018.665000", "145020.665000", "145022.665000", "145024.665000", "145026.665000", "145028.665000", "145030.665000", "145032.665000", "145034.665000", "145036.665000", "145038.665000", "145040.665000", "145042.665000", "145044.665000", "145046.665000", "145048.665000", "145050.665000", "145052.665000"],
      "ContentTime": ["144313.219000", "144314.710000", "144316.710000", "144318.710000", "144320.710000", "144322.711000", "144324.710000", "144326.710000", "144328.709000", "144330.710000", "144332.710000", "144334.710000", "144336.711000", "144338.711000", "144340.711000", "144342.711000", "144344.710000", "144346.709000", "144348.710000", "144350.710000", "144352.710000", "144354.710000", "144356.710000", "144358.710000", "144400.711000", "144402.711000", "144404.710000", "144406.710000", "144408.711000", "144410.710000", "144412.711000", "144414.710000", "144416.711000", "144418.711000", "144420.710000", "144422.710000", "144424.711000", "144426.711000", "144428.711000", "144430.710000", "144432.711000", "144434.711000", "144436.711000", "144438.709000", "144440.711000", "144442.710000", "144444.710000", "144446.710000", "144448.711000", "144450.710000", "144452.711000", "144454.711000", "144456.709000", "144458.711000", "144500.710000", "144502.711000", "144504.711000", "144506.710000", "144508.711000", "144510.711000", "144512.711000", "144514.709000", "144516.711000", "144518.710000", "144520.710000", "144522.710000", "144524.710000", "144526.711000", "144528.710000", "144530.711000", "144532.711000", "144534.710000", "144536.710000", "144538.711000", "144540.710000", "144542.711000", "144544.710000", "144546.711000", "144548.709000", "144550.711000", "144552.711000", "144554.710000", "144556.710000", "144558.710000", "144600.710000", "144602.710000", "144604.711000", "144606.709000", "144608.711000", "144610.711000", "144612.710000", "144614.711000", "144616.711000", "144618.710000", "144620.710000", "144622.711000", "144624.709000", "144626.710000", "144628.711000", "144630.710000", "144632.710000", "144634.710000", "144636.711000", "144638.711000", "144640.710000", "144642.711000", "144644.711000", "144646.710000", "144648.710000", "144650.711000", "144652.711000", "144654.711000", "144656.710000", "144658.709000", "144700.711000", "144702.710000", "144704.710000", "144706.710000", "144708.711000", "144710.711000", "144712.710000", "144714.711000", "144716.709000", "144718.710000", "144720.710000", "144722.711000", "144724.711000", "144726.711000", "144728.710000", "144730.710000", "144732.710000", "144734.711000", "144736.711000", "144738.711000", "144740.711000", "144742.710000", "144744.710000", "144746.711000", "144748.710000", "144750.711000", "144752.711000", "144754.710000", "144756.710000", "144758.710000", "144800.710000", "144802.710000", "144804.711000", "144806.710000", "144808.710000", "144810.710000", "144812.710000", "144814.710000", "144816.711000", "144818.710000", "144820.711000", "144822.711000", "144824.710000", "144826.710000", "144828.711000", "144830.711000", "144832.711000", "144834.711000", "144836.711000", "144838.711000", "144840.710000", "144842.729000", "144844.710000", "144846.710000", "144848.711000", "144850.711000", "144852.711000", "144854.711000", "144856.711000", "144858.711000", "144900.711000", "144902.710000", "144904.711000", "144906.711000", "144908.710000", "144910.710000", "144912.711000", "144914.710000", "144916.711000", "144918.710000", "144920.711000", "144922.711000", "144924.711000", "144926.716000", "144928.710000", "144930.710000", "144932.710000", "144934.711000", "144936.710000", "144938.711000", "144940.710000", "144942.711000", "144944.710000", "144946.710000", "144948.710000", "144950.710000", "144952.711000", "144954.711000", "144956.711000", "144958.710000", "145000.710000", "145002.711000", "145004.710000", "145006.711000", "145008.711000", "145010.711000", "145012.711000", "145014.711000", "145016.710000", "145018.710000", "145020.711000", "145022.711000", "145024.710000", "145026.710000", "145028.710000", "145030.710000", "145032.711000", "145034.711000", "145036.710000", "145038.710000", "145040.711000", "145042.710000", "145044.710000", "145046.709000", "145048.710000", "145050.710000", "145052.710000", "145054.354000"],
      "InstanceCreationTime": ["144313.219000", "144314.710000", "144316.710000", "144318.710000", "144320.710000", "144322.711000", "144324.710000", "144326.710000", "144328.709000", "144330.710000", "144332.710000", "144334.710000", "144336.711000", "144338.711000", "144340.711000", "144342.711000", "144344.710000", "144346.709000", "144348.710000", "144350.710000", "144352.710000", "144354.710000", "144356.710000", "144358.710000", "144400.711000", "144402.711000", "144404.710000", "144406.710000", "144408.711000", "144410.710000", "144412.711000", "144414.710000", "144416.711000", "144418.711000", "144420.710000", "144422.710000", "144424.711000", "144426.711000", "144428.711000", "144430.710000", "144432.711000", "144434.711000", "144436.711000", "144438.709000", "144440.711000", "144442.710000", "144444.710000", "144446.710000", "144448.711000", "144450.710000", "144452.711000", "144454.711000", "144456.709000", "144458.711000", "144500.710000", "144502.711000", "144504.711000", "144506.710000", "144508.711000", "144510.711000", "144512.711000", "144514.709000", "144516.711000", "144518.710000", "144520.710000", "144522.710000", "144524.710000", "144526.711000", "144528.710000", "144530.711000", "144532.711000", "144534.710000", "144536.710000", "144538.711000", "144540.710000", "144542.711000", "144544.710000", "144546.711000", "144548.709000", "144550.711000", "144552.711000", "144554.710000", "144556.710000", "144558.710000", "144600.710000", "144602.710000", "144604.711000", "144606.709000", "144608.711000", "144610.711000", "144612.710000", "144614.711000", "144616.711000", "144618.710000", "144620.710000", "144622.711000", "144624.709000", "144626.710000", "144628.711000", "144630.710000", "144632.710000", "144634.710000", "144636.711000", "144638.711000", "144640.710000", "144642.711000", "144644.711000", "144646.710000", "144648.710000", "144650.711000", "144652.711000", "144654.711000", "144656.710000", "144658.709000", "144700.711000", "144702.710000", "144704.710000", "144706.710000", "144708.711000", "144710.711000", "144712.710000", "144714.711000", "144716.709000", "144718.710000", "144720.710000", "144722.711000", "144724.711000", "144726.711000", "144728.710000", "144730.710000", "144732.710000", "144734.711000", "144736.711000", "144738.711000", "144740.711000", "144742.710000", "144744.710000", "144746.711000", "144748.710000", "144750.711000", "144752.711000", "144754.710000", "144756.710000", "144758.710000", "144800.710000", "144802.710000", "144804.711000", "144806.710000", "144808.710000", "144810.710000", "144812.710000", "144814.710000", "144816.711000", "144818.710000", "144820.711000", "144822.711000", "144824.710000", "144826.710000", "144828.711000", "144830.711000", "144832.711000", "144834.711000", "144836.711000", "144838.711000", "144840.710000", "144842.729000", "144844.710000", "144846.710000", "144848.711000", "144850.711000", "144852.711000", "144854.711000", "144856.711000", "144858.711000", "144900.711000", "144902.710000", "144904.711000", "144906.711000", "144908.710000", "144910.710000", "144912.711000", "144914.710000", "144916.711000", "144918.710000", "144920.711000", "144922.711000", "144924.711000", "144926.716000", "144928.710000", "144930.710000", "144932.710000", "144934.711000", "144936.710000", "144938.711000", "144940.710000", "144942.711000", "144944.710000", "144946.710000", "144948.710000", "144950.710000", "144952.711000", "144954.711000", "144956.711000", "144958.710000", "145000.710000", "145002.711000", "145004.710000", "145006.711000", "145008.711000", "145010.711000", "145012.711000", "145014.711000", "145016.710000", "145018.710000", "145020.711000", "145022.711000", "145024.710000", "145026.710000", "145028.710000", "145030.710000", "145032.711000", "145034.711000", "145036.710000", "145038.710000", "145040.711000", "145042.710000", "145044.710000", "145046.709000", "145048.710000", "145050.710000", "145052.710000", "145054.354000"],
      "InstanceNumber": [1, 2, 3, 4, 5, 6, 7, 8, 9, 10, 11, 12, 13, 14, 15, 16, 17, 18, 19, 20, 21, 22, 23, 24, 25, 26, 27, 28, 29, 30, 31, 32, 33, 34, 35, 36, 37, 38, 39, 40, 41, 42, 43, 44, 45, 46, 47, 48, 49, 50, 51, 52, 53, 54, 55, 56, 57, 58, 59, 60, 61, 62, 63, 64, 65, 66, 67, 68, 69, 70, 71, 72, 73, 74, 75, 76, 77, 78, 79, 80, 81, 82, 83, 84, 85, 86, 87, 88, 89, 90, 91, 92, 93, 94, 95, 96, 97, 98, 99, 100, 101, 102, 103, 104, 105, 106, 107, 108, 109, 110, 111, 112, 113, 114, 115, 116, 117, 118, 119, 120, 121, 122, 123, 124, 125, 126, 127, 128, 129, 130, 131, 132, 133, 134, 135, 136, 137, 138, 139, 140, 141, 142, 143, 144, 145, 146, 147, 148, 149, 150, 151, 152, 153, 154, 155, 156, 157, 158, 159, 160, 161, 162, 163, 164, 165, 166, 167, 168, 169, 170, 171, 172, 173, 174, 175, 176, 177, 178, 179, 180, 181, 182, 183, 184, 185, 186, 187, 188, 189, 190, 191, 192, 193, 194, 195, 196, 197, 198, 199, 200, 201, 202, 203, 204, 205, 206, 207, 208, 209, 210, 211, 212, 213, 214, 215, 216, 217, 218, 219, 220, 221, 222, 223, 224, 225, 226, 227, 228, 229, 230, 231, 232],
      "LargestImagePixelValue": [3317, 3189, 3259, 3220, 3226, 3245, 3243, 3157, 3303, 3266, 3266, 3223, 3239, 3205, 3232, 3229, 3247, 3265, 3189, 3186, 3175, 3167, 3223, 3133, 3222, 3165, 3230, 3141, 3066, 3247, 3227, 3174, 3107, 3082, 3207, 3227, 3078, 3140, 3078, 3112, 3267, 3188, 3145, 3231, 3131, 3189, 3113, 3144, 3166, 3063, 3129, 3050, 3087, 3138, 3111, 3100, 3073, 3185, 3087, 3130, 3127, 3139, 3079, 3176, 3182, 3113, 3225, 3087, 3183, 3161, 3241, 3136, 3227, 3124, 3164, 3177, 3150, 3099, 3107, 3306, 3195, 3197, 3279, 3243, 3103, 3155, 3119, 3182, 3160, 3114, 3118, 3071, 3109, 3153, 3112, 3159, 3172, 3172, 3201, 3193, 3170, 3186, 3187, 3133, 3206, 3176, 3189, 3174, 3201, 3182, 3209, 3211, 3189, 3220, 3254, 3249, 3176, 3203, 3218, 3198, 3257, 3191, 3169, 3239, 3108, 3154, 3174, 3182, 3181, 3209, 3163, 3182, 3121, 3129, 3163, 3180, 3165, 3134, 3201, 3218, 3295, 3163, 3163, 3170, 3223, 3259, 3166, 3205, 3161, 3268, 3247, 3133, 3168, 3115, 3222, 3170, 3172, 3157, 3168, 3182, 3169, 3201, 3257, 3161, 3163, 3129, 3144, 3211, 3202, 3116, 3230, 3231, 3277, 3140, 3193, 3306, 3242, 3300, 3237, 3245, 3276, 3209, 3285, 3200, 3137, 3217, 3170, 3243, 3173, 3156, 3307, 3197, 3256, 3246, 3176, 3250, 3134, 3228, 3159, 3162, 3133, 3183, 3162, 3194, 3297, 3240, 3199, 3241, 3210, 3244, 3246, 3198, 3149, 3165, 3102, 3154, 3141, 3156, 3245, 3235, 3237, 3170, 3216, 3173, 3230, 3212, 3154, 3199, 3281, 3287, 3247, 3116],
      "WindowCenter": [745.0, 743.0, 745.0, 742.0, 743.0, 744.0, 743.0, 743.0, 745.0, 744.0, 743.0, 742.0, 743.0, 742.0, 743.0, 742.0, 743.0, 743.0, 743.0, 743.0, 742.0, 743.0, 743.0, 742.0, 743.0, 743.0, 745.0, 743.0, 743.0, 744.0, 744.0, 744.0, 742.0, 743.0, 745.0, 743.0, 742.0, 742.0, 741.0, 742.0, 743.0, 743.0, 743.0, 744.0, 742.0, 741.0, 742.0, 742.0, 740.0, 742.0, 743.0, 742.0, 744.0, 743.0, 741.0, 741.0, 741.0, 740.0, 739.0, 740.0, 742.0, 741.0, 741.0, 743.0, 742.0, 743.0, 742.0, 740.0, 740.0, 741.0, 744.0, 743.0, 740.0, 743.0, 745.0, 745.0, 744.0, 743.0, 743.0, 746.0, 745.0, 745.0, 746.0, 746.0, 744.0, 744.0, 743.0, 741.0, 739.0, 739.0, 738.0, 738.0, 740.0, 740.0, 741.0, 742.0, 743.0, 743.0, 743.0, 742.0, 743.0, 743.0, 743.0, 743.0, 745.0, 745.0, 743.0, 744.0, 744.0, 744.0, 745.0, 745.0, 744.0, 745.0, 746.0, 744.0, 745.0, 744.0, 743.0, 744.0, 744.0, 742.0, 742.0, 743.0, 741.0, 743.0, 742.0, 743.0, 744.0, 743.0, 742.0, 742.0, 741.0, 742.0, 742.0, 743.0, 742.0, 744.0, 746.0, 744.0, 743.0, 743.0, 742.0, 743.0, 744.0, 744.0, 744.0, 744.0, 743.0, 744.0, 743.0, 743.0, 743.0, 744.0, 744.0, 743.0, 743.0, 742.0, 742.0, 743.0, 742.0, 745.0, 743.0, 744.0, 743.0, 742.0, 742.0, 743.0, 743.0, 743.0, 745.0, 745.0, 745.0, 743.0, 745.0, 744.0, 744.0, 745.0, 743.0, 745.0, 744.0, 743.0, 743.0, 743.0, 743.0, 743.0, 744.0, 745.0, 743.0, 741.0, 742.0, 741.0, 741.0, 741.0, 743.0, 743.0, 743.0, 743.0, 742.0, 742.0, 741.0, 743.0, 742.0, 744.0, 745.0, 744.0, 745.0, 744.0, 745.0, 746.0, 745.0, 743.0, 743.0, 743.0, 743.0, 744.0, 743.0, 745.0, 744.0, 743.0, 745.0, 743.0, 743.0, 744.0, 743.0, 744.0, 745.0, 745.0, 746.0, 746.0, 743.0, 743.0],
      "WindowWidth": [1615.0, 1611.0, 1614.0, 1608.0, 1609.0, 1612.0, 1609.0, 1610.0, 1615.0, 1611.0, 1610.0, 1606.0, 1609.0, 1608.0, 1609.0, 1606.0, 1609.0, 1611.0, 1609.0, 1610.0, 1608.0, 1610.0, 1608.0, 1607.0, 1610.0, 1609.0, 1615.0, 1610.0, 1610.0, 1612.0, 1613.0, 1612.0, 1607.0, 1611.0, 1616.0, 1610.0, 1607.0, 1606.0, 1605.0, 1607.0, 1609.0, 1609.0, 1609.0, 1614.0, 1606.0, 1606.0, 1608.0, 1606.0, 1603.0, 1609.0, 1610.0, 1608.0, 1612.0, 1609.0, 1603.0, 1604.0, 1603.0, 1602.0, 1600.0, 1602.0, 1606.0, 1604.0, 1605.0, 1610.0, 1608.0, 1609.0, 1608.0, 1603.0, 1603.0, 1605.0, 1612.0, 1609.0, 1603.0, 1610.0, 1615.0, 1615.0, 1612.0, 1611.0, 1609.0, 1618.0, 1615.0, 1616.0, 1618.0, 1617.0, 1614.0, 1611.0, 1609.0, 1603.0, 1599.0, 1597.0, 1597.0, 1597.0, 1602.0, 1602.0, 1604.0, 1607.0, 1610.0, 1609.0, 1608.0, 1607.0, 1609.0, 1610.0, 1609.0, 1610.0, 1614.0, 1614.0, 1610.0, 1613.0, 1613.0, 1611.0, 1613.0, 1615.0, 1612.0, 1615.0, 1618.0, 1613.0, 1613.0, 1613.0, 1610.0, 1611.0, 1613.0, 1606.0, 1607.0, 1608.0, 1604.0, 1610.0, 1607.0, 1610.0, 1612.0, 1608.0, 1607.0, 1606.0, 1605.0, 1606.0, 1606.0, 1610.0, 1608.0, 1611.0, 1617.0, 1613.0, 1610.0, 1608.0, 1607.0, 1609.0, 1613.0, 1611.0, 1612.0, 1613.0, 1610.0, 1612.0, 1608.0, 1608.0, 1611.0, 1611.0, 1613.0, 1609.0, 1609.0, 1605.0, 1607.0, 1610.0, 1608.0, 1615.0, 1610.0, 1611.0, 1608.0, 1606.0, 1607.0, 1610.0, 1608.0, 1611.0, 1614.0, 1616.0, 1615.0, 1611.0, 1615.0, 1612.0, 1612.0, 1615.0, 1611.0, 1614.0, 1611.0, 1609.0, 1610.0, 1608.0, 1608.0, 1610.0, 1611.0, 1615.0, 1608.0, 1604.0, 1607.0, 1603.0, 1603.0, 1604.0, 1608.0, 1610.0, 1609.0, 1610.0, 1606.0, 1605.0, 1605.0, 1609.0, 1606.0, 1612.0, 1614.0, 1612.0, 1614.0, 1612.0, 1614.0, 1616.0, 1615.0, 1610.0, 1610.0, 1608.0, 1609.0, 1613.0, 1610.0, 1613.0, 1612.0, 1608.0, 1614.0, 1610.0, 1611.0, 1612.0, 1609.0, 1612.0, 1615.0, 1615.0, 1617.0, 1617.0, 1610.0, 1610.0]
    },
    "slices": {}
  }
}