{
  "AcquisitionMatrixPE": 100,
  "AcquisitionNumber": 1,
  "AcquisitionTime": "11:18:12.555000",
  "BandwidthPerPixelPhaseEncode": 18.519,
  "BaseResolution": 100,
  "BodyPartExamined": "BRAIN",
  "ConsistencyInfo": "N4_VE11C_LATEST_20160120",
  "ConversionSoftware": "dcm2niix",
  "ConversionSoftwareVersion": "v1.0.20180622 GCC4.9.2",
  "DerivedVendorReportedEchoSpacing": 0.000539986,
  "DeviceSerialNumber": "166078",
  "DwellTime": 2.1e-06,
  "EchoTime": 0.034,
  "EchoTrainLength": 100,
  "EffectiveEchoSpacing": 0.000539986,
  "FlipAngle": 90,
  "ImageOrientationPatientDICOM": [1, -1.63768e-05, -0.000447376, -2.65271e-08, 0.999328, -0.036641],
  "ImageType": [
    "ORIGINAL",
    "PRIMARY",
    "M",
    "ND",
    "MOSAIC"
],
  "InPlanePhaseEncodingDirectionDICOM": "COL",
  "InstitutionAddress": "Street_StreetNo_Bei_Jing_District_CN_ZIP",
  "InstitutionName": "BeiJing_Normal_University",
  "InstitutionalDepartmentName": "Department",
  "MRAcquisitionType": "2D",
  "MagneticFieldStrength": 3,
  "Manufacturer": "Siemens",
  "ManufacturersModelName": "Prisma",
  "Modality": "MR",
  "MultibandAccelerationFactor": 3,
  "PartialFourier": 1,
  "PatientPosition": "HFS",
  "PercentPhaseFOV": 100,
  "PhaseEncodingDirection": "j-",
  "PhaseEncodingSteps": 100,
  "PhaseResolution": 1,
  "PixelBandwidth": 2380,
  "ProcedureStepDescription": "BNU_P2018_64CH_Liu.Jia",
  "ProtocolName": "bold_100x100_s3_2x2x2_232",
  "PulseSequenceDetails": "%SiemensSeq%_ep2d_bold",
  "ReceiveCoilActiveElements": "HC1-7;NC1",
  "ReceiveCoilName": "HeadNeck_64",
  "ReconMatrixPE": 100,
  "RepetitionTime": 2,
  "SAR": 0.0625936,
  "ScanOptions": "FS",
  "ScanningSequence": "EP",
  "SequenceName": "_epfid2d1_100",
  "SequenceVariant": "SK",
  "SeriesDescription": "bold_100x100_s3_2x2x2_232",
  "SeriesNumber": 10,
  "ShimSetting": [-5475, -11526, -1249, 500, 11, -218, -140, 38],
  "SliceThickness": 2,
  "SliceTiming": [1.485, 0, 0.99, 0.0825, 1.0725, 0.165, 1.155, 0.2475, 1.2375, 0.33, 1.32, 0.4125, 1.4025, 0.5775, 1.5675, 0.66, 1.65, 0.7425, 1.7325, 0.825, 1.815, 0.9075, 1.8975, 0.495, 1.485, 0, 0.99, 0.0825, 1.0725, 0.165, 1.155, 0.2475, 1.2375, 0.33, 1.32, 0.4125, 1.4025, 0.5775, 1.5675, 0.66, 1.65, 0.7425, 1.7325, 0.825, 1.815, 0.9075, 1.8975, 0.495, 1.485, 0, 0.99, 0.0825, 1.0725, 0.165, 1.155, 0.2475, 1.2375, 0.33, 1.32, 0.4125, 1.4025, 0.5775, 1.5675, 0.66, 1.65, 0.7425, 1.7325, 0.825, 1.815, 0.9075, 1.8975, 0.495],
  "SoftwareVersions": "syngo_MR_E11",
  "SpacingBetweenSlices": 2,
  "StationName": "AWP166078",
  "TaskName": "motor",
  "TotalReadoutTime": 0.0534586,
  "TxRefAmp": 208.322,
  "dcmmeta_affine": [
    [-1.999999761581421, -5.3054108661854116e-08, -0.0008953509968705475, 102.65521240234375],
    [3.275351627962664e-05, 1.998656988143921, -0.07328194379806519, -91.50253295898438],
    [-0.0008947516907937825, 0.07328195124864578, 1.9986567497253418, -62.16103744506836],
    [0.0, 0.0, 0.0, 1.0]
],
  "dcmmeta_reorient_transform": [
    [0.0, -1.0, 0.0, 99.0],
    [1.0, 0.0, 0.0, 0.0],
    [0.0, 0.0, 1.0, 0.0],
    [0.0, 0.0, 0.0, 1.0]
],
  "dcmmeta_shape": [100, 100, 72, 232],
  "dcmmeta_slice_dim": 2,
  "dcmmeta_version": 0.6,
  "global": {
    "const": {
      "AcquisitionMatrix": [100, 0, 0, 100],
      "AngioFlag": "N",
      "BitsAllocated": 16,
      "BitsStored": 12,
      "BodyPartExamined": "BRAIN",
      "Columns": 900,
      "EchoNumbers": 1,
      "EchoTime": 34.0,
      "EchoTrainLength": 100,
      "FlipAngle": 90.0,
      "HighBit": 11,
      "ImageOrientationPatient": [0.99999989979332, -1.63767579e-05, -0.0004473758543, -2.6527055e-08, 0.99932849398494, -0.0366409758302],
      "ImagePositionPatient": [-902.65510334877, -905.81420027743, -25.235443200723],
      "ImageType": [
        "ORIGINAL",
        "PRIMARY",
        "M",
        "ND",
        "MOSAIC"
],
      "ImagedNucleus": "1H",
      "ImagingFrequency": 123.257836,
      "InPlanePhaseEncodingDirection": "COL",
      "MRAcquisitionType": "2D",
      "MagneticFieldStrength": 3.0,
      "Manufacturer": "SIEMENS",
      "ManufacturerModelName": "Prisma",
      "Modality": "MR",
      "NumberOfAverages": 1.0,
      "NumberOfPhaseEncodingSteps": 100,
      "PercentPhaseFieldOfView": 100.0,
      "PercentSampling": 100.0,
      "PerformedProcedureStepStartTime": "102710.486000",
      "PhotometricInterpretation": "MONOCHROME2",
      "PixelBandwidth": 2380.0,
      "PixelRepresentation": 0,
      "PixelSpacing": [2.0, 2.0],
      "ProtocolName": "bold_100x100_s3_2x2x2_232",
      "RepetitionTime": 2000.0,
      "Rows": 900,
      "SAR": 0.06259359086091,
      "SamplesPerPixel": 1,
      "ScanOptions": "FS",
      "ScanningSequence": "EP",
      "SequenceName": "*epfid2d1_100",
      "SequenceVariant": "SK",
      "SeriesDescription": "bold_100x100_s3_2x2x2_232",
      "SeriesNumber": 10,
      "SeriesTime": "111815.118000",
      "SliceLocation": -58.812504399607,
      "SliceThickness": 2.0,
      "SmallestImagePixelValue": 0,
      "SoftwareVersions": "syngo MR E11",
      "SpacingBetweenSlices": 2.0000000092372,
      "SpecificCharacterSet": "ISO_IR 100",
      "StudyID": "1",
      "StudyTime": "102710.424000",
      "TransmitCoilName": "Body",
      "VariableFlipAngleFlag": "N",
      "WindowCenterWidthExplanation": "Algo1",
      "dBdt": 0.0},
    "slices": {}
  },
  "time": {
    "samples": {
      "AcquisitionNumber": [1, 2, 3, 4, 5, 6, 7, 8, 9, 10, 11, 12, 13, 14, 15, 16, 17, 18, 19, 20, 21, 22, 23, 24, 25, 26, 27, 28, 29, 30, 31, 32, 33, 34, 35, 36, 37, 38, 39, 40, 41, 42, 43, 44, 45, 46, 47, 48, 49, 50, 51, 52, 53, 54, 55, 56, 57, 58, 59, 60, 61, 62, 63, 64, 65, 66, 67, 68, 69, 70, 71, 72, 73, 74, 75, 76, 77, 78, 79, 80, 81, 82, 83, 84, 85, 86, 87, 88, 89, 90, 91, 92, 93, 94, 95, 96, 97, 98, 99, 100, 101, 102, 103, 104, 105, 106, 107, 108, 109, 110, 111, 112, 113, 114, 115, 116, 117, 118, 119, 120, 121, 122, 123, 124, 125, 126, 127, 128, 129, 130, 131, 132, 133, 134, 135, 136, 137, 138, 139, 140, 141, 142, 143, 144, 145, 146, 147, 148, 149, 150, 151, 152, 153, 154, 155, 156, 157, 158, 159, 160, 161, 162, 163, 164, 165, 166, 167, 168, 169, 170, 171, 172, 173, 174, 175, 176, 177, 178, 179, 180, 181, 182, 183, 184, 185, 186, 187, 188, 189, 190, 191, 192, 193, 194, 195, 196, 197, 198, 199, 200, 201, 202, 203, 204, 205, 206, 207, 208, 209, 210, 211, 212, 213, 214, 215, 216, 217, 218, 219, 220, 221, 222, 223, 224, 225, 226, 227, 228, 229, 230, 231, 232],
      "AcquisitionTime": ["111812.555000", "111814.555000", "111816.555000", "111818.555000", "111820.555000", "111822.555000", "111824.555000", "111826.555000", "111828.555000", "111830.555000", "111832.555000", "111834.555000", "111836.555000", "111838.555000", "111840.555000", "111842.555000", "111844.555000", "111846.555000", "111848.555000", "111850.555000", "111852.555000", "111854.555000", "111856.555000", "111858.555000", "111900.555000", "111902.555000", "111904.555000", "111906.555000", "111908.555000", "111910.555000", "111912.555000", "111914.555000", "111916.555000", "111918.555000", "111920.555000", "111922.555000", "111924.555000", "111926.555000", "111928.555000", "111930.555000", "111932.555000", "111934.555000", "111936.555000", "111938.555000", "111940.555000", "111942.555000", "111944.555000", "111946.555000", "111948.555000", "111950.555000", "111952.555000", "111954.555000", "111956.555000", "111958.555000", "112000.555000", "112002.555000", "112004.555000", "112006.555000", "112008.555000", "112010.555000", "112012.555000", "112014.555000", "112016.555000", "112018.555000", "112020.555000", "112022.555000", "112024.555000", "112026.555000", "112028.555000", "112030.555000", "112032.555000", "112034.555000", "112036.555000", "112038.555000", "112040.555000", "112042.555000", "112044.555000", "112046.555000", "112048.555000", "112050.555000", "112052.555000", "112054.555000", "112056.555000", "112058.555000", "112100.555000", "112102.555000", "112104.555000", "112106.555000", "112108.555000", "112110.555000", "112112.555000", "112114.555000", "112116.555000", "112118.555000", "112120.555000", "112122.555000", "112124.555000", "112126.555000", "112128.555000", "112130.555000", "112132.555000", "112134.555000", "112136.555000", "112138.555000", "112140.555000", "112142.555000", "112144.555000", "112146.555000", "112148.555000", "112150.555000", "112152.555000", "112154.555000", "112156.555000", "112158.555000", "112200.555000", "112202.555000", "112204.555000", "112206.555000", "112208.555000", "112210.555000", "112212.555000", "112214.555000", "112216.555000", "112218.555000", "112220.555000", "112222.555000", "112224.555000", "112226.555000", "112228.555000", "112230.555000", "112232.555000", "112234.555000", "112236.555000", "112238.555000", "112240.555000", "112242.555000", "112244.555000", "112246.555000", "112248.555000", "112250.555000", "112252.555000", "112254.555000", "112256.555000", "112258.555000", "112300.555000", "112302.555000", "112304.555000", "112306.555000", "112308.555000", "112310.555000", "112312.555000", "112314.555000", "112316.555000", "112318.555000", "112320.555000", "112322.555000", "112324.555000", "112326.555000", "112328.555000", "112330.555000", "112332.555000", "112334.555000", "112336.555000", "112338.555000", "112340.555000", "112342.555000", "112344.555000", "112346.555000", "112348.555000", "112350.555000", "112352.555000", "112354.555000", "112356.555000", "112358.555000", "112400.555000", "112402.555000", "112404.555000", "112406.555000", "112408.555000", "112410.555000", "112412.555000", "112414.555000", "112416.555000", "112418.555000", "112420.555000", "112422.555000", "112424.555000", "112426.555000", "112428.555000", "112430.555000", "112432.555000", "112434.555000", "112436.555000", "112438.555000", "112440.555000", "112442.555000", "112444.555000", "112446.555000", "112448.555000", "112450.555000", "112452.555000", "112454.555000", "112456.555000", "112458.555000", "112500.555000", "112502.555000", "112504.555000", "112506.555000", "112508.555000", "112510.555000", "112512.555000", "112514.555000", "112516.555000", "112518.555000", "112520.555000", "112522.555000", "112524.555000", "112526.555000", "112528.555000", "112530.555000", "112532.555000", "112534.555000", "112536.555000", "112538.555000", "112540.555000", "112542.555000", "112544.555000", "112546.555000", "112548.555000", "112550.555000", "112552.555000", "112554.555000"],
      "ContentTime": ["111815.122000", "111816.617000", "111818.618000", "111820.619000", "111822.618000", "111824.118000", "111826.618000", "111828.118000", "111830.619000", "111832.617000", "111834.617000", "111836.618000", "111838.618000", "111840.618000", "111842.618000", "111844.618000", "111846.618000", "111848.618000", "111850.617000", "111852.617000", "111854.618000", "111856.619000", "111858.618000", "111900.619000", "111902.618000", "111904.618000", "111906.618000", "111908.117000", "111910.617000", "111912.619000", "111914.618000", "111916.619000", "111918.618000", "111920.618000", "111922.618000", "111924.618000", "111926.617000", "111928.618000", "111930.619000", "111932.618000", "111934.619000", "111936.618000", "111938.619000", "111940.618000", "111942.617000", "111944.117000", "111946.619000", "111948.619000", "111950.618000", "111952.618000", "111954.618000", "111956.618000", "111958.618000", "112000.617000", "112002.117000", "112004.618000", "112006.618000", "112008.619000", "112010.618000", "112012.618000", "112014.619000", "112016.619000", "112018.618000", "112020.617000", "112022.619000", "112024.618000", "112026.618000", "112028.618000", "112030.618000", "112032.618000", "112034.618000", "112036.618000", "112038.117000", "112040.618000", "112042.618000", "112044.618000", "112046.618000", "112048.619000", "112050.118000", "112052.618000", "112054.617000", "112056.619000", "112058.619000", "112100.619000", "112102.618000", "112104.618000", "112106.618000", "112108.118000", "112110.617000", "112112.617000", "112114.619000", "112116.618000", "112118.118000", "112120.118000", "112122.619000", "112124.618000", "112126.618000", "112128.617000", "112130.617000", "112132.619000", "112134.618000", "112136.618000", "112138.618000", "112140.618000", "112142.618000", "112144.618000", "112146.618000", "112148.617000", "112150.619000", "112152.619000", "112154.618000", "112156.618000", "112158.618000", "112200.618000", "112202.617000", "112204.618000", "112206.618000", "112208.619000", "112210.618000", "112212.618000", "112214.618000", "112216.619000", "112218.118000", "112220.617000", "112222.617000", "112224.618000", "112226.618000", "112228.618000", "112230.619000", "112232.619000", "112234.619000", "112236.618000", "112238.617000", "112240.618000", "112242.619000", "112244.619000", "112246.619000", "112248.619000", "112250.618000", "112252.619000", "112254.619000", "112256.617000", "112258.617000", "112300.619000", "112302.619000", "112304.618000", "112306.618000", "112308.619000", "112310.619000", "112312.618000", "112314.618000", "112316.619000", "112318.619000", "112320.618000", "112322.619000", "112324.619000", "112326.618000", "112328.618000", "112330.617000", "112332.617000", "112334.618000", "112336.618000", "112338.618000", "112340.619000", "112342.618000", "112344.618000", "112346.618000", "112348.617000", "112350.617000", "112352.618000", "112354.619000", "112356.619000", "112358.618000", "112400.619000", "112402.618000", "112404.618000", "112406.617000", "112408.617000", "112410.619000", "112412.619000", "112414.619000", "112416.618000", "112418.619000", "112420.619000", "112422.119000", "112424.617000", "112426.619000", "112428.618000", "112430.619000", "112432.618000", "112434.619000", "112436.619000", "112438.618000", "112440.617000", "112442.617000", "112444.618000", "112446.618000", "112448.619000", "112450.619000", "112452.619000", "112454.618000", "112456.618000", "112458.617000", "112500.618000", "112502.619000", "112504.118000", "112506.618000", "112508.619000", "112510.618000", "112512.619000", "112514.618000", "112516.617000", "112518.617000", "112520.618000", "112522.618000", "112524.618000", "112526.618000", "112528.619000", "112530.618000", "112532.618000", "112534.617000", "112536.618000", "112538.619000", "112540.619000", "112542.619000", "112544.618000", "112546.619000", "112548.619000", "112550.618000", "112552.617000", "112554.118000", "112556.137000"],
      "InstanceCreationTime": ["111815.122000", "111816.617000", "111818.618000", "111820.619000", "111822.618000", "111824.118000", "111826.618000", "111828.118000", "111830.619000", "111832.617000", "111834.617000", "111836.618000", "111838.618000", "111840.618000", "111842.618000", "111844.618000", "111846.618000", "111848.618000", "111850.617000", "111852.617000", "111854.618000", "111856.619000", "111858.618000", "111900.619000", "111902.618000", "111904.618000", "111906.618000", "111908.117000", "111910.617000", "111912.619000", "111914.618000", "111916.619000", "111918.618000", "111920.618000", "111922.618000", "111924.618000", "111926.617000", "111928.618000", "111930.619000", "111932.618000", "111934.619000", "111936.618000", "111938.619000", "111940.618000", "111942.617000", "111944.117000", "111946.619000", "111948.619000", "111950.618000", "111952.618000", "111954.618000", "111956.618000", "111958.618000", "112000.617000", "112002.117000", "112004.618000", "112006.618000", "112008.619000", "112010.618000", "112012.618000", "112014.619000", "112016.619000", "112018.618000", "112020.617000", "112022.619000", "112024.618000", "112026.618000", "112028.618000", "112030.618000", "112032.618000", "112034.618000", "112036.618000", "112038.117000", "112040.618000", "112042.618000", "112044.618000", "112046.618000", "112048.619000", "112050.118000", "112052.618000", "112054.617000", "112056.619000", "112058.619000", "112100.619000", "112102.618000", "112104.618000", "112106.618000", "112108.118000", "112110.617000", "112112.617000", "112114.619000", "112116.618000", "112118.118000", "112120.118000", "112122.619000", "112124.618000", "112126.618000", "112128.617000", "112130.617000", "112132.619000", "112134.618000", "112136.618000", "112138.618000", "112140.618000", "112142.618000", "112144.618000", "112146.618000", "112148.617000", "112150.619000", "112152.619000", "112154.618000", "112156.618000", "112158.618000", "112200.618000", "112202.617000", "112204.618000", "112206.618000", "112208.619000", "112210.618000", "112212.618000", "112214.618000", "112216.619000", "112218.118000", "112220.617000", "112222.617000", "112224.618000", "112226.618000", "112228.618000", "112230.619000", "112232.619000", "112234.619000", "112236.618000", "112238.617000", "112240.618000", "112242.619000", "112244.619000", "112246.619000", "112248.619000", "112250.618000", "112252.619000", "112254.619000", "112256.617000", "112258.617000", "112300.619000", "112302.619000", "112304.618000", "112306.618000", "112308.619000", "112310.619000", "112312.618000", "112314.618000", "112316.619000", "112318.619000", "112320.618000", "112322.619000", "112324.619000", "112326.618000", "112328.618000", "112330.617000", "112332.617000", "112334.618000", "112336.618000", "112338.618000", "112340.619000", "112342.618000", "112344.618000", "112346.618000", "112348.617000", "112350.617000", "112352.618000", "112354.619000", "112356.619000", "112358.618000", "112400.619000", "112402.618000", "112404.618000", "112406.617000", "112408.617000", "112410.619000", "112412.619000", "112414.619000", "112416.618000", "112418.619000", "112420.619000", "112422.119000", "112424.617000", "112426.619000", "112428.618000", "112430.619000", "112432.618000", "112434.619000", "112436.619000", "112438.618000", "112440.617000", "112442.617000", "112444.618000", "112446.618000", "112448.619000", "112450.619000", "112452.619000", "112454.618000", "112456.618000", "112458.617000", "112500.618000", "112502.619000", "112504.118000", "112506.618000", "112508.619000", "112510.618000", "112512.619000", "112514.618000", "112516.617000", "112518.617000", "112520.618000", "112522.618000", "112524.618000", "112526.618000", "112528.619000", "112530.618000", "112532.618000", "112534.617000", "112536.618000", "112538.619000", "112540.619000", "112542.619000", "112544.618000", "112546.619000", "112548.619000", "112550.618000", "112552.617000", "112554.118000", "112556.137000"],
      "InstanceNumber": [1, 2, 3, 4, 5, 6, 7, 8, 9, 10, 11, 12, 13, 14, 15, 16, 17, 18, 19, 20, 21, 22, 23, 24, 25, 26, 27, 28, 29, 30, 31, 32, 33, 34, 35, 36, 37, 38, 39, 40, 41, 42, 43, 44, 45, 46, 47, 48, 49, 50, 51, 52, 53, 54, 55, 56, 57, 58, 59, 60, 61, 62, 63, 64, 65, 66, 67, 68, 69, 70, 71, 72, 73, 74, 75, 76, 77, 78, 79, 80, 81, 82, 83, 84, 85, 86, 87, 88, 89, 90, 91, 92, 93, 94, 95, 96, 97, 98, 99, 100, 101, 102, 103, 104, 105, 106, 107, 108, 109, 110, 111, 112, 113, 114, 115, 116, 117, 118, 119, 120, 121, 122, 123, 124, 125, 126, 127, 128, 129, 130, 131, 132, 133, 134, 135, 136, 137, 138, 139, 140, 141, 142, 143, 144, 145, 146, 147, 148, 149, 150, 151, 152, 153, 154, 155, 156, 157, 158, 159, 160, 161, 162, 163, 164, 165, 166, 167, 168, 169, 170, 171, 172, 173, 174, 175, 176, 177, 178, 179, 180, 181, 182, 183, 184, 185, 186, 187, 188, 189, 190, 191, 192, 193, 194, 195, 196, 197, 198, 199, 200, 201, 202, 203, 204, 205, 206, 207, 208, 209, 210, 211, 212, 213, 214, 215, 216, 217, 218, 219, 220, 221, 222, 223, 224, 225, 226, 227, 228, 229, 230, 231, 232],
      "LargestImagePixelValue": [3384, 3377, 3336, 3367, 3391, 3367, 3352, 3403, 3396, 3371, 3326, 3381, 3324, 3328, 3336, 3380, 3347, 3316, 3322, 3391, 3381, 3419, 3343, 3360, 3407, 3377, 3362, 3378, 3385, 3421, 3444, 3375, 3348, 3429, 3434, 3414, 3443, 3403, 3440, 3441, 3477, 3497, 3515, 3609, 3426, 3535, 3461, 3582, 3570, 3468, 3440, 3427, 3420, 3391, 3410, 3381, 3411, 3419, 3413, 3417, 3434, 3414, 3407, 3409, 3375, 3371, 3373, 3385, 3375, 3404, 3347, 3459, 3404, 3430, 3409, 3402, 3416, 3387, 3415, 3454, 3396, 3459, 3471, 3412, 3451, 3408, 3435, 3443, 3391, 3402, 3421, 3374, 3465, 3389, 3359, 3410, 3418, 3410, 3434, 3402, 3441, 3399, 3488, 3436, 3491, 3459, 3389, 3348, 3457, 3374, 3466, 3393, 3497, 3409, 3447, 3423, 3443, 3459, 3394, 3411, 3423, 3408, 3456, 3534, 3443, 3370, 3422, 3401, 3452, 3439, 3414, 3416, 3416, 3437, 3419, 3438, 3397, 3396, 3444, 3412, 3432, 3414, 3433, 3431, 3374, 3409, 3418, 3392, 3417, 3400, 3458, 3379, 3415, 3413, 3457, 3425, 3431, 3410, 3405, 3393, 3424, 3433, 3432, 3424, 3474, 3405, 3423, 3434, 3426, 3431, 3415, 3431, 3445, 3447, 3419, 3463, 3412, 3504, 3371, 3332, 3318, 3365, 3342, 3307, 3297, 3328, 3379, 3407, 3347, 3336, 3330, 3324, 3363, 3302, 3441, 3369, 3384, 3418, 3335, 3384, 3327, 3323, 3445, 3343, 3307, 3330, 3335, 3289, 3312, 3298, 3310, 3335, 3341, 3321, 3356, 3297, 3337, 3352, 3330, 3346, 3382, 3352, 3360, 3370, 3372, 3371, 3353, 3367, 3366, 3388, 3414, 3420],
      "WindowCenter": [756.0, 755.0, 756.0, 756.0, 756.0, 755.0, 755.0, 756.0, 756.0, 755.0, 755.0, 756.0, 756.0, 756.0, 756.0, 756.0, 756.0, 756.0, 758.0, 758.0, 758.0, 757.0, 756.0, 756.0, 758.0, 760.0, 760.0, 760.0, 759.0, 758.0, 760.0, 760.0, 759.0, 759.0, 760.0, 760.0, 760.0, 759.0, 758.0, 758.0, 758.0, 760.0, 759.0, 758.0, 756.0, 757.0, 757.0, 758.0, 757.0, 757.0, 758.0, 758.0, 757.0, 757.0, 756.0, 757.0, 757.0, 758.0, 759.0, 759.0, 758.0, 757.0, 757.0, 758.0, 758.0, 758.0, 758.0, 759.0, 759.0, 759.0, 758.0, 758.0, 756.0, 757.0, 758.0, 759.0, 758.0, 757.0, 757.0, 758.0, 758.0, 758.0, 758.0, 757.0, 758.0, 758.0, 759.0, 759.0, 759.0, 760.0, 761.0, 760.0, 759.0, 758.0, 758.0, 758.0, 758.0, 758.0, 759.0, 758.0, 758.0, 758.0, 759.0, 758.0, 759.0, 758.0, 757.0, 758.0, 758.0, 757.0, 756.0, 757.0, 758.0, 756.0, 757.0, 758.0, 758.0, 758.0, 758.0, 758.0, 758.0, 759.0, 759.0, 760.0, 759.0, 757.0, 754.0, 755.0, 754.0, 755.0, 757.0, 757.0, 756.0, 756.0, 757.0, 757.0, 757.0, 757.0, 758.0, 758.0, 757.0, 756.0, 757.0, 757.0, 757.0, 757.0, 758.0, 757.0, 757.0, 757.0, 758.0, 757.0, 757.0, 758.0, 758.0, 758.0, 757.0, 757.0, 757.0, 757.0, 757.0, 759.0, 759.0, 759.0, 759.0, 759.0, 759.0, 758.0, 758.0, 758.0, 758.0, 759.0, 758.0, 758.0, 758.0, 758.0, 757.0, 759.0, 757.0, 757.0, 754.0, 753.0, 752.0, 752.0, 752.0, 752.0, 753.0, 752.0, 751.0, 751.0, 752.0, 753.0, 754.0, 753.0, 754.0, 754.0, 754.0, 754.0, 753.0, 754.0, 754.0, 755.0, 757.0, 757.0, 757.0, 757.0, 756.0, 754.0, 756.0, 757.0, 757.0, 756.0, 756.0, 756.0, 757.0, 756.0, 756.0, 756.0, 757.0, 755.0, 755.0, 755.0, 754.0, 755.0, 755.0, 757.0, 757.0, 758.0, 756.0, 755.0, 756.0, 755.0],
      "WindowWidth": [1642.0, 1639.0, 1641.0, 1642.0, 1641.0, 1638.0, 1638.0, 1640.0, 1640.0, 1639.0, 1638.0, 1640.0, 1639.0, 1639.0, 1640.0, 1642.0, 1641.0, 1641.0, 1645.0, 1647.0, 1645.0, 1642.0, 1641.0, 1641.0, 1647.0, 1650.0, 1653.0, 1652.0, 1649.0, 1647.0, 1650.0, 1652.0, 1649.0, 1650.0, 1651.0, 1652.0, 1652.0, 1647.0, 1647.0, 1645.0, 1646.0, 1651.0, 1649.0, 1647.0, 1641.0, 1644.0, 1644.0, 1646.0, 1643.0, 1642.0, 1645.0, 1646.0, 1644.0, 1641.0, 1641.0, 1642.0, 1643.0, 1647.0, 1648.0, 1647.0, 1644.0, 1643.0, 1644.0, 1646.0, 1644.0, 1646.0, 1646.0, 1648.0, 1649.0, 1649.0, 1645.0, 1645.0, 1641.0, 1642.0, 1645.0, 1648.0, 1647.0, 1642.0, 1643.0, 1646.0, 1645.0, 1646.0, 1645.0, 1643.0, 1646.0, 1645.0, 1648.0, 1650.0, 1650.0, 1651.0, 1653.0, 1651.0, 1650.0, 1646.0, 1645.0, 1645.0, 1645.0, 1647.0, 1648.0, 1645.0, 1646.0, 1645.0, 1648.0, 1646.0, 1648.0, 1647.0, 1643.0, 1645.0, 1645.0, 1644.0, 1640.0, 1643.0, 1645.0, 1641.0, 1644.0, 1646.0, 1646.0, 1645.0, 1644.0, 1645.0, 1646.0, 1649.0, 1647.0, 1652.0, 1648.0, 1642.0, 1636.0, 1636.0, 1635.0, 1638.0, 1643.0, 1643.0, 1639.0, 1638.0, 1641.0, 1642.0, 1642.0, 1643.0, 1646.0, 1646.0, 1643.0, 1640.0, 1641.0, 1642.0, 1642.0, 1643.0, 1644.0, 1643.0, 1642.0, 1642.0, 1645.0, 1642.0, 1644.0, 1644.0, 1645.0, 1644.0, 1643.0, 1642.0, 1642.0, 1643.0, 1643.0, 1648.0, 1649.0, 1646.0, 1647.0, 1647.0, 1648.0, 1645.0, 1644.0, 1645.0, 1646.0, 1647.0, 1646.0, 1645.0, 1644.0, 1646.0, 1643.0, 1647.0, 1642.0, 1641.0, 1633.0, 1630.0, 1629.0, 1628.0, 1628.0, 1629.0, 1631.0, 1629.0, 1626.0, 1625.0, 1630.0, 1631.0, 1633.0, 1631.0, 1633.0, 1632.0, 1634.0, 1634.0, 1632.0, 1632.0, 1633.0, 1636.0, 1641.0, 1642.0, 1641.0, 1641.0, 1638.0, 1635.0, 1638.0, 1642.0, 1643.0, 1639.0, 1638.0, 1641.0, 1642.0, 1639.0, 1638.0, 1640.0, 1641.0, 1638.0, 1637.0, 1637.0, 1634.0, 1635.0, 1636.0, 1641.0, 1643.0, 1644.0, 1639.0, 1637.0, 1639.0, 1638.0]
    },
    "slices": {}
  }
}