{
  "AcquisitionMatrixPE": 100,
  "AcquisitionNumber": 1,
  "AcquisitionTime": "14:01:37.450000",
  "BandwidthPerPixelPhaseEncode": 18.519,
  "BaseResolution": 100,
  "BodyPartExamined": "BRAIN",
  "ConsistencyInfo": "N4_VE11C_LATEST_20160120",
  "ConversionSoftware": "dcm2niix",
  "ConversionSoftwareVersion": "v1.0.20180622 GCC4.9.2",
  "DerivedVendorReportedEchoSpacing": 0.000539986,
  "DeviceSerialNumber": "166078",
  "DwellTime": 2.1e-06,
  "EchoTime": 0.034,
  "EchoTrainLength": 100,
  "EffectiveEchoSpacing": 0.000539986,
  "FlipAngle": 90,
  "ImageOrientationPatientDICOM": [0.999976, 0.00151098, 0.00681578, 4.00657e-08, 0.976296, -0.21644],
  "ImageType": [
    "ORIGINAL",
    "PRIMARY",
    "M",
    "ND",
    "MOSAIC"
],
  "InPlanePhaseEncodingDirectionDICOM": "COL",
  "InstitutionAddress": "Street_StreetNo_Bei_Jing_District_CN_ZIP",
  "InstitutionName": "BeiJing_Normal_University",
  "InstitutionalDepartmentName": "Department",
  "MRAcquisitionType": "2D",
  "MagneticFieldStrength": 3,
  "Manufacturer": "Siemens",
  "ManufacturersModelName": "Prisma",
  "Modality": "MR",
  "MultibandAccelerationFactor": 3,
  "PartialFourier": 1,
  "PatientPosition": "HFS",
  "PercentPhaseFOV": 100,
  "PhaseEncodingDirection": "j-",
  "PhaseEncodingSteps": 100,
  "PhaseResolution": 1,
  "PixelBandwidth": 2380,
  "ProcedureStepDescription": "BNU_P2018_64CH_Liu.Jia",
  "ProtocolName": "bold_100x100_s3_2x2x2_232",
  "PulseSequenceDetails": "%SiemensSeq%_ep2d_bold",
  "ReceiveCoilActiveElements": "HC1-7;NC1",
  "ReceiveCoilName": "HeadNeck_64",
  "ReconMatrixPE": 100,
  "RepetitionTime": 2,
  "SAR": 0.0595991,
  "ScanOptions": "FS",
  "ScanningSequence": "EP",
  "SequenceName": "_epfid2d1_100",
  "SequenceVariant": "SK",
  "SeriesDescription": "bold_100x100_s3_2x2x2_232",
  "SeriesNumber": 3,
  "ShimSetting": [-5459, -11464, -1313, 379, -105, -215, -202, 56],
  "SliceThickness": 2,
  "SliceTiming": [1.485, 0, 0.99, 0.0825, 1.0725, 0.165, 1.155, 0.2475, 1.2375, 0.33, 1.32, 0.4125, 1.4025, 0.5775, 1.5675, 0.66, 1.65, 0.7425, 1.7325, 0.825, 1.815, 0.9075, 1.8975, 0.495, 1.485, 0, 0.99, 0.0825, 1.0725, 0.165, 1.155, 0.2475, 1.2375, 0.33, 1.32, 0.4125, 1.4025, 0.5775, 1.5675, 0.66, 1.65, 0.7425, 1.7325, 0.825, 1.815, 0.9075, 1.8975, 0.495, 1.485, 0, 0.99, 0.0825, 1.0725, 0.165, 1.155, 0.2475, 1.2375, 0.33, 1.32, 0.4125, 1.4025, 0.5775, 1.5675, 0.66, 1.65, 0.7425, 1.7325, 0.825, 1.815, 0.9075, 1.8975, 0.495],
  "SoftwareVersions": "syngo_MR_E11",
  "SpacingBetweenSlices": 2,
  "StationName": "AWP166078",
  "TaskName": "motor",
  "TotalReadoutTime": 0.0534586,
  "TxRefAmp": 206.401,
  "dcmmeta_affine": [
    [-1.9999512434005737, 8.013149255248209e-08, 0.013962505385279655, 101.45709228515625],
    [-0.0030219610780477524, 1.9525920152664185, -0.4328686594963074, -86.50300598144531],
    [0.013631556183099747, 0.4328792095184326, 1.9525444507598877, -94.34886169433594],
    [0.0, 0.0, 0.0, 1.0]
],
  "dcmmeta_reorient_transform": [
    [0.0, -1.0, 0.0, 99.0],
    [1.0, 0.0, 0.0, 0.0],
    [0.0, 0.0, 1.0, 0.0],
    [0.0, 0.0, 0.0, 1.0]
],
  "dcmmeta_shape": [100, 100, 72, 232],
  "dcmmeta_slice_dim": 2,
  "dcmmeta_version": 0.6,
  "global": {
    "const": {
      "AcquisitionMatrix": [100, 0, 0, 100],
      "AngioFlag": "N",
      "BitsAllocated": 16,
      "BitsStored": 12,
      "BodyPartExamined": "BRAIN",
      "Columns": 900,
      "EchoNumbers": 1,
      "EchoTime": 34.0,
      "EchoTrainLength": 100,
      "FlipAngle": 90.0,
      "HighBit": 11,
      "ImageOrientationPatient": [0.99997563075761, 0.00151098053693, 0.00681577792548, 4.0065745e-08, 0.97629600752515, -0.2164396121103],
      "ImagePositionPatient": [-901.43763469061, -889.04919746663, 116.20525112033],
      "ImageType": [
        "ORIGINAL",
        "PRIMARY",
        "M",
        "ND",
        "MOSAIC"
],
      "ImagedNucleus": "1H",
      "ImagingFrequency": 123.25784,
      "InPlanePhaseEncodingDirection": "COL",
      "MRAcquisitionType": "2D",
      "MagneticFieldStrength": 3.0,
      "Manufacturer": "SIEMENS",
      "ManufacturerModelName": "Prisma",
      "Modality": "MR",
      "NumberOfAverages": 1.0,
      "NumberOfPhaseEncodingSteps": 100,
      "PercentPhaseFieldOfView": 100.0,
      "PercentSampling": 100.0,
      "PerformedProcedureStepStartTime": "135837.620000",
      "PhotometricInterpretation": "MONOCHROME2",
      "PixelBandwidth": 2380.0,
      "PixelRepresentation": 0,
      "PixelSpacing": [2.0, 2.0],
      "ProtocolName": "bold_100x100_s3_2x2x2_232",
      "RepetitionTime": 2000.0,
      "Rows": 900,
      "SAR": 0.05959907075188,
      "SamplesPerPixel": 1,
      "ScanOptions": "FS",
      "ScanningSequence": "EP",
      "SequenceName": "*epfid2d1_100",
      "SequenceVariant": "SK",
      "SeriesDescription": "bold_100x100_s3_2x2x2_232",
      "SeriesNumber": 3,
      "SeriesTime": "140140.565000",
      "SliceLocation": -72.679652392055,
      "SliceThickness": 2.0,
      "SmallestImagePixelValue": 0,
      "SoftwareVersions": "syngo MR E11",
      "SpacingBetweenSlices": 1.9999999825401,
      "SpecificCharacterSet": "ISO_IR 100",
      "StudyID": "1",
      "StudyTime": "135837.530000",
      "TransmitCoilName": "Body",
      "VariableFlipAngleFlag": "N",
      "WindowCenterWidthExplanation": "Algo1",
      "dBdt": 0.0},
    "slices": {}
  },
  "time": {
    "samples": {
      "AcquisitionNumber": [1, 2, 3, 4, 5, 6, 7, 8, 9, 10, 11, 12, 13, 14, 15, 16, 17, 18, 19, 20, 21, 22, 23, 24, 25, 26, 27, 28, 29, 30, 31, 32, 33, 34, 35, 36, 37, 38, 39, 40, 41, 42, 43, 44, 45, 46, 47, 48, 49, 50, 51, 52, 53, 54, 55, 56, 57, 58, 59, 60, 61, 62, 63, 64, 65, 66, 67, 68, 69, 70, 71, 72, 73, 74, 75, 76, 77, 78, 79, 80, 81, 82, 83, 84, 85, 86, 87, 88, 89, 90, 91, 92, 93, 94, 95, 96, 97, 98, 99, 100, 101, 102, 103, 104, 105, 106, 107, 108, 109, 110, 111, 112, 113, 114, 115, 116, 117, 118, 119, 120, 121, 122, 123, 124, 125, 126, 127, 128, 129, 130, 131, 132, 133, 134, 135, 136, 137, 138, 139, 140, 141, 142, 143, 144, 145, 146, 147, 148, 149, 150, 151, 152, 153, 154, 155, 156, 157, 158, 159, 160, 161, 162, 163, 164, 165, 166, 167, 168, 169, 170, 171, 172, 173, 174, 175, 176, 177, 178, 179, 180, 181, 182, 183, 184, 185, 186, 187, 188, 189, 190, 191, 192, 193, 194, 195, 196, 197, 198, 199, 200, 201, 202, 203, 204, 205, 206, 207, 208, 209, 210, 211, 212, 213, 214, 215, 216, 217, 218, 219, 220, 221, 222, 223, 224, 225, 226, 227, 228, 229, 230, 231, 232],
      "AcquisitionTime": ["140137.450000", "140139.450000", "140141.450000", "140143.450000", "140145.450000", "140147.450000", "140149.450000", "140151.450000", "140153.450000", "140155.450000", "140157.450000", "140159.450000", "140201.450000", "140203.450000", "140205.450000", "140207.450000", "140209.450000", "140211.450000", "140213.450000", "140215.450000", "140217.450000", "140219.450000", "140221.450000", "140223.450000", "140225.450000", "140227.450000", "140229.450000", "140231.450000", "140233.450000", "140235.450000", "140237.450000", "140239.450000", "140241.450000", "140243.450000", "140245.450000", "140247.450000", "140249.450000", "140251.450000", "140253.450000", "140255.450000", "140257.450000", "140259.450000", "140301.450000", "140303.450000", "140305.450000", "140307.450000", "140309.450000", "140311.450000", "140313.450000", "140315.450000", "140317.450000", "140319.450000", "140321.450000", "140323.450000", "140325.450000", "140327.450000", "140329.450000", "140331.450000", "140333.450000", "140335.450000", "140337.450000", "140339.450000", "140341.450000", "140343.450000", "140345.450000", "140347.450000", "140349.450000", "140351.450000", "140353.450000", "140355.450000", "140357.450000", "140359.450000", "140401.450000", "140403.450000", "140405.450000", "140407.450000", "140409.450000", "140411.450000", "140413.450000", "140415.450000", "140417.450000", "140419.450000", "140421.450000", "140423.450000", "140425.450000", "140427.450000", "140429.450000", "140431.450000", "140433.450000", "140435.450000", "140437.450000", "140439.450000", "140441.450000", "140443.450000", "140445.450000", "140447.450000", "140449.450000", "140451.450000", "140453.450000", "140455.450000", "140457.450000", "140459.450000", "140501.450000", "140503.450000", "140505.450000", "140507.450000", "140509.450000", "140511.450000", "140513.450000", "140515.450000", "140517.450000", "140519.450000", "140521.450000", "140523.450000", "140525.450000", "140527.450000", "140529.450000", "140531.450000", "140533.450000", "140535.450000", "140537.450000", "140539.450000", "140541.450000", "140543.450000", "140545.450000", "140547.450000", "140549.450000", "140551.450000", "140553.450000", "140555.450000", "140557.450000", "140559.450000", "140601.450000", "140603.450000", "140605.450000", "140607.450000", "140609.450000", "140611.450000", "140613.450000", "140615.450000", "140617.450000", "140619.450000", "140621.450000", "140623.450000", "140625.450000", "140627.450000", "140629.450000", "140631.450000", "140633.450000", "140635.450000", "140637.450000", "140639.450000", "140641.450000", "140643.450000", "140645.450000", "140647.450000", "140649.450000", "140651.450000", "140653.450000", "140655.450000", "140657.450000", "140659.450000", "140701.450000", "140703.450000", "140705.450000", "140707.450000", "140709.450000", "140711.450000", "140713.450000", "140715.450000", "140717.450000", "140719.450000", "140721.450000", "140723.450000", "140725.450000", "140727.450000", "140729.450000", "140731.450000", "140733.450000", "140735.450000", "140737.450000", "140739.450000", "140741.450000", "140743.450000", "140745.450000", "140747.450000", "140749.450000", "140751.450000", "140753.450000", "140755.450000", "140757.450000", "140759.450000", "140801.450000", "140803.450000", "140805.450000", "140807.450000", "140809.450000", "140811.450000", "140813.450000", "140815.450000", "140817.450000", "140819.450000", "140821.450000", "140823.450000", "140825.450000", "140827.450000", "140829.450000", "140831.450000", "140833.450000", "140835.450000", "140837.450000", "140839.450000", "140841.450000", "140843.450000", "140845.450000", "140847.450000", "140849.450000", "140851.450000", "140853.450000", "140855.450000", "140857.450000", "140859.450000", "140901.450000", "140903.450000", "140905.450000", "140907.450000", "140909.450000", "140911.450000", "140913.450000", "140915.450000", "140917.450000", "140919.450000"],
      "ContentTime": ["140140.569000", "140141.564000", "140143.566000", "140145.565000", "140148.065000", "140149.565000", "140151.565000", "140154.065000", "140156.065000", "140157.564000", "140159.565000", "140201.565000", "140203.566000", "140205.565000", "140208.065000", "140210.066000", "140211.565000", "140213.564000", "140216.065000", "140218.066000", "140219.565000", "140222.065000", "140223.565000", "140225.565000", "140227.566000", "140230.065000", "140231.564000", "140234.064000", "140235.565000", "140238.065000", "140239.565000", "140241.565000", "140243.565000", "140246.065000", "140247.565000", "140249.564000", "140251.564000", "140254.065000", "140255.565000", "140257.565000", "140300.066000", "140301.565000", "140303.565000", "140305.565000", "140307.564000", "140309.564000", "140311.566000", "140313.566000", "140315.566000", "140317.565000", "140319.565000", "140321.565000", "140323.564000", "140326.064000", "140327.565000", "140329.566000", "140331.565000", "140334.065000", "140335.565000", "140337.566000", "140339.565000", "140341.565000", "140343.564000", "140345.565000", "140347.565000", "140349.565000", "140351.565000", "140353.565000", "140355.565000", "140357.565000", "140400.064000", "140401.564000", "140404.066000", "140405.565000", "140408.066000", "140409.566000", "140411.565000", "140413.565000", "140415.566000", "140417.564000", "140419.564000", "140422.065000", "140423.566000", "140425.565000", "140428.065000", "140429.566000", "140431.565000", "140433.564000", "140435.565000", "140438.066000", "140439.565000", "140441.565000", "140443.565000", "140446.066000", "140447.565000", "140449.566000", "140451.564000", "140454.065000", "140455.565000", "140457.565000", "140459.565000", "140501.566000", "140504.066000", "140505.566000", "140507.565000", "140509.564000", "140511.565000", "140513.566000", "140515.566000", "140517.565000", "140519.565000", "140521.565000", "140523.566000", "140525.565000", "140527.564000", "140530.065000", "140532.065000", "140533.565000", "140535.565000", "140538.065000", "140540.065000", "140541.565000", "140543.564000", "140546.064000", "140547.566000", "140549.565000", "140551.565000", "140553.566000", "140555.565000", "140557.565000", "140559.566000", "140602.065000", "140603.565000", "140605.565000", "140608.065000", "140609.565000", "140611.565000", "140614.065000", "140615.565000", "140617.565000", "140620.064000", "140622.065000", "140623.565000", "140625.566000", "140627.565000", "140629.565000", "140631.565000", "140634.066000", "140635.565000", "140637.564000", "140640.066000", "140642.065000", "140644.065000", "140645.565000", "140647.566000", "140649.566000", "140651.565000", "140653.565000", "140655.564000", "140658.066000", "140700.065000", "140701.565000", "140703.566000", "140705.566000", "140707.565000", "140709.565000", "140711.565000", "140713.565000", "140715.565000", "140718.065000", "140719.565000", "140721.565000", "140724.065000", "140725.565000", "140728.065000", "140729.564000", "140731.564000", "140734.065000", "140736.065000", "140737.565000", "140739.565000", "140741.566000", "140743.565000", "140745.565000", "140747.564000", "140749.565000", "140751.565000", "140753.565000", "140755.565000", "140757.566000", "140759.565000", "140801.566000", "140803.564000", "140805.564000", "140808.065000", "140810.065000", "140811.565000", "140813.565000", "140816.065000", "140818.065000", "140819.566000", "140821.564000", "140823.564000", "140825.565000", "140828.066000", "140829.565000", "140831.566000", "140833.566000", "140836.065000", "140837.575000", "140840.065000", "140841.564000", "140843.565000", "140845.566000", "140847.565000", "140850.065000", "140852.066000", "140854.065000", "140855.565000", "140857.564000", "140859.565000", "140901.566000", "140903.566000", "140905.565000", "140907.566000", "140909.565000", "140911.566000", "140913.565000", "140916.065000", "140918.065000", "140919.565000", "140921.469000"],
      "InstanceCreationTime": ["140140.569000", "140141.564000", "140143.566000", "140145.565000", "140148.065000", "140149.565000", "140151.565000", "140154.065000", "140156.065000", "140157.564000", "140159.565000", "140201.565000", "140203.566000", "140205.565000", "140208.065000", "140210.066000", "140211.565000", "140213.564000", "140216.065000", "140218.066000", "140219.565000", "140222.065000", "140223.565000", "140225.565000", "140227.566000", "140230.065000", "140231.564000", "140234.064000", "140235.565000", "140238.065000", "140239.565000", "140241.565000", "140243.565000", "140246.065000", "140247.565000", "140249.564000", "140251.564000", "140254.065000", "140255.565000", "140257.565000", "140300.066000", "140301.565000", "140303.565000", "140305.565000", "140307.564000", "140309.564000", "140311.566000", "140313.566000", "140315.566000", "140317.565000", "140319.565000", "140321.565000", "140323.564000", "140326.064000", "140327.565000", "140329.566000", "140331.565000", "140334.065000", "140335.565000", "140337.566000", "140339.565000", "140341.565000", "140343.564000", "140345.565000", "140347.565000", "140349.565000", "140351.565000", "140353.565000", "140355.565000", "140357.565000", "140400.064000", "140401.564000", "140404.066000", "140405.565000", "140408.066000", "140409.566000", "140411.565000", "140413.565000", "140415.566000", "140417.564000", "140419.564000", "140422.065000", "140423.566000", "140425.565000", "140428.065000", "140429.566000", "140431.565000", "140433.564000", "140435.565000", "140438.066000", "140439.565000", "140441.565000", "140443.565000", "140446.066000", "140447.565000", "140449.566000", "140451.564000", "140454.065000", "140455.565000", "140457.565000", "140459.565000", "140501.566000", "140504.066000", "140505.566000", "140507.565000", "140509.564000", "140511.565000", "140513.566000", "140515.566000", "140517.565000", "140519.565000", "140521.565000", "140523.566000", "140525.565000", "140527.564000", "140530.065000", "140532.065000", "140533.565000", "140535.565000", "140538.065000", "140540.065000", "140541.565000", "140543.564000", "140546.064000", "140547.566000", "140549.565000", "140551.565000", "140553.566000", "140555.565000", "140557.565000", "140559.566000", "140602.065000", "140603.565000", "140605.565000", "140608.065000", "140609.565000", "140611.565000", "140614.065000", "140615.565000", "140617.565000", "140620.064000", "140622.065000", "140623.565000", "140625.566000", "140627.565000", "140629.565000", "140631.565000", "140634.066000", "140635.565000", "140637.564000", "140640.066000", "140642.065000", "140644.065000", "140645.565000", "140647.566000", "140649.566000", "140651.565000", "140653.565000", "140655.564000", "140658.066000", "140700.065000", "140701.565000", "140703.566000", "140705.566000", "140707.565000", "140709.565000", "140711.565000", "140713.565000", "140715.565000", "140718.065000", "140719.565000", "140721.565000", "140724.065000", "140725.565000", "140728.065000", "140729.564000", "140731.564000", "140734.065000", "140736.065000", "140737.565000", "140739.565000", "140741.566000", "140743.565000", "140745.565000", "140747.564000", "140749.565000", "140751.565000", "140753.565000", "140755.565000", "140757.566000", "140759.565000", "140801.566000", "140803.564000", "140805.564000", "140808.065000", "140810.065000", "140811.565000", "140813.565000", "140816.065000", "140818.065000", "140819.566000", "140821.564000", "140823.564000", "140825.565000", "140828.066000", "140829.565000", "140831.566000", "140833.566000", "140836.065000", "140837.575000", "140840.065000", "140841.564000", "140843.565000", "140845.566000", "140847.565000", "140850.065000", "140852.066000", "140854.065000", "140855.565000", "140857.564000", "140859.565000", "140901.566000", "140903.566000", "140905.565000", "140907.566000", "140909.565000", "140911.566000", "140913.565000", "140916.065000", "140918.065000", "140919.565000", "140921.469000"],
      "InstanceNumber": [1, 2, 3, 4, 5, 6, 7, 8, 9, 10, 11, 12, 13, 14, 15, 16, 17, 18, 19, 20, 21, 22, 23, 24, 25, 26, 27, 28, 29, 30, 31, 32, 33, 34, 35, 36, 37, 38, 39, 40, 41, 42, 43, 44, 45, 46, 47, 48, 49, 50, 51, 52, 53, 54, 55, 56, 57, 58, 59, 60, 61, 62, 63, 64, 65, 66, 67, 68, 69, 70, 71, 72, 73, 74, 75, 76, 77, 78, 79, 80, 81, 82, 83, 84, 85, 86, 87, 88, 89, 90, 91, 92, 93, 94, 95, 96, 97, 98, 99, 100, 101, 102, 103, 104, 105, 106, 107, 108, 109, 110, 111, 112, 113, 114, 115, 116, 117, 118, 119, 120, 121, 122, 123, 124, 125, 126, 127, 128, 129, 130, 131, 132, 133, 134, 135, 136, 137, 138, 139, 140, 141, 142, 143, 144, 145, 146, 147, 148, 149, 150, 151, 152, 153, 154, 155, 156, 157, 158, 159, 160, 161, 162, 163, 164, 165, 166, 167, 168, 169, 170, 171, 172, 173, 174, 175, 176, 177, 178, 179, 180, 181, 182, 183, 184, 185, 186, 187, 188, 189, 190, 191, 192, 193, 194, 195, 196, 197, 198, 199, 200, 201, 202, 203, 204, 205, 206, 207, 208, 209, 210, 211, 212, 213, 214, 215, 216, 217, 218, 219, 220, 221, 222, 223, 224, 225, 226, 227, 228, 229, 230, 231, 232],
      "LargestImagePixelValue": [3115, 3041, 3037, 2998, 3017, 3001, 3020, 3026, 3017, 3166, 3215, 3150, 3107, 3300, 3193, 3135, 3228, 3094, 3027, 3021, 3004, 3029, 3032, 3013, 3031, 3021, 3031, 3014, 3040, 3033, 3024, 3044, 3038, 3034, 3050, 3019, 3033, 3028, 3021, 3072, 3016, 3013, 3007, 2989, 2951, 2895, 2954, 2986, 2983, 2960, 2971, 2951, 2948, 2959, 2998, 3040, 3023, 3011, 2973, 3002, 2983, 3012, 2995, 3041, 3030, 3165, 3179, 3005, 2978, 3105, 3079, 3165, 3080, 3054, 3021, 3044, 3040, 3041, 3045, 3045, 3095, 3048, 2924, 3018, 2977, 2972, 3066, 3050, 2961, 3112, 3036, 3106, 3065, 3066, 3058, 3057, 2947, 2917, 2945, 3011, 3064, 3052, 3048, 2996, 3018, 3148, 3048, 3017, 2993, 3016, 2988, 3105, 3002, 3022, 2973, 3009, 2999, 3011, 3064, 3031, 2984, 3016, 3091, 3147, 3109, 3157, 3175, 3166, 3159, 3151, 3137, 3168, 3138, 3143, 3125, 3129, 3171, 3054, 3087, 2988, 3055, 2952, 2954, 3079, 3105, 3026, 3077, 3091, 3055, 3047, 3060, 3079, 3093, 3074, 3061, 3017, 3089, 3067, 3072, 3075, 3073, 3134, 3125, 3042, 3013, 2959, 2983, 2968, 3095, 3073, 3079, 3066, 3046, 3040, 3025, 3002, 2984, 2927, 2943, 2923, 2934, 2969, 2962, 2932, 2971, 2949, 2923, 2802, 2845, 3000, 3016, 3014, 3024, 3018, 2955, 2946, 2894, 2896, 2906, 2865, 2840, 2940, 2929, 2869, 2857, 2866, 2908, 2842, 2886, 2824, 2862, 2982, 2876, 2952, 2927, 2913, 2916, 2820, 2940, 2811, 2816, 2736, 2941, 2957, 2907, 2800, 2867, 2815, 2858, 2866, 2899, 2850],
      "WindowCenter": [734.0, 733.0, 734.0, 734.0, 734.0, 733.0, 733.0, 733.0, 733.0, 736.0, 737.0, 736.0, 732.0, 739.0, 736.0, 735.0, 733.0, 735.0, 735.0, 736.0, 736.0, 737.0, 738.0, 738.0, 737.0, 735.0, 736.0, 736.0, 737.0, 737.0, 737.0, 736.0, 736.0, 735.0, 737.0, 737.0, 736.0, 735.0, 735.0, 735.0, 735.0, 735.0, 734.0, 733.0, 733.0, 729.0, 730.0, 728.0, 728.0, 731.0, 732.0, 733.0, 732.0, 731.0, 731.0, 732.0, 732.0, 733.0, 733.0, 734.0, 735.0, 736.0, 736.0, 736.0, 735.0, 737.0, 737.0, 731.0, 734.0, 731.0, 734.0, 731.0, 731.0, 732.0, 735.0, 736.0, 735.0, 735.0, 735.0, 734.0, 733.0, 731.0, 730.0, 733.0, 733.0, 733.0, 735.0, 734.0, 730.0, 730.0, 730.0, 731.0, 730.0, 729.0, 729.0, 729.0, 729.0, 727.0, 728.0, 730.0, 732.0, 731.0, 731.0, 732.0, 732.0, 731.0, 732.0, 733.0, 733.0, 731.0, 729.0, 731.0, 730.0, 730.0, 730.0, 729.0, 730.0, 731.0, 731.0, 730.0, 730.0, 730.0, 732.0, 732.0, 731.0, 731.0, 731.0, 730.0, 730.0, 731.0, 731.0, 731.0, 731.0, 732.0, 731.0, 729.0, 731.0, 731.0, 732.0, 730.0, 730.0, 728.0, 729.0, 731.0, 731.0, 727.0, 729.0, 730.0, 730.0, 729.0, 729.0, 729.0, 730.0, 729.0, 731.0, 731.0, 731.0, 730.0, 731.0, 731.0, 730.0, 731.0, 731.0, 732.0, 729.0, 729.0, 727.0, 729.0, 732.0, 730.0, 730.0, 731.0, 732.0, 732.0, 732.0, 731.0, 730.0, 728.0, 731.0, 730.0, 729.0, 728.0, 727.0, 728.0, 728.0, 728.0, 726.0, 725.0, 723.0, 726.0, 725.0, 723.0, 723.0, 724.0, 723.0, 722.0, 722.0, 723.0, 723.0, 722.0, 722.0, 723.0, 724.0, 724.0, 723.0, 723.0, 723.0, 723.0, 724.0, 723.0, 723.0, 725.0, 724.0, 725.0, 724.0, 723.0, 724.0, 720.0, 728.0, 725.0, 724.0, 720.0, 727.0, 726.0, 721.0, 725.0, 726.0, 725.0, 726.0, 727.0, 727.0, 725.0],
      "WindowWidth": [1592.0, 1592.0, 1594.0, 1594.0, 1592.0, 1590.0, 1590.0, 1591.0, 1590.0, 1598.0, 1602.0, 1598.0, 1587.0, 1606.0, 1598.0, 1596.0, 1592.0, 1597.0, 1596.0, 1599.0, 1600.0, 1601.0, 1604.0, 1604.0, 1601.0, 1597.0, 1598.0, 1599.0, 1601.0, 1603.0, 1601.0, 1600.0, 1597.0, 1597.0, 1601.0, 1601.0, 1600.0, 1597.0, 1596.0, 1596.0, 1595.0, 1596.0, 1592.0, 1591.0, 1589.0, 1580.0, 1581.0, 1577.0, 1576.0, 1582.0, 1588.0, 1589.0, 1586.0, 1583.0, 1584.0, 1586.0, 1588.0, 1590.0, 1590.0, 1592.0, 1595.0, 1599.0, 1598.0, 1598.0, 1596.0, 1600.0, 1599.0, 1586.0, 1593.0, 1585.0, 1594.0, 1585.0, 1584.0, 1588.0, 1594.0, 1596.0, 1596.0, 1594.0, 1593.0, 1592.0, 1590.0, 1583.0, 1581.0, 1588.0, 1589.0, 1589.0, 1594.0, 1591.0, 1582.0, 1579.0, 1579.0, 1582.0, 1579.0, 1577.0, 1576.0, 1575.0, 1577.0, 1573.0, 1576.0, 1582.0, 1584.0, 1583.0, 1584.0, 1586.0, 1587.0, 1582.0, 1586.0, 1589.0, 1588.0, 1583.0, 1578.0, 1581.0, 1580.0, 1581.0, 1580.0, 1578.0, 1580.0, 1582.0, 1582.0, 1580.0, 1581.0, 1581.0, 1586.0, 1585.0, 1583.0, 1582.0, 1582.0, 1580.0, 1580.0, 1584.0, 1584.0, 1583.0, 1584.0, 1585.0, 1583.0, 1578.0, 1584.0, 1581.0, 1586.0, 1579.0, 1580.0, 1574.0, 1577.0, 1582.0, 1582.0, 1573.0, 1577.0, 1581.0, 1580.0, 1578.0, 1577.0, 1578.0, 1579.0, 1578.0, 1582.0, 1584.0, 1583.0, 1580.0, 1581.0, 1582.0, 1581.0, 1584.0, 1584.0, 1585.0, 1577.0, 1577.0, 1574.0, 1578.0, 1584.0, 1580.0, 1581.0, 1582.0, 1585.0, 1586.0, 1584.0, 1583.0, 1580.0, 1574.0, 1582.0, 1580.0, 1577.0, 1575.0, 1572.0, 1574.0, 1576.0, 1574.0, 1568.0, 1567.0, 1559.0, 1569.0, 1565.0, 1559.0, 1561.0, 1561.0, 1560.0, 1559.0, 1558.0, 1559.0, 1560.0, 1559.0, 1558.0, 1561.0, 1563.0, 1565.0, 1562.0, 1560.0, 1561.0, 1560.0, 1563.0, 1562.0, 1561.0, 1566.0, 1564.0, 1566.0, 1564.0, 1562.0, 1564.0, 1555.0, 1576.0, 1566.0, 1565.0, 1555.0, 1572.0, 1570.0, 1557.0, 1566.0, 1569.0, 1568.0, 1571.0, 1573.0, 1572.0, 1566.0]
    },
    "slices": {}
  }
}