{
  "AcquisitionMatrixPE": 100,
  "AcquisitionNumber": 1,
  "AcquisitionTime": "14:40:19.047500",
  "BandwidthPerPixelPhaseEncode": 18.519,
  "BaseResolution": 100,
  "BodyPartExamined": "BRAIN",
  "ConsistencyInfo": "N4_VE11C_LATEST_20160120",
  "ConversionSoftware": "dcm2niix",
  "ConversionSoftwareVersion": "v1.0.20180622 GCC4.9.2",
  "DerivedVendorReportedEchoSpacing": 0.000539986,
  "DeviceSerialNumber": "166078",
  "DwellTime": 2.1e-06,
  "EchoTime": 0.034,
  "EchoTrainLength": 100,
  "EffectiveEchoSpacing": 0.000539986,
  "FlipAngle": 90,
  "ImageOrientationPatientDICOM": [0.999976, 0.00151098, 0.00681578, 4.00657e-08, 0.976296, -0.21644],
  "ImageType": [
    "ORIGINAL",
    "PRIMARY",
    "M",
    "ND",
    "MOSAIC"
],
  "InPlanePhaseEncodingDirectionDICOM": "COL",
  "InstitutionAddress": "Street_StreetNo_Bei_Jing_District_CN_ZIP",
  "InstitutionName": "BeiJing_Normal_University",
  "InstitutionalDepartmentName": "Department",
  "MRAcquisitionType": "2D",
  "MagneticFieldStrength": 3,
  "Manufacturer": "Siemens",
  "ManufacturersModelName": "Prisma",
  "Modality": "MR",
  "MultibandAccelerationFactor": 3,
  "PartialFourier": 1,
  "PatientPosition": "HFS",
  "PercentPhaseFOV": 100,
  "PhaseEncodingDirection": "j-",
  "PhaseEncodingSteps": 100,
  "PhaseResolution": 1,
  "PixelBandwidth": 2380,
  "ProcedureStepDescription": "BNU_P2018_64CH_Liu.Jia",
  "ProtocolName": "bold_100x100_s3_2x2x2_232",
  "PulseSequenceDetails": "%SiemensSeq%_ep2d_bold",
  "ReceiveCoilActiveElements": "HC1-7;NC1",
  "ReceiveCoilName": "HeadNeck_64",
  "ReconMatrixPE": 100,
  "RepetitionTime": 2,
  "SAR": 0.0595991,
  "ScanOptions": "FS",
  "ScanningSequence": "EP",
  "SequenceName": "_epfid2d1_100",
  "SequenceVariant": "SK",
  "SeriesDescription": "bold_100x100_s3_2x2x2_232",
  "SeriesNumber": 9,
  "ShimSetting": [-5459, -11464, -1313, 379, -105, -215, -202, 56],
  "SliceThickness": 2,
  "SliceTiming": [1.485, 0, 0.99, 0.0825, 1.0725, 0.165, 1.155, 0.2475, 1.2375, 0.33, 1.32, 0.4125, 1.4025, 0.5775, 1.5675, 0.66, 1.65, 0.7425, 1.7325, 0.825, 1.815, 0.9075, 1.8975, 0.495, 1.485, 0, 0.99, 0.0825, 1.0725, 0.165, 1.155, 0.2475, 1.2375, 0.33, 1.32, 0.4125, 1.4025, 0.5775, 1.5675, 0.66, 1.65, 0.7425, 1.7325, 0.825, 1.815, 0.9075, 1.8975, 0.495, 1.485, 0, 0.99, 0.0825, 1.0725, 0.165, 1.155, 0.2475, 1.2375, 0.33, 1.32, 0.4125, 1.4025, 0.5775, 1.5675, 0.66, 1.65, 0.7425, 1.7325, 0.825, 1.815, 0.9075, 1.8975, 0.495],
  "SoftwareVersions": "syngo_MR_E11",
  "SpacingBetweenSlices": 2,
  "StationName": "AWP166078",
  "TaskName": "motor",
  "TotalReadoutTime": 0.0534586,
  "TxRefAmp": 206.401,
  "dcmmeta_affine": [
    [-1.9999512434005737, 8.013149255248209e-08, 0.013962505385279655, 101.45709228515625],
    [-0.0030219610780477524, 1.9525920152664185, -0.4328686594963074, -86.50300598144531],
    [0.013631556183099747, 0.4328792095184326, 1.9525444507598877, -94.34886169433594],
    [0.0, 0.0, 0.0, 1.0]
],
  "dcmmeta_reorient_transform": [
    [0.0, -1.0, 0.0, 99.0],
    [1.0, 0.0, 0.0, 0.0],
    [0.0, 0.0, 1.0, 0.0],
    [0.0, 0.0, 0.0, 1.0]
],
  "dcmmeta_shape": [100, 100, 72, 232],
  "dcmmeta_slice_dim": 2,
  "dcmmeta_version": 0.6,
  "global": {
    "const": {
      "AcquisitionMatrix": [100, 0, 0, 100],
      "AngioFlag": "N",
      "BitsAllocated": 16,
      "BitsStored": 12,
      "BodyPartExamined": "BRAIN",
      "Columns": 900,
      "EchoNumbers": 1,
      "EchoTime": 34.0,
      "EchoTrainLength": 100,
      "FlipAngle": 90.0,
      "HighBit": 11,
      "ImageOrientationPatient": [0.99997563075761, 0.00151098053693, 0.00681577792548, 4.0065745e-08, 0.97629600752515, -0.2164396121103],
      "ImagePositionPatient": [-901.43763469061, -889.04919746663, 116.20525112033],
      "ImageType": [
        "ORIGINAL",
        "PRIMARY",
        "M",
        "ND",
        "MOSAIC"
],
      "ImagedNucleus": "1H",
      "ImagingFrequency": 123.257845,
      "InPlanePhaseEncodingDirection": "COL",
      "MRAcquisitionType": "2D",
      "MagneticFieldStrength": 3.0,
      "Manufacturer": "SIEMENS",
      "ManufacturerModelName": "Prisma",
      "Modality": "MR",
      "NumberOfAverages": 1.0,
      "NumberOfPhaseEncodingSteps": 100,
      "PercentPhaseFieldOfView": 100.0,
      "PercentSampling": 100.0,
      "PerformedProcedureStepStartTime": "135837.620000",
      "PhotometricInterpretation": "MONOCHROME2",
      "PixelBandwidth": 2380.0,
      "PixelRepresentation": 0,
      "PixelSpacing": [2.0, 2.0],
      "ProtocolName": "bold_100x100_s3_2x2x2_232",
      "RepetitionTime": 2000.0,
      "Rows": 900,
      "SAR": 0.05959907075188,
      "SamplesPerPixel": 1,
      "ScanOptions": "FS",
      "ScanningSequence": "EP",
      "SequenceName": "*epfid2d1_100",
      "SequenceVariant": "SK",
      "SeriesDescription": "bold_100x100_s3_2x2x2_232",
      "SeriesNumber": 9,
      "SeriesTime": "144021.427000",
      "SliceLocation": -72.679652392055,
      "SliceThickness": 2.0,
      "SmallestImagePixelValue": 0,
      "SoftwareVersions": "syngo MR E11",
      "SpacingBetweenSlices": 1.9999999825401,
      "SpecificCharacterSet": "ISO_IR 100",
      "StudyID": "1",
      "StudyTime": "135837.530000",
      "TransmitCoilName": "Body",
      "VariableFlipAngleFlag": "N",
      "WindowCenterWidthExplanation": "Algo1",
      "dBdt": 0.0},
    "slices": {}
  },
  "time": {
    "samples": {
      "AcquisitionNumber": [1, 2, 3, 4, 5, 6, 7, 8, 9, 10, 11, 12, 13, 14, 15, 16, 17, 18, 19, 20, 21, 22, 23, 24, 25, 26, 27, 28, 29, 30, 31, 32, 33, 34, 35, 36, 37, 38, 39, 40, 41, 42, 43, 44, 45, 46, 47, 48, 49, 50, 51, 52, 53, 54, 55, 56, 57, 58, 59, 60, 61, 62, 63, 64, 65, 66, 67, 68, 69, 70, 71, 72, 73, 74, 75, 76, 77, 78, 79, 80, 81, 82, 83, 84, 85, 86, 87, 88, 89, 90, 91, 92, 93, 94, 95, 96, 97, 98, 99, 100, 101, 102, 103, 104, 105, 106, 107, 108, 109, 110, 111, 112, 113, 114, 115, 116, 117, 118, 119, 120, 121, 122, 123, 124, 125, 126, 127, 128, 129, 130, 131, 132, 133, 134, 135, 136, 137, 138, 139, 140, 141, 142, 143, 144, 145, 146, 147, 148, 149, 150, 151, 152, 153, 154, 155, 156, 157, 158, 159, 160, 161, 162, 163, 164, 165, 166, 167, 168, 169, 170, 171, 172, 173, 174, 175, 176, 177, 178, 179, 180, 181, 182, 183, 184, 185, 186, 187, 188, 189, 190, 191, 192, 193, 194, 195, 196, 197, 198, 199, 200, 201, 202, 203, 204, 205, 206, 207, 208, 209, 210, 211, 212, 213, 214, 215, 216, 217, 218, 219, 220, 221, 222, 223, 224, 225, 226, 227, 228, 229, 230, 231, 232],
      "AcquisitionTime": ["144019.047500", "144021.047500", "144023.047500", "144025.047500", "144027.047500", "144029.047500", "144031.047500", "144033.047500", "144035.047500", "144037.047500", "144039.047500", "144041.047500", "144043.047500", "144045.047500", "144047.047500", "144049.047500", "144051.047500", "144053.047500", "144055.047500", "144057.047500", "144059.047500", "144101.047500", "144103.047500", "144105.047500", "144107.047500", "144109.047500", "144111.047500", "144113.047500", "144115.047500", "144117.047500", "144119.047500", "144121.047500", "144123.047500", "144125.047500", "144127.047500", "144129.047500", "144131.047500", "144133.047500", "144135.047500", "144137.047500", "144139.047500", "144141.047500", "144143.047500", "144145.047500", "144147.047500", "144149.047500", "144151.047500", "144153.047500", "144155.047500", "144157.047500", "144159.047500", "144201.047500", "144203.047500", "144205.047500", "144207.047500", "144209.047500", "144211.047500", "144213.047500", "144215.047500", "144217.047500", "144219.047500", "144221.047500", "144223.047500", "144225.047500", "144227.047500", "144229.047500", "144231.047500", "144233.047500", "144235.047500", "144237.047500", "144239.047500", "144241.047500", "144243.047500", "144245.047500", "144247.047500", "144249.047500", "144251.047500", "144253.047500", "144255.047500", "144257.047500", "144259.047500", "144301.047500", "144303.047500", "144305.047500", "144307.047500", "144309.047500", "144311.047500", "144313.047500", "144315.047500", "144317.047500", "144319.047500", "144321.047500", "144323.047500", "144325.047500", "144327.047500", "144329.047500", "144331.047500", "144333.047500", "144335.047500", "144337.047500", "144339.047500", "144341.047500", "144343.047500", "144345.047500", "144347.047500", "144349.047500", "144351.047500", "144353.047500", "144355.047500", "144357.047500", "144359.047500", "144401.047500", "144403.047500", "144405.047500", "144407.047500", "144409.047500", "144411.047500", "144413.047500", "144415.047500", "144417.047500", "144419.047500", "144421.047500", "144423.047500", "144425.047500", "144427.047500", "144429.047500", "144431.047500", "144433.047500", "144435.047500", "144437.047500", "144439.047500", "144441.047500", "144443.047500", "144445.047500", "144447.047500", "144449.047500", "144451.047500", "144453.047500", "144455.047500", "144457.047500", "144459.047500", "144501.047500", "144503.047500", "144505.047500", "144507.047500", "144509.047500", "144511.047500", "144513.047500", "144515.047500", "144517.047500", "144519.047500", "144521.047500", "144523.047500", "144525.047500", "144527.047500", "144529.047500", "144531.047500", "144533.047500", "144535.047500", "144537.047500", "144539.047500", "144541.047500", "144543.047500", "144545.047500", "144547.047500", "144549.047500", "144551.047500", "144553.047500", "144555.047500", "144557.047500", "144559.047500", "144601.047500", "144603.047500", "144605.047500", "144607.047500", "144609.047500", "144611.047500", "144613.047500", "144615.047500", "144617.047500", "144619.047500", "144621.047500", "144623.047500", "144625.047500", "144627.047500", "144629.047500", "144631.047500", "144633.047500", "144635.047500", "144637.047500", "144639.047500", "144641.047500", "144643.047500", "144645.047500", "144647.047500", "144649.047500", "144651.047500", "144653.047500", "144655.047500", "144657.047500", "144659.047500", "144701.047500", "144703.047500", "144705.047500", "144707.047500", "144709.047500", "144711.047500", "144713.047500", "144715.047500", "144717.047500", "144719.047500", "144721.047500", "144723.047500", "144725.047500", "144727.047500", "144729.047500", "144731.047500", "144733.047500", "144735.047500", "144737.047500", "144739.047500", "144741.047500", "144743.047500", "144745.047500", "144747.047500", "144749.047500", "144751.047500", "144753.047500", "144755.047500", "144757.047500", "144759.047500", "144801.047500"],
      "ContentTime": ["144021.431000", "144022.927000", "144024.926000", "144026.926000", "144028.927000", "144030.926000", "144032.926000", "144034.926000", "144036.926000", "144038.926000", "144040.926000", "144042.926000", "144044.926000", "144046.928000", "144048.926000", "144050.926000", "144052.926000", "144054.926000", "144056.926000", "144058.926000", "144100.927000", "144102.928000", "144104.926000", "144106.927000", "144108.926000", "144110.926000", "144112.926000", "144114.926000", "144116.926000", "144118.927000", "144120.927000", "144122.926000", "144124.926000", "144126.926000", "144128.927000", "144130.927000", "144132.927000", "144134.927000", "144136.926000", "144138.928000", "144140.926000", "144142.926000", "144144.926000", "144146.927000", "144148.926000", "144150.926000", "144152.927000", "144154.926000", "144156.928000", "144158.926000", "144200.927000", "144202.926000", "144204.926000", "144206.926000", "144208.926000", "144210.926000", "144212.928000", "144214.927000", "144216.926000", "144218.926000", "144220.926000", "144222.927000", "144224.927000", "144226.927000", "144228.926000", "144230.928000", "144232.927000", "144234.927000", "144236.926000", "144238.926000", "144240.926000", "144242.926000", "144244.927000", "144246.926000", "144248.927000", "144250.926000", "144252.926000", "144254.926000", "144256.927000", "144258.926000", "144300.926000", "144302.926000", "144304.926000", "144306.927000", "144308.926000", "144310.926000", "144312.926000", "144314.926000", "144316.926000", "144318.926000", "144320.927000", "144322.927000", "144324.927000", "144326.926000", "144328.926000", "144330.927000", "144332.927000", "144334.927000", "144336.926000", "144338.927000", "144340.927000", "144342.926000", "144344.926000", "144346.926000", "144348.927000", "144350.926000", "144352.926000", "144354.926000", "144356.927000", "144358.928000", "144400.927000", "144402.927000", "144404.926000", "144406.927000", "144408.926000", "144410.927000", "144412.926000", "144414.927000", "144416.928000", "144418.926000", "144420.927000", "144422.927000", "144424.927000", "144426.927000", "144428.926000", "144430.926000", "144432.928000", "144434.927000", "144436.927000", "144438.926000", "144440.927000", "144442.926000", "144444.927000", "144446.926000", "144448.927000", "144450.928000", "144452.926000", "144454.926000", "144456.927000", "144458.926000", "144500.926000", "144502.926000", "144504.927000", "144506.926000", "144508.927000", "144510.927000", "144512.926000", "144514.927000", "144516.927000", "144518.926000", "144520.926000", "144522.927000", "144524.928000", "144526.927000", "144528.927000", "144530.927000", "144532.927000", "144534.926000", "144536.927000", "144538.927000", "144540.927000", "144542.927000", "144544.926000", "144546.927000", "144548.927000", "144550.926000", "144552.927000", "144554.927000", "144556.927000", "144558.926000", "144600.927000", "144602.927000", "144604.926000", "144606.926000", "144608.927000", "144610.926000", "144612.926000", "144614.927000", "144616.926000", "144618.928000", "144620.927000", "144622.926000", "144624.927000", "144626.926000", "144628.926000", "144630.927000", "144632.927000", "144634.927000", "144636.928000", "144638.927000", "144640.926000", "144642.927000", "144644.927000", "144646.927000", "144648.927000", "144650.927000", "144652.928000", "144654.926000", "144656.927000", "144658.927000", "144700.926000", "144702.927000", "144704.926000", "144706.927000", "144708.927000", "144710.927000", "144712.927000", "144714.927000", "144716.926000", "144718.927000", "144720.926000", "144722.927000", "144724.926000", "144726.927000", "144728.928000", "144730.927000", "144732.926000", "144734.927000", "144736.926000", "144738.926000", "144740.937000", "144742.927000", "144744.927000", "144746.927000", "144748.927000", "144750.926000", "144752.926000", "144754.927000", "144756.927000", "144758.927000", "144800.926000", "144802.444000"],
      "InstanceCreationTime": ["144021.431000", "144022.927000", "144024.926000", "144026.926000", "144028.927000", "144030.926000", "144032.926000", "144034.926000", "144036.926000", "144038.926000", "144040.926000", "144042.926000", "144044.926000", "144046.928000", "144048.926000", "144050.926000", "144052.926000", "144054.926000", "144056.926000", "144058.926000", "144100.927000", "144102.928000", "144104.926000", "144106.927000", "144108.926000", "144110.926000", "144112.926000", "144114.926000", "144116.926000", "144118.927000", "144120.927000", "144122.926000", "144124.926000", "144126.926000", "144128.927000", "144130.927000", "144132.927000", "144134.927000", "144136.926000", "144138.928000", "144140.926000", "144142.926000", "144144.926000", "144146.927000", "144148.926000", "144150.926000", "144152.927000", "144154.926000", "144156.928000", "144158.926000", "144200.927000", "144202.926000", "144204.926000", "144206.926000", "144208.926000", "144210.926000", "144212.928000", "144214.927000", "144216.926000", "144218.926000", "144220.926000", "144222.927000", "144224.927000", "144226.927000", "144228.926000", "144230.928000", "144232.927000", "144234.927000", "144236.926000", "144238.926000", "144240.926000", "144242.926000", "144244.927000", "144246.926000", "144248.927000", "144250.926000", "144252.926000", "144254.926000", "144256.927000", "144258.926000", "144300.926000", "144302.926000", "144304.926000", "144306.927000", "144308.926000", "144310.926000", "144312.926000", "144314.926000", "144316.926000", "144318.926000", "144320.927000", "144322.927000", "144324.927000", "144326.926000", "144328.926000", "144330.927000", "144332.927000", "144334.927000", "144336.926000", "144338.927000", "144340.927000", "144342.926000", "144344.926000", "144346.926000", "144348.927000", "144350.926000", "144352.926000", "144354.926000", "144356.927000", "144358.928000", "144400.927000", "144402.927000", "144404.926000", "144406.927000", "144408.926000", "144410.927000", "144412.926000", "144414.927000", "144416.928000", "144418.926000", "144420.927000", "144422.927000", "144424.927000", "144426.927000", "144428.926000", "144430.926000", "144432.928000", "144434.927000", "144436.927000", "144438.926000", "144440.927000", "144442.926000", "144444.927000", "144446.926000", "144448.927000", "144450.928000", "144452.926000", "144454.926000", "144456.927000", "144458.926000", "144500.926000", "144502.926000", "144504.927000", "144506.926000", "144508.927000", "144510.927000", "144512.926000", "144514.927000", "144516.927000", "144518.926000", "144520.926000", "144522.927000", "144524.928000", "144526.927000", "144528.927000", "144530.927000", "144532.927000", "144534.926000", "144536.927000", "144538.927000", "144540.927000", "144542.927000", "144544.926000", "144546.927000", "144548.927000", "144550.926000", "144552.927000", "144554.927000", "144556.927000", "144558.926000", "144600.927000", "144602.927000", "144604.926000", "144606.926000", "144608.927000", "144610.926000", "144612.926000", "144614.927000", "144616.926000", "144618.928000", "144620.927000", "144622.926000", "144624.927000", "144626.926000", "144628.926000", "144630.927000", "144632.927000", "144634.927000", "144636.928000", "144638.927000", "144640.926000", "144642.927000", "144644.927000", "144646.927000", "144648.927000", "144650.927000", "144652.928000", "144654.926000", "144656.927000", "144658.927000", "144700.926000", "144702.927000", "144704.926000", "144706.927000", "144708.927000", "144710.927000", "144712.927000", "144714.927000", "144716.926000", "144718.927000", "144720.926000", "144722.927000", "144724.926000", "144726.927000", "144728.928000", "144730.927000", "144732.926000", "144734.927000", "144736.926000", "144738.926000", "144740.937000", "144742.927000", "144744.927000", "144746.927000", "144748.927000", "144750.926000", "144752.926000", "144754.927000", "144756.927000", "144758.927000", "144800.926000", "144802.444000"],
      "InstanceNumber": [1, 2, 3, 4, 5, 6, 7, 8, 9, 10, 11, 12, 13, 14, 15, 16, 17, 18, 19, 20, 21, 22, 23, 24, 25, 26, 27, 28, 29, 30, 31, 32, 33, 34, 35, 36, 37, 38, 39, 40, 41, 42, 43, 44, 45, 46, 47, 48, 49, 50, 51, 52, 53, 54, 55, 56, 57, 58, 59, 60, 61, 62, 63, 64, 65, 66, 67, 68, 69, 70, 71, 72, 73, 74, 75, 76, 77, 78, 79, 80, 81, 82, 83, 84, 85, 86, 87, 88, 89, 90, 91, 92, 93, 94, 95, 96, 97, 98, 99, 100, 101, 102, 103, 104, 105, 106, 107, 108, 109, 110, 111, 112, 113, 114, 115, 116, 117, 118, 119, 120, 121, 122, 123, 124, 125, 126, 127, 128, 129, 130, 131, 132, 133, 134, 135, 136, 137, 138, 139, 140, 141, 142, 143, 144, 145, 146, 147, 148, 149, 150, 151, 152, 153, 154, 155, 156, 157, 158, 159, 160, 161, 162, 163, 164, 165, 166, 167, 168, 169, 170, 171, 172, 173, 174, 175, 176, 177, 178, 179, 180, 181, 182, 183, 184, 185, 186, 187, 188, 189, 190, 191, 192, 193, 194, 195, 196, 197, 198, 199, 200, 201, 202, 203, 204, 205, 206, 207, 208, 209, 210, 211, 212, 213, 214, 215, 216, 217, 218, 219, 220, 221, 222, 223, 224, 225, 226, 227, 228, 229, 230, 231, 232],
      "LargestImagePixelValue": [3059, 2972, 2950, 2961, 2930, 2942, 2962, 2938, 2955, 3093, 3090, 3033, 2997, 3007, 2945, 2888, 3023, 2997, 3074, 3055, 3045, 3073, 3076, 3071, 3055, 3073, 3069, 2987, 2974, 2984, 2982, 2939, 3002, 3006, 3061, 2993, 2988, 3039, 3076, 3027, 3035, 2989, 2966, 2993, 2988, 2973, 2993, 2950, 2972, 2973, 2957, 2995, 2980, 2949, 2946, 2966, 2969, 2969, 3012, 3018, 3007, 3005, 2972, 3001, 2993, 3003, 3005, 2984, 2992, 2989, 2988, 2979, 2999, 2996, 2974, 2960, 2990, 3020, 3005, 2993, 2966, 3013, 3005, 2987, 2978, 2996, 2978, 2969, 2966, 3038, 3038, 3035, 3051, 3110, 2991, 2962, 3020, 3008, 3038, 3026, 3057, 3028, 3060, 3067, 3070, 3072, 2914, 3020, 2989, 2953, 2959, 2995, 3129, 3078, 3090, 3111, 3116, 3119, 3117, 3161, 3147, 3048, 3120, 2970, 2998, 3048, 2966, 3088, 2915, 3076, 3163, 3205, 3194, 3131, 3151, 3178, 3185, 3105, 3149, 3110, 3130, 3074, 3030, 3164, 3156, 3160, 3161, 3184, 3146, 3168, 3165, 3112, 3163, 3179, 3116, 3166, 3166, 3170, 3199, 3170, 3183, 3141, 3176, 3159, 3169, 3200, 3182, 3168, 3157, 3187, 3187, 3196, 3212, 3175, 3197, 3217, 3188, 3134, 3160, 3154, 3158, 3177, 3157, 3167, 3132, 3131, 3170, 3069, 3028, 3048, 3035, 3013, 2998, 3081, 3146, 3078, 3128, 3153, 3047, 3127, 3064, 3119, 3027, 2995, 3037, 2978, 3002, 3004, 3010, 2974, 3073, 3058, 3015, 2992, 2979, 2971, 3015, 2986, 3008, 3053, 3004, 2987, 2992, 2967, 2933, 3034, 2964, 2994, 2983, 2966, 2970, 2942],
      "WindowCenter": [733.0, 732.0, 732.0, 732.0, 731.0, 731.0, 733.0, 734.0, 733.0, 733.0, 731.0, 736.0, 733.0, 735.0, 733.0, 728.0, 735.0, 737.0, 737.0, 737.0, 736.0, 737.0, 738.0, 738.0, 738.0, 738.0, 738.0, 737.0, 737.0, 737.0, 737.0, 736.0, 737.0, 737.0, 737.0, 737.0, 736.0, 735.0, 735.0, 735.0, 736.0, 735.0, 735.0, 735.0, 735.0, 736.0, 735.0, 735.0, 735.0, 736.0, 736.0, 737.0, 735.0, 733.0, 733.0, 734.0, 735.0, 735.0, 736.0, 736.0, 735.0, 735.0, 735.0, 734.0, 734.0, 733.0, 734.0, 735.0, 735.0, 735.0, 734.0, 733.0, 733.0, 733.0, 733.0, 733.0, 733.0, 735.0, 734.0, 734.0, 734.0, 735.0, 737.0, 736.0, 733.0, 733.0, 733.0, 735.0, 735.0, 735.0, 735.0, 735.0, 735.0, 735.0, 733.0, 733.0, 734.0, 734.0, 736.0, 736.0, 735.0, 734.0, 734.0, 734.0, 735.0, 733.0, 727.0, 736.0, 736.0, 730.0, 733.0, 735.0, 734.0, 736.0, 736.0, 737.0, 736.0, 735.0, 735.0, 737.0, 736.0, 738.0, 736.0, 735.0, 736.0, 733.0, 735.0, 733.0, 732.0, 736.0, 736.0, 738.0, 739.0, 738.0, 738.0, 738.0, 738.0, 736.0, 736.0, 738.0, 738.0, 735.0, 733.0, 735.0, 735.0, 735.0, 737.0, 737.0, 736.0, 735.0, 735.0, 736.0, 737.0, 738.0, 735.0, 735.0, 736.0, 737.0, 737.0, 737.0, 737.0, 737.0, 738.0, 737.0, 737.0, 737.0, 737.0, 737.0, 737.0, 737.0, 737.0, 738.0, 736.0, 735.0, 737.0, 738.0, 736.0, 734.0, 734.0, 735.0, 735.0, 736.0, 736.0, 736.0, 736.0, 736.0, 737.0, 735.0, 735.0, 736.0, 736.0, 734.0, 734.0, 733.0, 736.0, 737.0, 736.0, 735.0, 732.0, 733.0, 731.0, 732.0, 730.0, 731.0, 733.0, 733.0, 733.0, 732.0, 732.0, 733.0, 736.0, 736.0, 733.0, 732.0, 733.0, 734.0, 734.0, 731.0, 735.0, 731.0, 736.0, 734.0, 735.0, 731.0, 732.0, 734.0, 734.0, 735.0, 734.0, 734.0, 733.0, 733.0],
      "WindowWidth": [1589.0, 1586.0, 1586.0, 1585.0, 1584.0, 1584.0, 1590.0, 1591.0, 1588.0, 1590.0, 1585.0, 1597.0, 1591.0, 1596.0, 1590.0, 1579.0, 1595.0, 1601.0, 1601.0, 1599.0, 1598.0, 1601.0, 1602.0, 1603.0, 1604.0, 1604.0, 1604.0, 1602.0, 1601.0, 1601.0, 1601.0, 1599.0, 1601.0, 1599.0, 1601.0, 1599.0, 1596.0, 1595.0, 1594.0, 1594.0, 1596.0, 1595.0, 1595.0, 1595.0, 1595.0, 1598.0, 1596.0, 1594.0, 1595.0, 1598.0, 1598.0, 1599.0, 1596.0, 1590.0, 1590.0, 1592.0, 1594.0, 1594.0, 1598.0, 1598.0, 1594.0, 1594.0, 1594.0, 1592.0, 1590.0, 1589.0, 1593.0, 1595.0, 1594.0, 1593.0, 1592.0, 1589.0, 1590.0, 1589.0, 1589.0, 1588.0, 1589.0, 1593.0, 1593.0, 1592.0, 1590.0, 1594.0, 1600.0, 1596.0, 1588.0, 1587.0, 1590.0, 1593.0, 1594.0, 1594.0, 1594.0, 1593.0, 1593.0, 1593.0, 1588.0, 1589.0, 1591.0, 1590.0, 1596.0, 1597.0, 1595.0, 1591.0, 1591.0, 1592.0, 1593.0, 1591.0, 1574.0, 1597.0, 1597.0, 1582.0, 1589.0, 1595.0, 1591.0, 1596.0, 1597.0, 1600.0, 1597.0, 1593.0, 1595.0, 1600.0, 1598.0, 1603.0, 1599.0, 1595.0, 1599.0, 1589.0, 1596.0, 1589.0, 1587.0, 1598.0, 1598.0, 1603.0, 1605.0, 1602.0, 1602.0, 1602.0, 1601.0, 1595.0, 1598.0, 1603.0, 1603.0, 1594.0, 1588.0, 1593.0, 1594.0, 1595.0, 1598.0, 1600.0, 1596.0, 1595.0, 1594.0, 1596.0, 1600.0, 1601.0, 1595.0, 1595.0, 1597.0, 1600.0, 1598.0, 1598.0, 1600.0, 1600.0, 1603.0, 1600.0, 1598.0, 1598.0, 1599.0, 1599.0, 1599.0, 1599.0, 1600.0, 1602.0, 1598.0, 1594.0, 1599.0, 1602.0, 1597.0, 1591.0, 1592.0, 1594.0, 1595.0, 1595.0, 1596.0, 1597.0, 1597.0, 1597.0, 1598.0, 1594.0, 1594.0, 1596.0, 1596.0, 1593.0, 1591.0, 1589.0, 1595.0, 1600.0, 1597.0, 1594.0, 1586.0, 1588.0, 1584.0, 1585.0, 1580.0, 1583.0, 1589.0, 1589.0, 1588.0, 1585.0, 1586.0, 1589.0, 1596.0, 1596.0, 1589.0, 1586.0, 1589.0, 1592.0, 1592.0, 1584.0, 1594.0, 1583.0, 1598.0, 1591.0, 1595.0, 1585.0, 1585.0, 1592.0, 1593.0, 1594.0, 1593.0, 1591.0, 1589.0, 1587.0]
    },
    "slices": {}
  }
}