{
  "AcquisitionMatrixPE": 100,
  "AcquisitionNumber": 1,
  "AcquisitionTime": "11:33:45.895000",
  "BandwidthPerPixelPhaseEncode": 18.519,
  "BaseResolution": 100,
  "BodyPartExamined": "BRAIN",
  "ConsistencyInfo": "N4_VE11C_LATEST_20160120",
  "ConversionSoftware": "dcm2niix",
  "ConversionSoftwareVersion": "v1.0.20180622 GCC4.9.2",
  "DerivedVendorReportedEchoSpacing": 0.000539986,
  "DeviceSerialNumber": "166078",
  "DwellTime": 2.1e-06,
  "EchoTime": 0.034,
  "EchoTrainLength": 100,
  "EffectiveEchoSpacing": 0.000539986,
  "FlipAngle": 90,
  "ImageOrientationPatientDICOM": [1, 0, 0, 0, 0.989526, -0.144356],
  "ImageType": [
    "ORIGINAL",
    "PRIMARY",
    "M",
    "ND",
    "MOSAIC"
],
  "InPlanePhaseEncodingDirectionDICOM": "COL",
  "InstitutionAddress": "Street_StreetNo_Bei_Jing_District_CN_ZIP",
  "InstitutionName": "BeiJing_Normal_University",
  "InstitutionalDepartmentName": "Department",
  "MRAcquisitionType": "2D",
  "MagneticFieldStrength": 3,
  "Manufacturer": "Siemens",
  "ManufacturersModelName": "Prisma",
  "Modality": "MR",
  "MultibandAccelerationFactor": 3,
  "PartialFourier": 1,
  "PatientPosition": "HFS",
  "PercentPhaseFOV": 100,
  "PhaseEncodingDirection": "j-",
  "PhaseEncodingSteps": 100,
  "PhaseResolution": 1,
  "PixelBandwidth": 2380,
  "ProcedureStepDescription": "BNU_P2018_64CH_Liu.Jia",
  "ProtocolName": "bold_100x100_s3_2x2x2_232",
  "PulseSequenceDetails": "%SiemensSeq%_ep2d_bold",
  "ReceiveCoilActiveElements": "HC1-7;NC1",
  "ReceiveCoilName": "HeadNeck_64",
  "ReconMatrixPE": 100,
  "RepetitionTime": 2,
  "SAR": 0.0787864,
  "ScanOptions": "FS",
  "ScanningSequence": "EP",
  "SequenceName": "_epfid2d1_100",
  "SequenceVariant": "SK",
  "SeriesDescription": "bold_100x100_s3_2x2x2_232",
  "SeriesNumber": 4,
  "ShimSetting": [-5460, -11497, -1271, 390, -29, -193, -106, 17],
  "SliceThickness": 2,
  "SliceTiming": [1.485, 0, 0.99, 0.0825, 1.0725, 0.165, 1.155, 0.2475, 1.2375, 0.33, 1.32, 0.4125, 1.4025, 0.5775, 1.5675, 0.66, 1.65, 0.7425, 1.7325, 0.825, 1.815, 0.9075, 1.8975, 0.495, 1.485, 0, 0.99, 0.0825, 1.0725, 0.165, 1.155, 0.2475, 1.2375, 0.33, 1.32, 0.4125, 1.4025, 0.5775, 1.5675, 0.66, 1.65, 0.7425, 1.7325, 0.825, 1.815, 0.9075, 1.8975, 0.495, 1.485, 0, 0.99, 0.0825, 1.0725, 0.165, 1.155, 0.2475, 1.2375, 0.33, 1.32, 0.4125, 1.4025, 0.5775, 1.5675, 0.66, 1.65, 0.7425, 1.7325, 0.825, 1.815, 0.9075, 1.8975, 0.495],
  "SoftwareVersions": "syngo_MR_E11",
  "SpacingBetweenSlices": 2,
  "StationName": "AWP166078",
  "TaskName": "motor",
  "TotalReadoutTime": 0.0534586,
  "TxRefAmp": 221.584,
  "dcmmeta_affine": [
    [-2.0, 0.0, 0.0, 100.0],
    [0.0, 1.9790515899658203, -0.28871238231658936, -78.57483673095703],
    [0.0, 0.28871238231658936, 1.9790515899658203, -85.02010345458984],
    [0.0, 0.0, 0.0, 1.0]
],
  "dcmmeta_reorient_transform": [
    [0.0, -1.0, 0.0, 99.0],
    [1.0, 0.0, 0.0, 0.0],
    [0.0, 0.0, 1.0, 0.0],
    [0.0, 0.0, 0.0, 1.0]
],
  "dcmmeta_shape": [100, 100, 72, 232],
  "dcmmeta_slice_dim": 2,
  "dcmmeta_version": 0.6,
  "global": {
    "const": {
      "AcquisitionMatrix": [100, 0, 0, 100],
      "AngioFlag": "N",
      "BitsAllocated": 16,
      "BitsStored": 12,
      "BodyPartExamined": "BRAIN",
      "Columns": 900,
      "EchoNumbers": 1,
      "EchoTime": 34.0,
      "EchoTrainLength": 100,
      "FlipAngle": 90.0,
      "HighBit": 11,
      "ImageOrientationPatient": [1.0, 0.0, 0.0, 0.0, 0.98952579014058, -0.1443561936554],
      "ImagePositionPatient": [-900.0, -908.97189848919, 59.047374826951],
      "ImageType": [
        "ORIGINAL",
        "PRIMARY",
        "M",
        "ND",
        "MOSAIC"
],
      "ImagedNucleus": "1H",
      "ImagingFrequency": 123.257823,
      "InPlanePhaseEncodingDirection": "COL",
      "MRAcquisitionType": "2D",
      "MagneticFieldStrength": 3.0,
      "Manufacturer": "SIEMENS",
      "ManufacturerModelName": "Prisma",
      "Modality": "MR",
      "NumberOfAverages": 1.0,
      "NumberOfPhaseEncodingSteps": 100,
      "PercentPhaseFieldOfView": 100.0,
      "PercentSampling": 100.0,
      "PerformedProcedureStepStartTime": "112242.400000",
      "PhotometricInterpretation": "MONOCHROME2",
      "PixelBandwidth": 2380.0,
      "PixelRepresentation": 0,
      "PixelSpacing": [2.0, 2.0],
      "ProtocolName": "bold_100x100_s3_2x2x2_232",
      "RepetitionTime": 2000.0,
      "Rows": 900,
      "SAR": 0.07878641696396,
      "SamplesPerPixel": 1,
      "ScanOptions": "FS",
      "ScanningSequence": "EP",
      "SequenceName": "*epfid2d1_100",
      "SequenceVariant": "SK",
      "SeriesDescription": "bold_100x100_s3_2x2x2_232",
      "SeriesNumber": 4,
      "SeriesTime": "113348.281000",
      "SliceLocation": -72.786823174238,
      "SliceThickness": 2.0,
      "SmallestImagePixelValue": 0,
      "SoftwareVersions": "syngo MR E11",
      "SpacingBetweenSlices": 2.0000000371416,
      "SpecificCharacterSet": "ISO_IR 100",
      "StudyID": "1",
      "StudyTime": "112242.348000",
      "TransmitCoilName": "Body",
      "VariableFlipAngleFlag": "N",
      "WindowCenterWidthExplanation": "Algo1",
      "dBdt": 0.0},
    "slices": {}
  },
  "time": {
    "samples": {
      "AcquisitionNumber": [1, 2, 3, 4, 5, 6, 7, 8, 9, 10, 11, 12, 13, 14, 15, 16, 17, 18, 19, 20, 21, 22, 23, 24, 25, 26, 27, 28, 29, 30, 31, 32, 33, 34, 35, 36, 37, 38, 39, 40, 41, 42, 43, 44, 45, 46, 47, 48, 49, 50, 51, 52, 53, 54, 55, 56, 57, 58, 59, 60, 61, 62, 63, 64, 65, 66, 67, 68, 69, 70, 71, 72, 73, 74, 75, 76, 77, 78, 79, 80, 81, 82, 83, 84, 85, 86, 87, 88, 89, 90, 91, 92, 93, 94, 95, 96, 97, 98, 99, 100, 101, 102, 103, 104, 105, 106, 107, 108, 109, 110, 111, 112, 113, 114, 115, 116, 117, 118, 119, 120, 121, 122, 123, 124, 125, 126, 127, 128, 129, 130, 131, 132, 133, 134, 135, 136, 137, 138, 139, 140, 141, 142, 143, 144, 145, 146, 147, 148, 149, 150, 151, 152, 153, 154, 155, 156, 157, 158, 159, 160, 161, 162, 163, 164, 165, 166, 167, 168, 169, 170, 171, 172, 173, 174, 175, 176, 177, 178, 179, 180, 181, 182, 183, 184, 185, 186, 187, 188, 189, 190, 191, 192, 193, 194, 195, 196, 197, 198, 199, 200, 201, 202, 203, 204, 205, 206, 207, 208, 209, 210, 211, 212, 213, 214, 215, 216, 217, 218, 219, 220, 221, 222, 223, 224, 225, 226, 227, 228, 229, 230, 231, 232],
      "AcquisitionTime": ["113345.895000", "113347.895000", "113349.895000", "113351.895000", "113353.895000", "113355.895000", "113357.895000", "113359.895000", "113401.895000", "113403.895000", "113405.895000", "113407.895000", "113409.895000", "113411.895000", "113413.895000", "113415.895000", "113417.895000", "113419.895000", "113421.895000", "113423.895000", "113425.895000", "113427.895000", "113429.895000", "113431.895000", "113433.895000", "113435.895000", "113437.895000", "113439.895000", "113441.895000", "113443.895000", "113445.895000", "113447.895000", "113449.895000", "113451.895000", "113453.895000", "113455.895000", "113457.895000", "113459.895000", "113501.895000", "113503.895000", "113505.895000", "113507.895000", "113509.895000", "113511.895000", "113513.895000", "113515.895000", "113517.895000", "113519.895000", "113521.895000", "113523.895000", "113525.895000", "113527.895000", "113529.895000", "113531.895000", "113533.895000", "113535.895000", "113537.895000", "113539.895000", "113541.895000", "113543.895000", "113545.895000", "113547.895000", "113549.895000", "113551.895000", "113553.895000", "113555.895000", "113557.895000", "113559.895000", "113601.895000", "113603.895000", "113605.895000", "113607.895000", "113609.895000", "113611.895000", "113613.895000", "113615.895000", "113617.895000", "113619.895000", "113621.895000", "113623.895000", "113625.895000", "113627.895000", "113629.895000", "113631.895000", "113633.895000", "113635.895000", "113637.895000", "113639.895000", "113641.895000", "113643.895000", "113645.895000", "113647.895000", "113649.895000", "113651.895000", "113653.895000", "113655.895000", "113657.895000", "113659.895000", "113701.895000", "113703.895000", "113705.895000", "113707.895000", "113709.895000", "113711.895000", "113713.895000", "113715.895000", "113717.895000", "113719.895000", "113721.895000", "113723.895000", "113725.895000", "113727.895000", "113729.895000", "113731.895000", "113733.895000", "113735.895000", "113737.895000", "113739.895000", "113741.895000", "113743.895000", "113745.895000", "113747.895000", "113749.895000", "113751.895000", "113753.895000", "113755.895000", "113757.895000", "113759.895000", "113801.895000", "113803.895000", "113805.895000", "113807.895000", "113809.895000", "113811.895000", "113813.895000", "113815.895000", "113817.895000", "113819.895000", "113821.895000", "113823.895000", "113825.895000", "113827.895000", "113829.895000", "113831.895000", "113833.895000", "113835.895000", "113837.895000", "113839.895000", "113841.895000", "113843.895000", "113845.895000", "113847.895000", "113849.895000", "113851.895000", "113853.895000", "113855.895000", "113857.895000", "113859.895000", "113901.895000", "113903.895000", "113905.895000", "113907.895000", "113909.895000", "113911.895000", "113913.895000", "113915.895000", "113917.895000", "113919.895000", "113921.895000", "113923.895000", "113925.895000", "113927.895000", "113929.895000", "113931.895000", "113933.895000", "113935.895000", "113937.895000", "113939.895000", "113941.895000", "113943.895000", "113945.895000", "113947.895000", "113949.895000", "113951.895000", "113953.895000", "113955.895000", "113957.895000", "113959.895000", "114001.895000", "114003.895000", "114005.895000", "114007.895000", "114009.895000", "114011.895000", "114013.895000", "114015.895000", "114017.895000", "114019.895000", "114021.895000", "114023.895000", "114025.895000", "114027.895000", "114029.895000", "114031.895000", "114033.895000", "114035.895000", "114037.895000", "114039.895000", "114041.895000", "114043.895000", "114045.895000", "114047.895000", "114049.895000", "114051.895000", "114053.895000", "114055.895000", "114057.895000", "114059.895000", "114101.895000", "114103.895000", "114105.895000", "114107.895000", "114109.895000", "114111.895000", "114113.895000", "114115.895000", "114117.895000", "114119.895000", "114121.895000", "114123.895000", "114125.895000", "114127.895000"],
      "ContentTime": ["113348.284000", "113349.780000", "113351.779000", "113353.779000", "113355.780000", "113357.779000", "113359.779000", "113401.779000", "113403.779000", "113405.780000", "113407.780000", "113409.779000", "113411.779000", "113413.779000", "113415.780000", "113418.280000", "113419.779000", "113421.779000", "113423.780000", "113425.780000", "113427.779000", "113429.780000", "113431.780000", "113433.779000", "113435.779000", "113437.779000", "113439.781000", "113441.780000", "113443.779000", "113445.780000", "113447.780000", "113449.779000", "113451.779000", "113453.780000", "113455.780000", "113457.780000", "113459.780000", "113501.780000", "113503.779000", "113505.779000", "113507.780000", "113509.779000", "113511.779000", "113513.779000", "113515.780000", "113517.781000", "113519.779000", "113521.779000", "113523.779000", "113525.779000", "113527.779000", "113529.780000", "113531.779000", "113533.780000", "113535.780000", "113537.780000", "113539.780000", "113541.779000", "113543.779000", "113545.779000", "113547.779000", "113549.780000", "113551.780000", "113553.779000", "113555.780000", "113557.779000", "113559.780000", "113601.779000", "113603.779000", "113605.779000", "113607.781000", "113609.781000", "113611.780000", "113613.779000", "113615.780000", "113617.780000", "113619.779000", "113621.779000", "113623.780000", "113625.781000", "113627.780000", "113629.779000", "113631.779000", "113633.779000", "113635.779000", "113637.779000", "113639.779000", "113641.779000", "113643.780000", "113646.280000", "113647.779000", "113649.780000", "113651.780000", "113653.780000", "113655.779000", "113657.779000", "113659.781000", "113701.781000", "113703.779000", "113705.779000", "113707.779000", "113709.779000", "113711.779000", "113713.779000", "113715.779000", "113717.781000", "113719.781000", "113722.280000", "113723.779000", "113725.780000", "113727.779000", "113730.279000", "113731.780000", "113733.779000", "113735.780000", "113737.781000", "113739.779000", "113741.780000", "113743.779000", "113745.779000", "113747.779000", "113749.780000", "113752.280000", "113753.780000", "113755.780000", "113757.779000", "113759.779000", "113801.779000", "113804.279000", "113805.779000", "113807.780000", "113809.780000", "113811.780000", "113813.779000", "113815.779000", "113817.780000", "113819.779000", "113821.779000", "113823.779000", "113825.779000", "113827.781000", "113829.780000", "113831.779000", "113833.779000", "113835.779000", "113837.779000", "113839.779000", "113841.780000", "113843.779000", "113845.780000", "113847.781000", "113849.779000", "113852.279000", "113853.779000", "113855.779000", "113857.779000", "113859.779000", "113901.780000", "113903.781000", "113905.780000", "113907.779000", "113909.779000", "113911.780000", "113913.779000", "113915.780000", "113917.780000", "113919.780000", "113921.780000", "113923.779000", "113925.779000", "113927.779000", "113929.780000", "113931.779000", "113933.779000", "113935.779000", "113937.780000", "113939.780000", "113941.779000", "113943.780000", "113945.779000", "113947.780000", "113949.780000", "113951.779000", "113953.779000", "113956.280000", "113957.780000", "113959.780000", "114001.780000", "114004.279000", "114005.779000", "114007.779000", "114009.779000", "114011.780000", "114013.781000", "114015.781000", "114017.779000", "114019.779000", "114021.779000", "114023.793000", "114026.280000", "114027.780000", "114029.780000", "114031.780000", "114033.780000", "114035.780000", "114038.280000", "114039.780000", "114041.779000", "114043.779000", "114045.779000", "114047.781000", "114049.781000", "114051.779000", "114053.780000", "114055.779000", "114058.280000", "114059.780000", "114101.779000", "114103.779000", "114105.780000", "114107.781000", "114109.780000", "114111.780000", "114113.780000", "114115.780000", "114118.280000", "114119.779000", "114121.780000", "114123.780000", "114125.780000", "114127.780000", "114129.644000"],
      "InstanceCreationTime": ["113348.284000", "113349.780000", "113351.779000", "113353.779000", "113355.780000", "113357.779000", "113359.779000", "113401.779000", "113403.779000", "113405.780000", "113407.780000", "113409.779000", "113411.779000", "113413.779000", "113415.780000", "113418.280000", "113419.779000", "113421.779000", "113423.780000", "113425.780000", "113427.779000", "113429.780000", "113431.780000", "113433.779000", "113435.779000", "113437.779000", "113439.781000", "113441.780000", "113443.779000", "113445.780000", "113447.780000", "113449.779000", "113451.779000", "113453.780000", "113455.780000", "113457.780000", "113459.780000", "113501.780000", "113503.779000", "113505.779000", "113507.780000", "113509.779000", "113511.779000", "113513.779000", "113515.780000", "113517.781000", "113519.779000", "113521.779000", "113523.779000", "113525.779000", "113527.779000", "113529.780000", "113531.779000", "113533.780000", "113535.780000", "113537.780000", "113539.780000", "113541.779000", "113543.779000", "113545.779000", "113547.779000", "113549.780000", "113551.780000", "113553.779000", "113555.780000", "113557.779000", "113559.780000", "113601.779000", "113603.779000", "113605.779000", "113607.781000", "113609.781000", "113611.780000", "113613.779000", "113615.780000", "113617.780000", "113619.779000", "113621.779000", "113623.780000", "113625.781000", "113627.780000", "113629.779000", "113631.779000", "113633.779000", "113635.779000", "113637.779000", "113639.779000", "113641.779000", "113643.780000", "113646.280000", "113647.779000", "113649.780000", "113651.780000", "113653.780000", "113655.779000", "113657.779000", "113659.781000", "113701.781000", "113703.779000", "113705.779000", "113707.779000", "113709.779000", "113711.779000", "113713.779000", "113715.779000", "113717.781000", "113719.781000", "113722.280000", "113723.779000", "113725.780000", "113727.779000", "113730.279000", "113731.780000", "113733.779000", "113735.780000", "113737.781000", "113739.779000", "113741.780000", "113743.779000", "113745.779000", "113747.779000", "113749.780000", "113752.280000", "113753.780000", "113755.780000", "113757.779000", "113759.779000", "113801.779000", "113804.279000", "113805.779000", "113807.780000", "113809.780000", "113811.780000", "113813.779000", "113815.779000", "113817.780000", "113819.779000", "113821.779000", "113823.779000", "113825.779000", "113827.781000", "113829.780000", "113831.779000", "113833.779000", "113835.779000", "113837.779000", "113839.779000", "113841.780000", "113843.779000", "113845.780000", "113847.781000", "113849.779000", "113852.279000", "113853.779000", "113855.779000", "113857.779000", "113859.779000", "113901.780000", "113903.781000", "113905.780000", "113907.779000", "113909.779000", "113911.780000", "113913.779000", "113915.780000", "113917.780000", "113919.780000", "113921.780000", "113923.779000", "113925.779000", "113927.779000", "113929.780000", "113931.779000", "113933.779000", "113935.779000", "113937.780000", "113939.780000", "113941.779000", "113943.780000", "113945.779000", "113947.780000", "113949.780000", "113951.779000", "113953.779000", "113956.280000", "113957.780000", "113959.780000", "114001.780000", "114004.279000", "114005.779000", "114007.779000", "114009.779000", "114011.780000", "114013.781000", "114015.781000", "114017.779000", "114019.779000", "114021.779000", "114023.793000", "114026.280000", "114027.780000", "114029.780000", "114031.780000", "114033.780000", "114035.780000", "114038.280000", "114039.780000", "114041.779000", "114043.779000", "114045.779000", "114047.781000", "114049.781000", "114051.779000", "114053.780000", "114055.779000", "114058.280000", "114059.780000", "114101.779000", "114103.779000", "114105.780000", "114107.781000", "114109.780000", "114111.780000", "114113.780000", "114115.780000", "114118.280000", "114119.779000", "114121.780000", "114123.780000", "114125.780000", "114127.780000", "114129.644000"],
      "InstanceNumber": [1, 2, 3, 4, 5, 6, 7, 8, 9, 10, 11, 12, 13, 14, 15, 16, 17, 18, 19, 20, 21, 22, 23, 24, 25, 26, 27, 28, 29, 30, 31, 32, 33, 34, 35, 36, 37, 38, 39, 40, 41, 42, 43, 44, 45, 46, 47, 48, 49, 50, 51, 52, 53, 54, 55, 56, 57, 58, 59, 60, 61, 62, 63, 64, 65, 66, 67, 68, 69, 70, 71, 72, 73, 74, 75, 76, 77, 78, 79, 80, 81, 82, 83, 84, 85, 86, 87, 88, 89, 90, 91, 92, 93, 94, 95, 96, 97, 98, 99, 100, 101, 102, 103, 104, 105, 106, 107, 108, 109, 110, 111, 112, 113, 114, 115, 116, 117, 118, 119, 120, 121, 122, 123, 124, 125, 126, 127, 128, 129, 130, 131, 132, 133, 134, 135, 136, 137, 138, 139, 140, 141, 142, 143, 144, 145, 146, 147, 148, 149, 150, 151, 152, 153, 154, 155, 156, 157, 158, 159, 160, 161, 162, 163, 164, 165, 166, 167, 168, 169, 170, 171, 172, 173, 174, 175, 176, 177, 178, 179, 180, 181, 182, 183, 184, 185, 186, 187, 188, 189, 190, 191, 192, 193, 194, 195, 196, 197, 198, 199, 200, 201, 202, 203, 204, 205, 206, 207, 208, 209, 210, 211, 212, 213, 214, 215, 216, 217, 218, 219, 220, 221, 222, 223, 224, 225, 226, 227, 228, 229, 230, 231, 232],
      "LargestImagePixelValue": [3428, 3395, 3318, 3321, 3308, 3327, 3352, 3325, 3316, 3340, 3281, 3279, 3250, 3268, 3267, 3256, 3323, 3274, 3283, 3301, 3314, 3280, 3288, 3277, 3295, 3260, 3235, 3259, 3262, 3261, 3236, 3236, 3252, 3268, 3305, 3295, 3263, 3234, 3271, 3216, 3212, 3207, 3216, 3195, 3196, 3154, 3174, 3150, 3151, 3171, 3181, 3161, 3137, 3169, 3165, 3150, 3139, 3160, 3165, 3231, 3309, 3278, 3294, 3273, 3253, 3250, 3241, 3266, 3212, 3182, 3168, 3170, 3174, 3166, 3175, 3152, 3189, 3135, 3156, 3131, 3162, 3156, 3101, 3088, 3106, 3143, 3127, 3137, 3115, 3176, 3159, 3146, 3145, 3172, 3150, 3140, 3172, 3182, 3145, 3143, 3127, 3227, 3389, 3366, 3363, 3354, 3349, 3354, 3327, 3359, 3362, 3365, 3275, 3470, 3268, 3192, 3205, 3136, 3218, 3241, 3211, 3207, 3142, 3095, 3169, 3082, 3105, 3112, 3164, 3146, 3095, 3102, 3080, 3083, 3083, 3100, 3100, 3073, 3066, 3095, 3085, 3122, 3165, 3134, 3114, 3092, 3129, 3156, 3133, 3168, 3148, 3139, 3148, 3111, 3121, 3134, 3119, 3111, 3137, 3081, 3094, 3126, 3142, 3126, 3196, 3139, 3104, 3146, 3121, 3206, 3183, 3173, 3193, 3222, 3217, 3224, 3246, 3215, 3199, 3190, 3211, 3216, 3235, 3212, 3221, 3245, 3224, 3235, 3196, 3277, 3162, 3211, 3200, 3210, 3171, 3205, 3187, 3214, 3266, 3189, 3258, 3275, 3279, 3282, 3300, 3287, 3253, 3251, 3256, 3227, 3224, 3263, 3262, 3268, 3253, 3294, 3240, 3239, 3241, 3261, 3240, 3244, 3248, 3222, 3169, 3159, 3171, 3224, 3189, 3141, 3136, 3148],
      "WindowCenter": [760.0, 758.0, 757.0, 757.0, 757.0, 757.0, 757.0, 758.0, 757.0, 756.0, 756.0, 756.0, 756.0, 756.0, 757.0, 757.0, 758.0, 758.0, 759.0, 759.0, 759.0, 758.0, 758.0, 757.0, 758.0, 758.0, 758.0, 759.0, 759.0, 759.0, 759.0, 758.0, 758.0, 758.0, 759.0, 759.0, 759.0, 758.0, 758.0, 757.0, 757.0, 758.0, 758.0, 758.0, 759.0, 759.0, 758.0, 758.0, 757.0, 757.0, 757.0, 757.0, 757.0, 756.0, 756.0, 755.0, 755.0, 755.0, 756.0, 755.0, 757.0, 757.0, 758.0, 758.0, 757.0, 757.0, 757.0, 757.0, 757.0, 757.0, 756.0, 757.0, 757.0, 758.0, 759.0, 759.0, 759.0, 759.0, 759.0, 758.0, 756.0, 756.0, 755.0, 754.0, 755.0, 755.0, 756.0, 756.0, 756.0, 756.0, 756.0, 757.0, 757.0, 758.0, 758.0, 757.0, 757.0, 757.0, 756.0, 756.0, 756.0, 753.0, 760.0, 759.0, 759.0, 760.0, 760.0, 759.0, 757.0, 758.0, 759.0, 761.0, 759.0, 760.0, 768.0, 765.0, 763.0, 763.0, 765.0, 765.0, 763.0, 762.0, 762.0, 763.0, 763.0, 762.0, 762.0, 763.0, 763.0, 762.0, 761.0, 761.0, 761.0, 760.0, 759.0, 760.0, 759.0, 759.0, 758.0, 759.0, 759.0, 760.0, 760.0, 760.0, 761.0, 761.0, 761.0, 761.0, 761.0, 762.0, 761.0, 762.0, 762.0, 762.0, 763.0, 763.0, 763.0, 763.0, 762.0, 761.0, 760.0, 760.0, 759.0, 759.0, 759.0, 759.0, 758.0, 759.0, 759.0, 759.0, 760.0, 761.0, 760.0, 760.0, 761.0, 760.0, 759.0, 758.0, 758.0, 758.0, 759.0, 759.0, 759.0, 760.0, 760.0, 760.0, 759.0, 759.0, 759.0, 759.0, 758.0, 759.0, 759.0, 759.0, 758.0, 759.0, 758.0, 758.0, 758.0, 757.0, 758.0, 759.0, 760.0, 760.0, 761.0, 762.0, 761.0, 761.0, 761.0, 759.0, 758.0, 758.0, 757.0, 757.0, 757.0, 757.0, 757.0, 757.0, 756.0, 757.0, 758.0, 758.0, 760.0, 759.0, 756.0, 760.0, 763.0, 762.0, 761.0, 759.0, 759.0, 760.0],
      "WindowWidth": [1638.0, 1633.0, 1630.0, 1630.0, 1631.0, 1630.0, 1630.0, 1632.0, 1630.0, 1629.0, 1628.0, 1629.0, 1628.0, 1628.0, 1630.0, 1631.0, 1633.0, 1634.0, 1636.0, 1637.0, 1636.0, 1634.0, 1632.0, 1631.0, 1633.0, 1634.0, 1634.0, 1636.0, 1637.0, 1636.0, 1635.0, 1633.0, 1633.0, 1633.0, 1635.0, 1637.0, 1635.0, 1634.0, 1632.0, 1631.0, 1631.0, 1633.0, 1634.0, 1634.0, 1636.0, 1635.0, 1634.0, 1632.0, 1630.0, 1631.0, 1630.0, 1630.0, 1630.0, 1628.0, 1628.0, 1625.0, 1624.0, 1625.0, 1628.0, 1625.0, 1630.0, 1632.0, 1633.0, 1632.0, 1631.0, 1629.0, 1630.0, 1632.0, 1631.0, 1629.0, 1627.0, 1629.0, 1630.0, 1632.0, 1635.0, 1635.0, 1635.0, 1635.0, 1635.0, 1633.0, 1628.0, 1626.0, 1624.0, 1623.0, 1624.0, 1626.0, 1627.0, 1627.0, 1627.0, 1628.0, 1629.0, 1631.0, 1632.0, 1633.0, 1632.0, 1631.0, 1631.0, 1630.0, 1628.0, 1628.0, 1627.0, 1620.0, 1640.0, 1635.0, 1637.0, 1638.0, 1638.0, 1635.0, 1631.0, 1634.0, 1635.0, 1642.0, 1636.0, 1643.0, 1661.0, 1652.0, 1647.0, 1647.0, 1652.0, 1652.0, 1648.0, 1645.0, 1646.0, 1647.0, 1649.0, 1644.0, 1645.0, 1646.0, 1647.0, 1645.0, 1643.0, 1643.0, 1641.0, 1638.0, 1637.0, 1638.0, 1637.0, 1636.0, 1634.0, 1636.0, 1637.0, 1639.0, 1640.0, 1640.0, 1641.0, 1640.0, 1641.0, 1643.0, 1642.0, 1643.0, 1643.0, 1644.0, 1645.0, 1645.0, 1646.0, 1647.0, 1646.0, 1647.0, 1645.0, 1642.0, 1640.0, 1640.0, 1637.0, 1636.0, 1636.0, 1635.0, 1634.0, 1635.0, 1635.0, 1636.0, 1639.0, 1640.0, 1640.0, 1639.0, 1641.0, 1640.0, 1637.0, 1634.0, 1634.0, 1633.0, 1635.0, 1636.0, 1637.0, 1639.0, 1637.0, 1638.0, 1636.0, 1636.0, 1635.0, 1636.0, 1633.0, 1635.0, 1635.0, 1635.0, 1634.0, 1635.0, 1634.0, 1634.0, 1633.0, 1630.0, 1632.0, 1635.0, 1637.0, 1639.0, 1642.0, 1643.0, 1642.0, 1641.0, 1640.0, 1636.0, 1634.0, 1632.0, 1631.0, 1630.0, 1629.0, 1629.0, 1629.0, 1629.0, 1628.0, 1630.0, 1632.0, 1633.0, 1637.0, 1634.0, 1628.0, 1638.0, 1647.0, 1644.0, 1641.0, 1637.0, 1637.0, 1639.0]
    },
    "slices": {}
  }
}