{
  "AcquisitionMatrixPE": 100,
  "AcquisitionNumber": 1,
  "AcquisitionTime": "13:20:45.457500",
  "BandwidthPerPixelPhaseEncode": 18.519,
  "BaseResolution": 100,
  "BodyPartExamined": "BRAIN",
  "ConsistencyInfo": "N4_VE11C_LATEST_20160120",
  "ConversionSoftware": "dcm2niix",
  "ConversionSoftwareVersion": "v1.0.20180622 GCC4.9.2",
  "DerivedVendorReportedEchoSpacing": 0.000539986,
  "DeviceSerialNumber": "166078",
  "DwellTime": 2.1e-06,
  "EchoTime": 0.034,
  "EchoTrainLength": 100,
  "EffectiveEchoSpacing": 0.000539986,
  "FlipAngle": 90,
  "ImageOrientationPatientDICOM": [0.999999, -0.000252597, -0.0013121, -1.90629e-08, 0.981966, -0.189056],
  "ImageType": [
    "ORIGINAL",
    "PRIMARY",
    "M",
    "ND",
    "MOSAIC"
],
  "InPlanePhaseEncodingDirectionDICOM": "COL",
  "InstitutionAddress": "Street_StreetNo_Bei_Jing_District_CN_ZIP",
  "InstitutionName": "BeiJing_Normal_University",
  "InstitutionalDepartmentName": "Department",
  "MRAcquisitionType": "2D",
  "MagneticFieldStrength": 3,
  "Manufacturer": "Siemens",
  "ManufacturersModelName": "Prisma",
  "Modality": "MR",
  "MultibandAccelerationFactor": 3,
  "PartialFourier": 1,
  "PatientPosition": "HFS",
  "PercentPhaseFOV": 100,
  "PhaseEncodingDirection": "j-",
  "PhaseEncodingSteps": 100,
  "PhaseResolution": 1,
  "PixelBandwidth": 2380,
  "ProcedureStepDescription": "BNU_P2018_64CH_Liu.Jia",
  "ProtocolName": "bold_100x100_s3_2x2x2_232",
  "PulseSequenceDetails": "%SiemensSeq%_ep2d_bold",
  "ReceiveCoilActiveElements": "HC1-7;NC1",
  "ReceiveCoilName": "HeadNeck_64",
  "ReconMatrixPE": 100,
  "RepetitionTime": 2,
  "SAR": 0.0709538,
  "ScanOptions": "FS",
  "ScanningSequence": "EP",
  "SequenceName": "_epfid2d1_100",
  "SequenceVariant": "SK",
  "SeriesDescription": "bold_100x100_s3_2x2x2_232",
  "SeriesNumber": 8,
  "ShimSetting": [-5467, -11509, -1286, 358, -43, -220, -174, 81],
  "SliceThickness": 2,
  "SliceTiming": [1.485, 0, 0.99, 0.0825, 1.0725, 0.165, 1.155, 0.2475, 1.2375, 0.33, 1.32, 0.4125, 1.4025, 0.5775, 1.5675, 0.66, 1.65, 0.7425, 1.7325, 0.825, 1.815, 0.9075, 1.8975, 0.495, 1.485, 0, 0.99, 0.0825, 1.0725, 0.165, 1.155, 0.2475, 1.2375, 0.33, 1.32, 0.4125, 1.4025, 0.5775, 1.5675, 0.66, 1.65, 0.7425, 1.7325, 0.825, 1.815, 0.9075, 1.8975, 0.495, 1.485, 0, 0.99, 0.0825, 1.0725, 0.165, 1.155, 0.2475, 1.2375, 0.33, 1.32, 0.4125, 1.4025, 0.5775, 1.5675, 0.66, 1.65, 0.7425, 1.7325, 0.825, 1.815, 0.9075, 1.8975, 0.495],
  "SoftwareVersions": "syngo_MR_E11",
  "SpacingBetweenSlices": 2,
  "StationName": "AWP166078",
  "TaskName": "motor",
  "TotalReadoutTime": 0.0534586,
  "TxRefAmp": 215.891,
  "dcmmeta_affine": [
    [-1.9999982118606567, -3.812573368122685e-08, -0.0026723803021013737, 105.41484832763672],
    [0.0005051930784247816, 1.9639325141906738, -0.3781123757362366, -74.07463073730469],
    [-0.0026241946034133434, 0.3781127333641052, 1.9639307260513306, -93.8393325805664],
    [0.0, 0.0, 0.0, 1.0]
],
  "dcmmeta_reorient_transform": [
    [0.0, -1.0, 0.0, 99.0],
    [1.0, 0.0, 0.0, 0.0],
    [0.0, 0.0, 1.0, 0.0],
    [0.0, 0.0, 0.0, 1.0]
],
  "dcmmeta_shape": [100, 100, 72, 232],
  "dcmmeta_slice_dim": 2,
  "dcmmeta_version": 0.6,
  "global": {
    "const": {
      "AcquisitionMatrix": [100, 0, 0, 100],
      "AngioFlag": "N",
      "BitsAllocated": 16,
      "BitsStored": 12,
      "BodyPartExamined": "BRAIN",
      "Columns": 900,
      "EchoNumbers": 1,
      "EchoTime": 34.0,
      "EchoTrainLength": 100,
      "FlipAngle": 90.0,
      "HighBit": 11,
      "ImageOrientationPatient": [0.99999910729746, -0.0002525965455, -0.0013120972792, -1.9062867e-08, 0.9819662371286, -0.1890563649801],
      "ImagePositionPatient": [-905.41411547681, -905.72559561662, 95.888599981181],
      "ImageType": [
        "ORIGINAL",
        "PRIMARY",
        "M",
        "ND",
        "MOSAIC"
],
      "ImagedNucleus": "1H",
      "ImagingFrequency": 123.257835,
      "InPlanePhaseEncodingDirection": "COL",
      "MRAcquisitionType": "2D",
      "MagneticFieldStrength": 3.0,
      "Manufacturer": "SIEMENS",
      "ManufacturerModelName": "Prisma",
      "Modality": "MR",
      "NumberOfAverages": 1.0,
      "NumberOfPhaseEncodingSteps": 100,
      "PercentPhaseFieldOfView": 100.0,
      "PercentSampling": 100.0,
      "PerformedProcedureStepStartTime": "124837.542000",
      "PhotometricInterpretation": "MONOCHROME2",
      "PixelBandwidth": 2380.0,
      "PixelRepresentation": 0,
      "PixelSpacing": [2.0, 2.0],
      "ProtocolName": "bold_100x100_s3_2x2x2_232",
      "RepetitionTime": 2000.0,
      "Rows": 900,
      "SAR": 0.070953753422,
      "SamplesPerPixel": 1,
      "ScanOptions": "FS",
      "ScanningSequence": "EP",
      "SequenceName": "*epfid2d1_100",
      "SequenceVariant": "SK",
      "SeriesDescription": "bold_100x100_s3_2x2x2_232",
      "SeriesNumber": 8,
      "SeriesTime": "132047.717000",
      "SliceLocation": -78.283557768377,
      "SliceThickness": 2.0,
      "SmallestImagePixelValue": 0,
      "SoftwareVersions": "syngo MR E11",
      "SpacingBetweenSlices": 1.9999999705857,
      "SpecificCharacterSet": "ISO_IR 100",
      "StudyID": "1",
      "StudyTime": "124837.470000",
      "TransmitCoilName": "Body",
      "VariableFlipAngleFlag": "N",
      "WindowCenterWidthExplanation": "Algo1",
      "dBdt": 0.0},
    "slices": {}
  },
  "time": {
    "samples": {
      "AcquisitionNumber": [1, 2, 3, 4, 5, 6, 7, 8, 9, 10, 11, 12, 13, 14, 15, 16, 17, 18, 19, 20, 21, 22, 23, 24, 25, 26, 27, 28, 29, 30, 31, 32, 33, 34, 35, 36, 37, 38, 39, 40, 41, 42, 43, 44, 45, 46, 47, 48, 49, 50, 51, 52, 53, 54, 55, 56, 57, 58, 59, 60, 61, 62, 63, 64, 65, 66, 67, 68, 69, 70, 71, 72, 73, 74, 75, 76, 77, 78, 79, 80, 81, 82, 83, 84, 85, 86, 87, 88, 89, 90, 91, 92, 93, 94, 95, 96, 97, 98, 99, 100, 101, 102, 103, 104, 105, 106, 107, 108, 109, 110, 111, 112, 113, 114, 115, 116, 117, 118, 119, 120, 121, 122, 123, 124, 125, 126, 127, 128, 129, 130, 131, 132, 133, 134, 135, 136, 137, 138, 139, 140, 141, 142, 143, 144, 145, 146, 147, 148, 149, 150, 151, 152, 153, 154, 155, 156, 157, 158, 159, 160, 161, 162, 163, 164, 165, 166, 167, 168, 169, 170, 171, 172, 173, 174, 175, 176, 177, 178, 179, 180, 181, 182, 183, 184, 185, 186, 187, 188, 189, 190, 191, 192, 193, 194, 195, 196, 197, 198, 199, 200, 201, 202, 203, 204, 205, 206, 207, 208, 209, 210, 211, 212, 213, 214, 215, 216, 217, 218, 219, 220, 221, 222, 223, 224, 225, 226, 227, 228, 229, 230, 231, 232],
      "AcquisitionTime": ["132045.457500", "132047.457500", "132049.457500", "132051.457500", "132053.457500", "132055.457500", "132057.457500", "132059.457500", "132101.457500", "132103.457500", "132105.457500", "132107.457500", "132109.457500", "132111.457500", "132113.457500", "132115.457500", "132117.457500", "132119.457500", "132121.457500", "132123.457500", "132125.457500", "132127.457500", "132129.457500", "132131.457500", "132133.457500", "132135.457500", "132137.457500", "132139.457500", "132141.457500", "132143.457500", "132145.457500", "132147.457500", "132149.457500", "132151.457500", "132153.457500", "132155.457500", "132157.457500", "132159.457500", "132201.457500", "132203.457500", "132205.457500", "132207.457500", "132209.457500", "132211.457500", "132213.457500", "132215.457500", "132217.457500", "132219.457500", "132221.457500", "132223.457500", "132225.457500", "132227.457500", "132229.457500", "132231.457500", "132233.457500", "132235.457500", "132237.457500", "132239.457500", "132241.457500", "132243.457500", "132245.457500", "132247.457500", "132249.457500", "132251.457500", "132253.457500", "132255.457500", "132257.457500", "132259.457500", "132301.457500", "132303.457500", "132305.457500", "132307.457500", "132309.457500", "132311.457500", "132313.457500", "132315.457500", "132317.457500", "132319.457500", "132321.457500", "132323.457500", "132325.457500", "132327.457500", "132329.457500", "132331.457500", "132333.457500", "132335.457500", "132337.457500", "132339.457500", "132341.457500", "132343.457500", "132345.457500", "132347.457500", "132349.457500", "132351.457500", "132353.457500", "132355.457500", "132357.457500", "132359.457500", "132401.457500", "132403.457500", "132405.457500", "132407.457500", "132409.457500", "132411.457500", "132413.457500", "132415.457500", "132417.457500", "132419.457500", "132421.457500", "132423.457500", "132425.457500", "132427.457500", "132429.457500", "132431.457500", "132433.457500", "132435.457500", "132437.457500", "132439.457500", "132441.457500", "132443.457500", "132445.457500", "132447.457500", "132449.457500", "132451.457500", "132453.457500", "132455.457500", "132457.457500", "132459.457500", "132501.457500", "132503.457500", "132505.457500", "132507.457500", "132509.457500", "132511.457500", "132513.457500", "132515.457500", "132517.457500", "132519.457500", "132521.457500", "132523.457500", "132525.457500", "132527.457500", "132529.457500", "132531.457500", "132533.457500", "132535.457500", "132537.457500", "132539.457500", "132541.457500", "132543.457500", "132545.457500", "132547.457500", "132549.457500", "132551.457500", "132553.457500", "132555.457500", "132557.457500", "132559.457500", "132601.457500", "132603.457500", "132605.457500", "132607.457500", "132609.457500", "132611.457500", "132613.457500", "132615.457500", "132617.457500", "132619.457500", "132621.457500", "132623.457500", "132625.457500", "132627.457500", "132629.457500", "132631.457500", "132633.457500", "132635.457500", "132637.457500", "132639.457500", "132641.457500", "132643.457500", "132645.457500", "132647.457500", "132649.457500", "132651.457500", "132653.457500", "132655.457500", "132657.457500", "132659.457500", "132701.457500", "132703.457500", "132705.457500", "132707.457500", "132709.457500", "132711.457500", "132713.457500", "132715.457500", "132717.457500", "132719.457500", "132721.457500", "132723.457500", "132725.457500", "132727.457500", "132729.457500", "132731.457500", "132733.457500", "132735.457500", "132737.457500", "132739.457500", "132741.457500", "132743.457500", "132745.457500", "132747.457500", "132749.457500", "132751.457500", "132753.457500", "132755.457500", "132757.457500", "132759.457500", "132801.457500", "132803.457500", "132805.457500", "132807.457500", "132809.457500", "132811.457500", "132813.457500", "132815.457500", "132817.457500", "132819.457500", "132821.457500", "132823.457500", "132825.457500", "132827.457500"],
      "ContentTime": ["132047.721000", "132049.208000", "132051.208000", "132053.208000", "132055.208000", "132057.208000", "132059.209000", "132101.208000", "132103.207000", "132105.207000", "132107.208000", "132109.208000", "132111.208000", "132113.208000", "132115.708000", "132117.208000", "132119.207000", "132121.707000", "132123.207000", "132125.208000", "132127.208000", "132129.208000", "132131.208000", "132133.208000", "132135.209000", "132137.208000", "132139.207000", "132141.209000", "132143.709000", "132145.209000", "132147.208000", "132149.208000", "132151.208000", "132153.208000", "132155.207000", "132157.207000", "132159.708000", "132201.209000", "132203.208000", "132205.208000", "132207.208000", "132209.208000", "132211.208000", "132213.207000", "132215.207000", "132217.709000", "132219.709000", "132221.208000", "132223.208000", "132225.208000", "132227.209000", "132229.207000", "132231.208000", "132233.207000", "132235.208000", "132237.208000", "132239.208000", "132241.208000", "132243.208000", "132245.208000", "132247.208000", "132249.207000", "132251.209000", "132253.208000", "132255.209000", "132257.208000", "132259.208000", "132301.208000", "132303.209000", "132305.707000", "132307.207000", "132309.208000", "132311.208000", "132313.208000", "132315.208000", "132317.208000", "132319.208000", "132321.208000", "132323.207000", "132325.208000", "132327.208000", "132329.208000", "132331.208000", "132333.208000", "132335.208000", "132337.208000", "132339.207000", "132341.208000", "132343.208000", "132345.209000", "132347.209000", "132349.208000", "132351.208000", "132353.708000", "132355.708000", "132357.207000", "132359.207000", "132401.208000", "132403.208000", "132405.209000", "132407.209000", "132409.208000", "132411.208000", "132413.208000", "132415.207000", "132417.208000", "132419.208000", "132421.208000", "132423.208000", "132425.208000", "132427.208000", "132429.208000", "132431.707000", "132433.207000", "132435.208000", "132437.208000", "132439.209000", "132441.208000", "132443.209000", "132445.708000", "132447.709000", "132449.207000", "132451.207000", "132453.208000", "132455.208000", "132457.208000", "132459.209000", "132501.708000", "132503.709000", "132505.209000", "132507.208000", "132509.707000", "132511.209000", "132513.208000", "132515.209000", "132517.708000", "132519.208000", "132521.208000", "132523.209000", "132525.707000", "132527.208000", "132529.208000", "132531.209000", "132533.208000", "132535.209000", "132537.209000", "132539.708000", "132541.708000", "132543.207000", "132545.207000", "132547.208000", "132549.208000", "132551.708000", "132553.208000", "132555.708000", "132557.208000", "132559.708000", "132601.207000", "132603.209000", "132605.208000", "132607.208000", "132609.209000", "132611.708000", "132613.708000", "132615.208000", "132617.221000", "132619.207000", "132621.208000", "132623.708000", "132625.208000", "132627.208000", "132629.209000", "132631.208000", "132633.208000", "132635.707000", "132637.207000", "132639.209000", "132641.208000", "132643.209000", "132645.208000", "132647.208000", "132649.208000", "132651.209000", "132653.208000", "132655.207000", "132657.208000", "132659.208000", "132701.209000", "132703.208000", "132705.208000", "132707.208000", "132709.207000", "132711.207000", "132713.208000", "132715.209000", "132717.208000", "132719.209000", "132721.208000", "132723.208000", "132725.208000", "132727.208000", "132729.707000", "132731.208000", "132733.708000", "132735.208000", "132737.208000", "132739.208000", "132741.708000", "132743.709000", "132745.208000", "132747.708000", "132749.708000", "132751.209000", "132753.208000", "132755.209000", "132757.708000", "132759.709000", "132801.208000", "132803.208000", "132805.207000", "132807.208000", "132809.208000", "132811.208000", "132813.208000", "132815.209000", "132817.208000", "132819.208000", "132821.208000", "132823.208000", "132825.208000", "132827.208000", "132829.104000"],
      "InstanceCreationTime": ["132047.721000", "132049.208000", "132051.208000", "132053.208000", "132055.208000", "132057.208000", "132059.209000", "132101.208000", "132103.207000", "132105.207000", "132107.208000", "132109.208000", "132111.208000", "132113.208000", "132115.708000", "132117.208000", "132119.207000", "132121.707000", "132123.207000", "132125.208000", "132127.208000", "132129.208000", "132131.208000", "132133.208000", "132135.209000", "132137.208000", "132139.207000", "132141.209000", "132143.709000", "132145.209000", "132147.208000", "132149.208000", "132151.208000", "132153.208000", "132155.207000", "132157.207000", "132159.708000", "132201.209000", "132203.208000", "132205.208000", "132207.208000", "132209.208000", "132211.208000", "132213.207000", "132215.207000", "132217.709000", "132219.709000", "132221.208000", "132223.208000", "132225.208000", "132227.209000", "132229.207000", "132231.208000", "132233.207000", "132235.208000", "132237.208000", "132239.208000", "132241.208000", "132243.208000", "132245.208000", "132247.208000", "132249.207000", "132251.209000", "132253.208000", "132255.209000", "132257.208000", "132259.208000", "132301.208000", "132303.209000", "132305.707000", "132307.207000", "132309.208000", "132311.208000", "132313.208000", "132315.208000", "132317.208000", "132319.208000", "132321.208000", "132323.207000", "132325.208000", "132327.208000", "132329.208000", "132331.208000", "132333.208000", "132335.208000", "132337.208000", "132339.207000", "132341.208000", "132343.208000", "132345.209000", "132347.209000", "132349.208000", "132351.208000", "132353.708000", "132355.708000", "132357.207000", "132359.207000", "132401.208000", "132403.208000", "132405.209000", "132407.209000", "132409.208000", "132411.208000", "132413.208000", "132415.207000", "132417.208000", "132419.208000", "132421.208000", "132423.208000", "132425.208000", "132427.208000", "132429.208000", "132431.707000", "132433.207000", "132435.208000", "132437.208000", "132439.209000", "132441.208000", "132443.209000", "132445.708000", "132447.709000", "132449.207000", "132451.207000", "132453.208000", "132455.208000", "132457.208000", "132459.209000", "132501.708000", "132503.709000", "132505.209000", "132507.208000", "132509.707000", "132511.209000", "132513.208000", "132515.209000", "132517.708000", "132519.208000", "132521.208000", "132523.209000", "132525.707000", "132527.208000", "132529.208000", "132531.209000", "132533.208000", "132535.209000", "132537.209000", "132539.708000", "132541.708000", "132543.207000", "132545.207000", "132547.208000", "132549.208000", "132551.708000", "132553.208000", "132555.708000", "132557.208000", "132559.708000", "132601.207000", "132603.209000", "132605.208000", "132607.208000", "132609.209000", "132611.708000", "132613.708000", "132615.208000", "132617.221000", "132619.207000", "132621.208000", "132623.708000", "132625.208000", "132627.208000", "132629.209000", "132631.208000", "132633.208000", "132635.707000", "132637.207000", "132639.209000", "132641.208000", "132643.209000", "132645.208000", "132647.208000", "132649.208000", "132651.209000", "132653.208000", "132655.207000", "132657.208000", "132659.208000", "132701.209000", "132703.208000", "132705.208000", "132707.208000", "132709.207000", "132711.207000", "132713.208000", "132715.209000", "132717.208000", "132719.209000", "132721.208000", "132723.208000", "132725.208000", "132727.208000", "132729.707000", "132731.208000", "132733.708000", "132735.208000", "132737.208000", "132739.208000", "132741.708000", "132743.709000", "132745.208000", "132747.708000", "132749.708000", "132751.209000", "132753.208000", "132755.209000", "132757.708000", "132759.709000", "132801.208000", "132803.208000", "132805.207000", "132807.208000", "132809.208000", "132811.208000", "132813.208000", "132815.209000", "132817.208000", "132819.208000", "132821.208000", "132823.208000", "132825.208000", "132827.208000", "132829.104000"],
      "InstanceNumber": [1, 2, 3, 4, 5, 6, 7, 8, 9, 10, 11, 12, 13, 14, 15, 16, 17, 18, 19, 20, 21, 22, 23, 24, 25, 26, 27, 28, 29, 30, 31, 32, 33, 34, 35, 36, 37, 38, 39, 40, 41, 42, 43, 44, 45, 46, 47, 48, 49, 50, 51, 52, 53, 54, 55, 56, 57, 58, 59, 60, 61, 62, 63, 64, 65, 66, 67, 68, 69, 70, 71, 72, 73, 74, 75, 76, 77, 78, 79, 80, 81, 82, 83, 84, 85, 86, 87, 88, 89, 90, 91, 92, 93, 94, 95, 96, 97, 98, 99, 100, 101, 102, 103, 104, 105, 106, 107, 108, 109, 110, 111, 112, 113, 114, 115, 116, 117, 118, 119, 120, 121, 122, 123, 124, 125, 126, 127, 128, 129, 130, 131, 132, 133, 134, 135, 136, 137, 138, 139, 140, 141, 142, 143, 144, 145, 146, 147, 148, 149, 150, 151, 152, 153, 154, 155, 156, 157, 158, 159, 160, 161, 162, 163, 164, 165, 166, 167, 168, 169, 170, 171, 172, 173, 174, 175, 176, 177, 178, 179, 180, 181, 182, 183, 184, 185, 186, 187, 188, 189, 190, 191, 192, 193, 194, 195, 196, 197, 198, 199, 200, 201, 202, 203, 204, 205, 206, 207, 208, 209, 210, 211, 212, 213, 214, 215, 216, 217, 218, 219, 220, 221, 222, 223, 224, 225, 226, 227, 228, 229, 230, 231, 232],
      "LargestImagePixelValue": [3203, 3140, 3134, 3106, 3107, 3074, 3079, 3115, 3073, 3114, 3118, 3113, 3106, 3087, 3069, 3090, 3082, 3061, 3103, 3037, 3102, 3052, 3057, 3036, 3047, 3090, 3054, 3086, 3081, 3099, 3098, 3072, 3076, 3063, 3046, 3082, 3056, 3083, 3038, 3068, 3073, 3044, 3063, 3040, 3037, 3046, 3014, 3060, 3016, 3050, 3070, 3128, 3021, 3147, 3149, 3078, 3136, 3121, 3123, 3098, 3092, 3086, 3135, 3092, 3128, 3142, 3111, 3105, 3095, 3142, 3130, 3127, 3108, 3103, 3120, 3115, 3142, 3114, 3114, 3113, 3131, 3114, 3152, 3125, 3136, 3122, 3119, 3123, 3137, 3136, 3071, 3120, 3096, 3133, 3107, 3158, 3127, 3148, 3114, 3048, 3040, 3052, 3072, 3024, 3017, 3018, 2991, 3023, 3049, 3054, 3104, 3093, 3129, 3131, 3113, 3155, 3123, 3135, 3188, 3167, 3152, 3160, 3160, 3169, 3195, 3162, 3160, 3169, 3193, 3110, 3095, 3071, 3040, 3057, 3077, 3073, 3059, 3075, 3107, 3063, 3087, 3073, 3090, 3083, 3112, 3134, 3111, 3088, 3141, 3127, 3098, 3141, 3111, 3125, 3113, 3136, 3104, 3123, 3142, 3113, 3128, 3111, 3140, 3144, 3118, 3156, 3119, 3126, 3137, 3145, 3131, 3151, 3145, 3171, 3148, 3181, 3170, 3152, 3162, 3188, 3146, 3226, 3138, 3185, 3165, 3124, 3136, 3135, 3150, 3129, 3157, 3169, 3159, 3172, 3165, 3156, 3180, 3210, 3181, 3184, 3168, 3145, 3168, 3182, 3162, 3136, 3124, 3156, 3164, 3179, 3203, 3190, 3195, 3189, 3182, 3205, 3214, 3172, 3168, 3164, 3180, 3161, 3173, 3157, 3170, 3223, 3218, 3203, 3180, 3207, 3222, 3176],
      "WindowCenter": [762.0, 760.0, 760.0, 760.0, 761.0, 760.0, 760.0, 761.0, 760.0, 760.0, 760.0, 760.0, 760.0, 759.0, 759.0, 760.0, 760.0, 761.0, 761.0, 759.0, 760.0, 761.0, 762.0, 761.0, 761.0, 762.0, 762.0, 762.0, 761.0, 761.0, 761.0, 759.0, 760.0, 760.0, 760.0, 760.0, 760.0, 760.0, 759.0, 760.0, 761.0, 761.0, 761.0, 762.0, 762.0, 762.0, 761.0, 761.0, 760.0, 760.0, 761.0, 761.0, 758.0, 763.0, 759.0, 760.0, 760.0, 761.0, 762.0, 761.0, 761.0, 760.0, 760.0, 759.0, 760.0, 760.0, 761.0, 760.0, 761.0, 761.0, 761.0, 761.0, 760.0, 760.0, 761.0, 760.0, 760.0, 760.0, 760.0, 761.0, 761.0, 761.0, 762.0, 762.0, 762.0, 762.0, 762.0, 762.0, 762.0, 761.0, 761.0, 761.0, 762.0, 762.0, 760.0, 760.0, 760.0, 760.0, 760.0, 758.0, 759.0, 759.0, 758.0, 757.0, 757.0, 756.0, 756.0, 757.0, 759.0, 759.0, 760.0, 759.0, 760.0, 761.0, 761.0, 760.0, 759.0, 759.0, 759.0, 759.0, 759.0, 759.0, 759.0, 759.0, 760.0, 759.0, 759.0, 759.0, 759.0, 760.0, 758.0, 759.0, 759.0, 758.0, 757.0, 757.0, 757.0, 758.0, 759.0, 759.0, 759.0, 758.0, 757.0, 758.0, 757.0, 759.0, 759.0, 758.0, 759.0, 760.0, 759.0, 759.0, 759.0, 759.0, 759.0, 760.0, 759.0, 760.0, 759.0, 758.0, 758.0, 758.0, 760.0, 760.0, 760.0, 760.0, 759.0, 758.0, 758.0, 759.0, 760.0, 760.0, 758.0, 758.0, 758.0, 758.0, 759.0, 758.0, 758.0, 759.0, 757.0, 757.0, 757.0, 757.0, 757.0, 758.0, 758.0, 759.0, 759.0, 759.0, 759.0, 759.0, 759.0, 760.0, 760.0, 760.0, 760.0, 759.0, 759.0, 759.0, 759.0, 758.0, 758.0, 759.0, 759.0, 758.0, 758.0, 758.0, 758.0, 759.0, 760.0, 760.0, 760.0, 760.0, 760.0, 761.0, 761.0, 761.0, 760.0, 761.0, 761.0, 761.0, 761.0, 759.0, 759.0, 761.0, 762.0, 761.0, 760.0, 760.0, 759.0, 759.0],
      "WindowWidth": [1656.0, 1649.0, 1649.0, 1650.0, 1651.0, 1650.0, 1649.0, 1650.0, 1650.0, 1650.0, 1649.0, 1650.0, 1648.0, 1647.0, 1646.0, 1647.0, 1650.0, 1652.0, 1651.0, 1648.0, 1650.0, 1652.0, 1653.0, 1652.0, 1653.0, 1655.0, 1655.0, 1654.0, 1652.0, 1652.0, 1651.0, 1647.0, 1649.0, 1648.0, 1648.0, 1649.0, 1648.0, 1649.0, 1647.0, 1649.0, 1651.0, 1651.0, 1652.0, 1654.0, 1654.0, 1654.0, 1652.0, 1652.0, 1649.0, 1650.0, 1651.0, 1652.0, 1643.0, 1656.0, 1647.0, 1649.0, 1648.0, 1651.0, 1653.0, 1651.0, 1651.0, 1649.0, 1648.0, 1646.0, 1649.0, 1650.0, 1650.0, 1650.0, 1651.0, 1651.0, 1651.0, 1651.0, 1650.0, 1650.0, 1650.0, 1650.0, 1648.0, 1647.0, 1647.0, 1651.0, 1652.0, 1651.0, 1654.0, 1654.0, 1656.0, 1655.0, 1655.0, 1654.0, 1653.0, 1652.0, 1652.0, 1652.0, 1653.0, 1653.0, 1650.0, 1650.0, 1647.0, 1649.0, 1649.0, 1645.0, 1645.0, 1645.0, 1644.0, 1641.0, 1639.0, 1638.0, 1637.0, 1641.0, 1646.0, 1647.0, 1648.0, 1646.0, 1647.0, 1650.0, 1651.0, 1648.0, 1645.0, 1644.0, 1644.0, 1646.0, 1646.0, 1644.0, 1645.0, 1646.0, 1647.0, 1646.0, 1645.0, 1645.0, 1647.0, 1647.0, 1644.0, 1645.0, 1644.0, 1643.0, 1641.0, 1639.0, 1640.0, 1643.0, 1645.0, 1645.0, 1644.0, 1642.0, 1641.0, 1641.0, 1641.0, 1645.0, 1645.0, 1644.0, 1646.0, 1648.0, 1647.0, 1645.0, 1644.0, 1645.0, 1645.0, 1647.0, 1646.0, 1646.0, 1644.0, 1641.0, 1642.0, 1643.0, 1647.0, 1648.0, 1647.0, 1647.0, 1645.0, 1643.0, 1642.0, 1645.0, 1648.0, 1647.0, 1643.0, 1642.0, 1641.0, 1644.0, 1646.0, 1644.0, 1642.0, 1644.0, 1640.0, 1641.0, 1640.0, 1640.0, 1641.0, 1641.0, 1643.0, 1645.0, 1646.0, 1644.0, 1646.0, 1645.0, 1645.0, 1648.0, 1648.0, 1647.0, 1648.0, 1647.0, 1646.0, 1645.0, 1645.0, 1644.0, 1644.0, 1644.0, 1644.0, 1644.0, 1643.0, 1644.0, 1644.0, 1645.0, 1648.0, 1648.0, 1649.0, 1649.0, 1649.0, 1650.0, 1651.0, 1651.0, 1650.0, 1650.0, 1652.0, 1650.0, 1649.0, 1644.0, 1646.0, 1650.0, 1652.0, 1651.0, 1649.0, 1647.0, 1646.0, 1644.0]
    },
    "slices": {}
  }
}