{
  "AcquisitionMatrixPE": 100,
  "AcquisitionNumber": 1,
  "AcquisitionTime": "17:55:10.310000",
  "BandwidthPerPixelPhaseEncode": 18.519,
  "BaseResolution": 100,
  "BodyPartExamined": "BRAIN",
  "ConsistencyInfo": "N4_VE11C_LATEST_20160120",
  "ConversionSoftware": "dcm2niix",
  "ConversionSoftwareVersion": "v1.0.20180622 GCC4.9.2",
  "DerivedVendorReportedEchoSpacing": 0.000539986,
  "DeviceSerialNumber": "166078",
  "DwellTime": 2.1e-06,
  "EchoTime": 0.034,
  "EchoTrainLength": 100,
  "EffectiveEchoSpacing": 0.000539986,
  "FlipAngle": 90,
  "ImageOrientationPatientDICOM": [1, 0, 0, 0, 1, 0],
  "ImageType": [
    "ORIGINAL",
    "PRIMARY",
    "M",
    "ND",
    "MOSAIC"
],
  "InPlanePhaseEncodingDirectionDICOM": "COL",
  "InstitutionAddress": "Street_StreetNo_Bei_Jing_District_CN_ZIP",
  "InstitutionName": "BeiJing_Normal_University",
  "InstitutionalDepartmentName": "Department",
  "MRAcquisitionType": "2D",
  "MagneticFieldStrength": 3,
  "Manufacturer": "Siemens",
  "ManufacturersModelName": "Prisma",
  "Modality": "MR",
  "MultibandAccelerationFactor": 3,
  "PartialFourier": 1,
  "PatientPosition": "HFS",
  "PercentPhaseFOV": 100,
  "PhaseEncodingDirection": "j-",
  "PhaseEncodingSteps": 100,
  "PhaseResolution": 1,
  "PixelBandwidth": 2380,
  "ProcedureStepDescription": "BNU_P2018_64CH_Liu.Jia",
  "ProtocolName": "bold_100x100_s3_2x2x2_232",
  "PulseSequenceDetails": "%SiemensSeq%_ep2d_bold",
  "ReceiveCoilActiveElements": "HC1-7;NC1",
  "ReceiveCoilName": "HeadNeck_64",
  "ReconMatrixPE": 100,
  "RepetitionTime": 2,
  "SAR": 0.0779112,
  "ScanOptions": "FS",
  "ScanningSequence": "EP",
  "SequenceName": "_epfid2d1_100",
  "SequenceVariant": "SK",
  "SeriesDescription": "bold_100x100_s3_2x2x2_232",
  "SeriesNumber": 10,
  "ShimSetting": [-5463, -11467, -1235, 372, 30, -143, -256, 40],
  "SliceThickness": 2,
  "SliceTiming": [1.485, 0, 0.99, 0.0825, 1.0725, 0.165, 1.155, 0.2475, 1.2375, 0.33, 1.32, 0.4125, 1.4025, 0.5775, 1.5675, 0.66, 1.65, 0.7425, 1.7325, 0.825, 1.815, 0.9075, 1.8975, 0.495, 1.485, 0, 0.99, 0.0825, 1.0725, 0.165, 1.155, 0.2475, 1.2375, 0.33, 1.32, 0.4125, 1.4025, 0.5775, 1.5675, 0.66, 1.65, 0.7425, 1.7325, 0.825, 1.815, 0.9075, 1.8975, 0.495, 1.485, 0, 0.99, 0.0825, 1.0725, 0.165, 1.155, 0.2475, 1.2375, 0.33, 1.32, 0.4125, 1.4025, 0.5775, 1.5675, 0.66, 1.65, 0.7425, 1.7325, 0.825, 1.815, 0.9075, 1.8975, 0.495],
  "SoftwareVersions": "syngo_MR_E11",
  "SpacingBetweenSlices": 2,
  "StationName": "AWP166078",
  "TaskName": "motor",
  "TotalReadoutTime": 0.0534586,
  "TxRefAmp": 231.814,
  "dcmmeta_affine": [
    [-2.0, 0.0, 0.0, 99.32530212402344],
    [0.0, 2.0, 0.0, -98.48674774169922],
    [0.0, 0.0, 2.0, -68.59036254882812],
    [0.0, 0.0, 0.0, 1.0]
],
  "dcmmeta_reorient_transform": [
    [0.0, -1.0, 0.0, 99.0],
    [1.0, 0.0, 0.0, 0.0],
    [0.0, 0.0, 1.0, 0.0],
    [0.0, 0.0, 0.0, 1.0]
],
  "dcmmeta_shape": [100, 100, 72, 232],
  "dcmmeta_slice_dim": 2,
  "dcmmeta_version": 0.6,
  "global": {
    "const": {
      "AcquisitionMatrix": [100, 0, 0, 100],
      "AngioFlag": "N",
      "BitsAllocated": 16,
      "BitsStored": 12,
      "BodyPartExamined": "BRAIN",
      "Columns": 900,
      "EchoNumbers": 1,
      "EchoTime": 34.0,
      "EchoTrainLength": 100,
      "FlipAngle": 90.0,
      "HighBit": 11,
      "ImageOrientationPatient": [1.0, 0.0, 0.0, 0.0, 1.0, 0.0],
      "ImagePositionPatient": [-899.32530122995, -899.51325300336, -68.590362548828],
      "ImageType": [
        "ORIGINAL",
        "PRIMARY",
        "M",
        "ND",
        "MOSAIC"
],
      "ImagedNucleus": "1H",
      "ImagingFrequency": 123.257826,
      "InPlanePhaseEncodingDirection": "COL",
      "MRAcquisitionType": "2D",
      "MagneticFieldStrength": 3.0,
      "Manufacturer": "SIEMENS",
      "ManufacturerModelName": "Prisma",
      "Modality": "MR",
      "NumberOfAverages": 1.0,
      "NumberOfPhaseEncodingSteps": 100,
      "PercentPhaseFieldOfView": 100.0,
      "PercentSampling": 100.0,
      "PerformedProcedureStepStartTime": "164957.957000",
      "PhotometricInterpretation": "MONOCHROME2",
      "PixelBandwidth": 2380.0,
      "PixelRepresentation": 0,
      "PixelSpacing": [2.0, 2.0],
      "ProtocolName": "bold_100x100_s3_2x2x2_232",
      "RepetitionTime": 2000.0,
      "Rows": 900,
      "SAR": 0.07791117140663,
      "SamplesPerPixel": 1,
      "ScanOptions": "FS",
      "ScanningSequence": "EP",
      "SequenceName": "*epfid2d1_100",
      "SequenceVariant": "SK",
      "SeriesDescription": "bold_100x100_s3_2x2x2_232",
      "SeriesNumber": 10,
      "SeriesTime": "175512.652000",
      "SliceLocation": -68.590362548828,
      "SliceThickness": 2.0,
      "SmallestImagePixelValue": 0,
      "SoftwareVersions": "syngo MR E11",
      "SpacingBetweenSlices": 2.0,
      "SpecificCharacterSet": "ISO_IR 100",
      "StudyID": "1",
      "StudyTime": "164957.828000",
      "TransmitCoilName": "Body",
      "VariableFlipAngleFlag": "N",
      "WindowCenterWidthExplanation": "Algo1",
      "dBdt": 0.0},
    "slices": {}
  },
  "time": {
    "samples": {
      "AcquisitionNumber": [1, 2, 3, 4, 5, 6, 7, 8, 9, 10, 11, 12, 13, 14, 15, 16, 17, 18, 19, 20, 21, 22, 23, 24, 25, 26, 27, 28, 29, 30, 31, 32, 33, 34, 35, 36, 37, 38, 39, 40, 41, 42, 43, 44, 45, 46, 47, 48, 49, 50, 51, 52, 53, 54, 55, 56, 57, 58, 59, 60, 61, 62, 63, 64, 65, 66, 67, 68, 69, 70, 71, 72, 73, 74, 75, 76, 77, 78, 79, 80, 81, 82, 83, 84, 85, 86, 87, 88, 89, 90, 91, 92, 93, 94, 95, 96, 97, 98, 99, 100, 101, 102, 103, 104, 105, 106, 107, 108, 109, 110, 111, 112, 113, 114, 115, 116, 117, 118, 119, 120, 121, 122, 123, 124, 125, 126, 127, 128, 129, 130, 131, 132, 133, 134, 135, 136, 137, 138, 139, 140, 141, 142, 143, 144, 145, 146, 147, 148, 149, 150, 151, 152, 153, 154, 155, 156, 157, 158, 159, 160, 161, 162, 163, 164, 165, 166, 167, 168, 169, 170, 171, 172, 173, 174, 175, 176, 177, 178, 179, 180, 181, 182, 183, 184, 185, 186, 187, 188, 189, 190, 191, 192, 193, 194, 195, 196, 197, 198, 199, 200, 201, 202, 203, 204, 205, 206, 207, 208, 209, 210, 211, 212, 213, 214, 215, 216, 217, 218, 219, 220, 221, 222, 223, 224, 225, 226, 227, 228, 229, 230, 231, 232],
      "AcquisitionTime": ["175510.310000", "175512.310000", "175514.310000", "175516.310000", "175518.310000", "175520.310000", "175522.310000", "175524.310000", "175526.310000", "175528.310000", "175530.310000", "175532.310000", "175534.310000", "175536.310000", "175538.310000", "175540.310000", "175542.310000", "175544.310000", "175546.310000", "175548.310000", "175550.310000", "175552.310000", "175554.310000", "175556.310000", "175558.310000", "175600.310000", "175602.310000", "175604.310000", "175606.310000", "175608.310000", "175610.310000", "175612.310000", "175614.310000", "175616.310000", "175618.310000", "175620.310000", "175622.310000", "175624.310000", "175626.310000", "175628.310000", "175630.310000", "175632.310000", "175634.310000", "175636.310000", "175638.310000", "175640.310000", "175642.310000", "175644.310000", "175646.310000", "175648.310000", "175650.310000", "175652.310000", "175654.310000", "175656.310000", "175658.310000", "175700.310000", "175702.310000", "175704.310000", "175706.310000", "175708.310000", "175710.310000", "175712.310000", "175714.310000", "175716.310000", "175718.310000", "175720.310000", "175722.310000", "175724.310000", "175726.310000", "175728.310000", "175730.310000", "175732.310000", "175734.310000", "175736.310000", "175738.310000", "175740.310000", "175742.310000", "175744.310000", "175746.310000", "175748.310000", "175750.310000", "175752.310000", "175754.310000", "175756.310000", "175758.310000", "175800.310000", "175802.310000", "175804.310000", "175806.310000", "175808.310000", "175810.310000", "175812.310000", "175814.310000", "175816.310000", "175818.310000", "175820.310000", "175822.310000", "175824.310000", "175826.310000", "175828.310000", "175830.310000", "175832.310000", "175834.310000", "175836.310000", "175838.310000", "175840.310000", "175842.310000", "175844.310000", "175846.310000", "175848.310000", "175850.310000", "175852.310000", "175854.310000", "175856.310000", "175858.310000", "175900.310000", "175902.310000", "175904.310000", "175906.310000", "175908.310000", "175910.310000", "175912.310000", "175914.310000", "175916.310000", "175918.310000", "175920.310000", "175922.310000", "175924.310000", "175926.310000", "175928.310000", "175930.310000", "175932.310000", "175934.310000", "175936.310000", "175938.310000", "175940.310000", "175942.310000", "175944.310000", "175946.310000", "175948.310000", "175950.310000", "175952.310000", "175954.310000", "175956.310000", "175958.310000", "180000.310000", "180002.310000", "180004.310000", "180006.310000", "180008.310000", "180010.310000", "180012.310000", "180014.310000", "180016.310000", "180018.310000", "180020.310000", "180022.310000", "180024.310000", "180026.310000", "180028.310000", "180030.310000", "180032.310000", "180034.310000", "180036.310000", "180038.310000", "180040.310000", "180042.310000", "180044.310000", "180046.310000", "180048.310000", "180050.310000", "180052.310000", "180054.310000", "180056.310000", "180058.310000", "180100.310000", "180102.310000", "180104.310000", "180106.310000", "180108.310000", "180110.310000", "180112.310000", "180114.310000", "180116.310000", "180118.310000", "180120.310000", "180122.310000", "180124.310000", "180126.310000", "180128.310000", "180130.310000", "180132.310000", "180134.310000", "180136.310000", "180138.310000", "180140.310000", "180142.310000", "180144.310000", "180146.310000", "180148.310000", "180150.310000", "180152.310000", "180154.310000", "180156.310000", "180158.310000", "180200.310000", "180202.310000", "180204.310000", "180206.310000", "180208.310000", "180210.310000", "180212.310000", "180214.310000", "180216.310000", "180218.310000", "180220.310000", "180222.310000", "180224.310000", "180226.310000", "180228.310000", "180230.310000", "180232.310000", "180234.310000", "180236.310000", "180238.310000", "180240.310000", "180242.310000", "180244.310000", "180246.310000", "180248.310000", "180250.310000", "180252.310000"],
      "ContentTime": ["175512.655000", "175514.152000", "175516.150000", "175518.150000", "175520.150000", "175522.150000", "175524.150000", "175526.151000", "175528.152000", "175530.151000", "175532.151000", "175534.151000", "175536.150000", "175538.150000", "175540.150000", "175542.150000", "175544.151000", "175546.151000", "175548.151000", "175550.151000", "175552.151000", "175554.150000", "175556.150000", "175558.150000", "175600.151000", "175602.151000", "175604.152000", "175606.152000", "175608.151000", "175610.150000", "175612.150000", "175614.150000", "175616.150000", "175618.151000", "175620.151000", "175622.151000", "175624.151000", "175626.150000", "175628.150000", "175630.150000", "175632.150000", "175634.150000", "175636.151000", "175638.151000", "175640.151000", "175642.152000", "175644.150000", "175646.151000", "175648.150000", "175650.150000", "175652.150000", "175654.151000", "175656.151000", "175658.151000", "175700.152000", "175702.150000", "175704.150000", "175706.150000", "175708.150000", "175710.151000", "175712.151000", "175714.151000", "175716.151000", "175718.152000", "175720.150000", "175722.150000", "175724.150000", "175726.150000", "175728.151000", "175730.151000", "175732.151000", "175734.151000", "175736.151000", "175738.150000", "175740.150000", "175742.150000", "175744.151000", "175746.151000", "175748.151000", "175750.151000", "175752.151000", "175754.150000", "175756.151000", "175758.151000", "175800.150000", "175802.150000", "175804.151000", "175806.151000", "175808.151000", "175810.151000", "175812.151000", "175814.150000", "175816.150000", "175818.151000", "175820.151000", "175822.152000", "175824.151000", "175826.151000", "175828.151000", "175830.150000", "175832.150000", "175834.150000", "175836.150000", "175838.151000", "175840.151000", "175842.152000", "175844.152000", "175846.150000", "175848.151000", "175850.150000", "175852.150000", "175854.150000", "175856.151000", "175858.151000", "175900.151000", "175902.151000", "175904.151000", "175906.150000", "175908.151000", "175910.151000", "175912.151000", "175914.152000", "175916.152000", "175918.151000", "175920.151000", "175922.151000", "175924.150000", "175926.150000", "175928.150000", "175930.152000", "175932.151000", "175934.151000", "175936.151000", "175938.151000", "175940.151000", "175942.150000", "175944.151000", "175946.150000", "175948.151000", "175950.151000", "175952.151000", "175954.151000", "175956.150000", "175958.150000", "180000.150000", "180002.150000", "180004.150000", "180006.152000", "180008.151000", "180010.151000", "180012.151000", "180014.150000", "180016.151000", "180018.150000", "180020.150000", "180022.152000", "180024.151000", "180026.151000", "180028.151000", "180030.151000", "180032.150000", "180034.150000", "180036.150000", "180038.150000", "180040.151000", "180042.152000", "180044.151000", "180046.151000", "180048.151000", "180050.150000", "180052.150000", "180054.150000", "180056.150000", "180058.151000", "180100.152000", "180102.151000", "180104.151000", "180106.150000", "180108.151000", "180110.150000", "180112.150000", "180114.150000", "180116.151000", "180118.151000", "180120.151000", "180122.151000", "180124.150000", "180126.151000", "180128.151000", "180130.150000", "180132.151000", "180134.152000", "180136.151000", "180138.151000", "180140.151000", "180142.150000", "180144.150000", "180146.151000", "180148.151000", "180150.152000", "180152.151000", "180154.151000", "180156.151000", "180158.151000", "180200.151000", "180202.150000", "180204.150000", "180206.150000", "180208.151000", "180210.151000", "180212.151000", "180214.151000", "180216.150000", "180218.150000", "180220.151000", "180222.151000", "180224.150000", "180226.151000", "180228.152000", "180230.151000", "180232.151000", "180234.151000", "180236.150000", "180238.150000", "180240.150000", "180242.151000", "180244.152000", "180246.151000", "180248.152000", "180250.151000", "180252.150000", "180253.932000"],
      "InstanceCreationTime": ["175512.655000", "175514.152000", "175516.150000", "175518.150000", "175520.150000", "175522.150000", "175524.150000", "175526.151000", "175528.152000", "175530.151000", "175532.151000", "175534.151000", "175536.150000", "175538.150000", "175540.150000", "175542.150000", "175544.151000", "175546.151000", "175548.151000", "175550.151000", "175552.151000", "175554.150000", "175556.150000", "175558.150000", "175600.151000", "175602.151000", "175604.152000", "175606.152000", "175608.151000", "175610.150000", "175612.150000", "175614.150000", "175616.150000", "175618.151000", "175620.151000", "175622.151000", "175624.151000", "175626.150000", "175628.150000", "175630.150000", "175632.150000", "175634.150000", "175636.151000", "175638.151000", "175640.151000", "175642.152000", "175644.150000", "175646.151000", "175648.150000", "175650.150000", "175652.150000", "175654.151000", "175656.151000", "175658.151000", "175700.152000", "175702.150000", "175704.150000", "175706.150000", "175708.150000", "175710.151000", "175712.151000", "175714.151000", "175716.151000", "175718.152000", "175720.150000", "175722.150000", "175724.150000", "175726.150000", "175728.151000", "175730.151000", "175732.151000", "175734.151000", "175736.151000", "175738.150000", "175740.150000", "175742.150000", "175744.151000", "175746.151000", "175748.151000", "175750.151000", "175752.151000", "175754.150000", "175756.151000", "175758.151000", "175800.150000", "175802.150000", "175804.151000", "175806.151000", "175808.151000", "175810.151000", "175812.151000", "175814.150000", "175816.150000", "175818.151000", "175820.151000", "175822.152000", "175824.151000", "175826.151000", "175828.151000", "175830.150000", "175832.150000", "175834.150000", "175836.150000", "175838.151000", "175840.151000", "175842.152000", "175844.152000", "175846.150000", "175848.151000", "175850.150000", "175852.150000", "175854.150000", "175856.151000", "175858.151000", "175900.151000", "175902.151000", "175904.151000", "175906.150000", "175908.151000", "175910.151000", "175912.151000", "175914.152000", "175916.152000", "175918.151000", "175920.151000", "175922.151000", "175924.150000", "175926.150000", "175928.150000", "175930.152000", "175932.151000", "175934.151000", "175936.151000", "175938.151000", "175940.151000", "175942.150000", "175944.151000", "175946.150000", "175948.151000", "175950.151000", "175952.151000", "175954.151000", "175956.150000", "175958.150000", "180000.150000", "180002.150000", "180004.150000", "180006.152000", "180008.151000", "180010.151000", "180012.151000", "180014.150000", "180016.151000", "180018.150000", "180020.150000", "180022.152000", "180024.151000", "180026.151000", "180028.151000", "180030.151000", "180032.150000", "180034.150000", "180036.150000", "180038.150000", "180040.151000", "180042.152000", "180044.151000", "180046.151000", "180048.151000", "180050.150000", "180052.150000", "180054.150000", "180056.150000", "180058.151000", "180100.152000", "180102.151000", "180104.151000", "180106.150000", "180108.151000", "180110.150000", "180112.150000", "180114.150000", "180116.151000", "180118.151000", "180120.151000", "180122.151000", "180124.150000", "180126.151000", "180128.151000", "180130.150000", "180132.151000", "180134.152000", "180136.151000", "180138.151000", "180140.151000", "180142.150000", "180144.150000", "180146.151000", "180148.151000", "180150.152000", "180152.151000", "180154.151000", "180156.151000", "180158.151000", "180200.151000", "180202.150000", "180204.150000", "180206.150000", "180208.151000", "180210.151000", "180212.151000", "180214.151000", "180216.150000", "180218.150000", "180220.151000", "180222.151000", "180224.150000", "180226.151000", "180228.152000", "180230.151000", "180232.151000", "180234.151000", "180236.150000", "180238.150000", "180240.150000", "180242.151000", "180244.152000", "180246.151000", "180248.152000", "180250.151000", "180252.150000", "180253.932000"],
      "InstanceNumber": [1, 2, 3, 4, 5, 6, 7, 8, 9, 10, 11, 12, 13, 14, 15, 16, 17, 18, 19, 20, 21, 22, 23, 24, 25, 26, 27, 28, 29, 30, 31, 32, 33, 34, 35, 36, 37, 38, 39, 40, 41, 42, 43, 44, 45, 46, 47, 48, 49, 50, 51, 52, 53, 54, 55, 56, 57, 58, 59, 60, 61, 62, 63, 64, 65, 66, 67, 68, 69, 70, 71, 72, 73, 74, 75, 76, 77, 78, 79, 80, 81, 82, 83, 84, 85, 86, 87, 88, 89, 90, 91, 92, 93, 94, 95, 96, 97, 98, 99, 100, 101, 102, 103, 104, 105, 106, 107, 108, 109, 110, 111, 112, 113, 114, 115, 116, 117, 118, 119, 120, 121, 122, 123, 124, 125, 126, 127, 128, 129, 130, 131, 132, 133, 134, 135, 136, 137, 138, 139, 140, 141, 142, 143, 144, 145, 146, 147, 148, 149, 150, 151, 152, 153, 154, 155, 156, 157, 158, 159, 160, 161, 162, 163, 164, 165, 166, 167, 168, 169, 170, 171, 172, 173, 174, 175, 176, 177, 178, 179, 180, 181, 182, 183, 184, 185, 186, 187, 188, 189, 190, 191, 192, 193, 194, 195, 196, 197, 198, 199, 200, 201, 202, 203, 204, 205, 206, 207, 208, 209, 210, 211, 212, 213, 214, 215, 216, 217, 218, 219, 220, 221, 222, 223, 224, 225, 226, 227, 228, 229, 230, 231, 232],
      "LargestImagePixelValue": [3549, 3468, 3459, 3464, 3474, 3468, 3456, 3444, 3458, 3440, 3482, 3453, 3476, 3471, 3462, 3443, 3471, 3538, 3507, 3532, 3476, 3572, 3467, 3528, 3465, 3457, 3473, 3454, 3469, 3496, 3501, 3501, 3556, 3511, 3513, 3544, 3529, 3533, 3525, 3521, 3551, 3510, 3526, 3531, 3527, 3527, 3504, 3528, 3507, 3547, 3531, 3518, 3509, 3512, 3456, 3536, 3524, 3459, 3487, 3507, 3492, 3506, 3511, 3502, 3506, 3463, 3489, 3531, 3524, 3499, 3504, 3488, 3596, 3664, 3526, 3513, 3440, 3497, 3445, 3579, 3502, 3491, 3466, 3497, 3496, 3511, 3507, 3539, 3511, 3540, 3549, 3548, 3550, 3577, 3552, 3559, 3581, 3580, 3546, 3541, 3576, 3520, 3565, 3564, 3550, 3561, 3545, 3563, 3601, 3606, 3570, 3578, 3618, 3606, 3622, 3603, 3639, 3618, 3633, 3626, 3614, 3619, 3646, 3625, 3612, 3599, 3623, 3597, 3606, 3624, 3631, 3643, 3599, 3607, 3618, 3624, 3610, 3623, 3626, 3610, 3599, 3617, 3609, 3606, 3606, 3582, 3588, 3577, 3593, 3637, 3653, 3641, 3649, 3614, 3579, 3565, 3586, 3563, 3621, 3517, 3535, 3495, 3546, 3530, 3527, 3538, 3535, 3498, 3570, 3584, 3554, 3575, 3571, 3556, 3529, 3543, 3520, 3465, 3480, 3426, 3412, 3435, 3445, 3480, 3560, 3526, 3501, 3496, 3515, 3466, 3506, 3481, 3484, 3462, 3448, 3427, 3463, 3467, 3468, 3484, 3473, 3501, 3492, 3517, 3502, 3502, 3519, 3500, 3489, 3612, 3512, 3559, 3569, 3543, 3594, 3504, 3475, 3441, 3489, 3476, 3451, 3459, 3473, 3476, 3489, 3482, 3493, 3503, 3516, 3505, 3496, 3499],
      "WindowCenter": [777.0, 775.0, 775.0, 775.0, 775.0, 775.0, 775.0, 775.0, 776.0, 775.0, 775.0, 775.0, 774.0, 774.0, 774.0, 775.0, 775.0, 776.0, 777.0, 777.0, 776.0, 778.0, 776.0, 777.0, 775.0, 776.0, 777.0, 777.0, 776.0, 777.0, 778.0, 778.0, 777.0, 777.0, 777.0, 777.0, 776.0, 775.0, 775.0, 776.0, 777.0, 776.0, 776.0, 776.0, 775.0, 774.0, 774.0, 774.0, 774.0, 774.0, 775.0, 776.0, 776.0, 775.0, 775.0, 775.0, 775.0, 775.0, 775.0, 774.0, 775.0, 775.0, 776.0, 776.0, 774.0, 773.0, 777.0, 778.0, 777.0, 777.0, 776.0, 777.0, 777.0, 778.0, 776.0, 776.0, 775.0, 774.0, 774.0, 776.0, 776.0, 776.0, 776.0, 776.0, 778.0, 779.0, 779.0, 779.0, 779.0, 778.0, 777.0, 777.0, 777.0, 778.0, 778.0, 778.0, 778.0, 776.0, 776.0, 776.0, 776.0, 775.0, 775.0, 774.0, 774.0, 775.0, 776.0, 775.0, 776.0, 776.0, 776.0, 775.0, 775.0, 775.0, 775.0, 775.0, 775.0, 775.0, 776.0, 776.0, 775.0, 775.0, 777.0, 779.0, 778.0, 777.0, 777.0, 776.0, 777.0, 776.0, 777.0, 777.0, 778.0, 777.0, 777.0, 776.0, 777.0, 778.0, 778.0, 777.0, 776.0, 776.0, 777.0, 777.0, 778.0, 778.0, 779.0, 779.0, 778.0, 777.0, 776.0, 776.0, 775.0, 776.0, 777.0, 777.0, 777.0, 776.0, 776.0, 775.0, 774.0, 775.0, 778.0, 778.0, 777.0, 777.0, 777.0, 776.0, 777.0, 777.0, 777.0, 777.0, 776.0, 775.0, 774.0, 775.0, 775.0, 775.0, 776.0, 775.0, 776.0, 776.0, 773.0, 773.0, 774.0, 775.0, 775.0, 775.0, 775.0, 775.0, 775.0, 775.0, 775.0, 775.0, 774.0, 773.0, 773.0, 774.0, 774.0, 775.0, 776.0, 776.0, 776.0, 775.0, 775.0, 775.0, 774.0, 774.0, 774.0, 776.0, 776.0, 777.0, 776.0, 775.0, 776.0, 775.0, 775.0, 775.0, 775.0, 776.0, 778.0, 778.0, 776.0, 775.0, 775.0, 776.0, 778.0, 778.0, 777.0, 776.0, 775.0, 775.0],
      "WindowWidth": [1693.0, 1687.0, 1687.0, 1687.0, 1687.0, 1687.0, 1688.0, 1690.0, 1691.0, 1688.0, 1688.0, 1688.0, 1687.0, 1686.0, 1686.0, 1687.0, 1688.0, 1691.0, 1694.0, 1694.0, 1691.0, 1696.0, 1691.0, 1693.0, 1689.0, 1691.0, 1693.0, 1693.0, 1692.0, 1693.0, 1696.0, 1698.0, 1695.0, 1693.0, 1695.0, 1695.0, 1691.0, 1688.0, 1689.0, 1691.0, 1693.0, 1690.0, 1690.0, 1690.0, 1688.0, 1686.0, 1685.0, 1686.0, 1685.0, 1686.0, 1689.0, 1690.0, 1690.0, 1688.0, 1687.0, 1687.0, 1688.0, 1687.0, 1686.0, 1686.0, 1688.0, 1688.0, 1691.0, 1689.0, 1684.0, 1683.0, 1693.0, 1696.0, 1694.0, 1693.0, 1691.0, 1692.0, 1694.0, 1696.0, 1690.0, 1691.0, 1688.0, 1686.0, 1685.0, 1691.0, 1691.0, 1692.0, 1691.0, 1692.0, 1696.0, 1700.0, 1700.0, 1699.0, 1698.0, 1697.0, 1694.0, 1693.0, 1694.0, 1695.0, 1697.0, 1697.0, 1695.0, 1692.0, 1692.0, 1691.0, 1692.0, 1689.0, 1687.0, 1686.0, 1687.0, 1688.0, 1690.0, 1689.0, 1690.0, 1690.0, 1690.0, 1689.0, 1689.0, 1688.0, 1689.0, 1687.0, 1687.0, 1687.0, 1690.0, 1690.0, 1689.0, 1687.0, 1694.0, 1700.0, 1697.0, 1695.0, 1693.0, 1691.0, 1693.0, 1691.0, 1692.0, 1694.0, 1695.0, 1695.0, 1694.0, 1692.0, 1694.0, 1696.0, 1696.0, 1693.0, 1691.0, 1692.0, 1693.0, 1694.0, 1696.0, 1697.0, 1698.0, 1698.0, 1695.0, 1694.0, 1692.0, 1689.0, 1689.0, 1690.0, 1695.0, 1694.0, 1693.0, 1690.0, 1691.0, 1687.0, 1686.0, 1688.0, 1695.0, 1696.0, 1694.0, 1692.0, 1692.0, 1691.0, 1694.0, 1694.0, 1693.0, 1693.0, 1691.0, 1688.0, 1686.0, 1687.0, 1689.0, 1689.0, 1690.0, 1689.0, 1691.0, 1690.0, 1683.0, 1683.0, 1686.0, 1688.0, 1688.0, 1687.0, 1687.0, 1687.0, 1688.0, 1687.0, 1688.0, 1687.0, 1686.0, 1683.0, 1683.0, 1684.0, 1686.0, 1687.0, 1691.0, 1690.0, 1689.0, 1687.0, 1687.0, 1687.0, 1685.0, 1683.0, 1684.0, 1690.0, 1691.0, 1692.0, 1690.0, 1687.0, 1690.0, 1687.0, 1687.0, 1687.0, 1688.0, 1691.0, 1695.0, 1696.0, 1690.0, 1686.0, 1688.0, 1691.0, 1696.0, 1696.0, 1693.0, 1690.0, 1688.0, 1689.0]
    },
    "slices": {}
  }
}