{
  "AcquisitionMatrixPE": 100,
  "AcquisitionNumber": 1,
  "AcquisitionTime": "17:37:34.135000",
  "BandwidthPerPixelPhaseEncode": 18.519,
  "BaseResolution": 100,
  "BodyPartExamined": "BRAIN",
  "ConsistencyInfo": "N4_VE11C_LATEST_20160120",
  "ConversionSoftware": "dcm2niix",
  "ConversionSoftwareVersion": "v1.0.20180622 GCC4.9.2",
  "DerivedVendorReportedEchoSpacing": 0.000539986,
  "DeviceSerialNumber": "166078",
  "DwellTime": 2.1e-06,
  "EchoTime": 0.034,
  "EchoTrainLength": 100,
  "EffectiveEchoSpacing": 0.000539986,
  "FlipAngle": 90,
  "ImageOrientationPatientDICOM": [1, 0, 0, 0, 1, 0],
  "ImageType": [
    "ORIGINAL",
    "PRIMARY",
    "M",
    "ND",
    "MOSAIC"
],
  "InPlanePhaseEncodingDirectionDICOM": "COL",
  "InstitutionAddress": "Street_StreetNo_Bei_Jing_District_CN_ZIP",
  "InstitutionName": "BeiJing_Normal_University",
  "InstitutionalDepartmentName": "Department",
  "MRAcquisitionType": "2D",
  "MagneticFieldStrength": 3,
  "Manufacturer": "Siemens",
  "ManufacturersModelName": "Prisma",
  "Modality": "MR",
  "MultibandAccelerationFactor": 3,
  "PartialFourier": 1,
  "PatientPosition": "HFS",
  "PercentPhaseFOV": 100,
  "PhaseEncodingDirection": "j-",
  "PhaseEncodingSteps": 100,
  "PhaseResolution": 1,
  "PixelBandwidth": 2380,
  "ProcedureStepDescription": "BNU_P2018_64CH_Liu.Jia",
  "ProtocolName": "bold_100x100_s3_2x2x2_232",
  "PulseSequenceDetails": "%SiemensSeq%_ep2d_bold",
  "ReceiveCoilActiveElements": "HC1-7;NC1",
  "ReceiveCoilName": "HeadNeck_64",
  "ReconMatrixPE": 100,
  "RepetitionTime": 2,
  "SAR": 0.0779112,
  "ScanOptions": "FS",
  "ScanningSequence": "EP",
  "SequenceName": "_epfid2d1_100",
  "SequenceVariant": "SK",
  "SeriesDescription": "bold_100x100_s3_2x2x2_232",
  "SeriesNumber": 8,
  "ShimSetting": [-5463, -11467, -1235, 372, 30, -143, -256, 40],
  "SliceThickness": 2,
  "SliceTiming": [1.485, 0, 0.99, 0.0825, 1.0725, 0.165, 1.155, 0.2475, 1.2375, 0.33, 1.32, 0.4125, 1.4025, 0.5775, 1.5675, 0.66, 1.65, 0.7425, 1.7325, 0.825, 1.815, 0.9075, 1.8975, 0.495, 1.485, 0, 0.99, 0.0825, 1.0725, 0.165, 1.155, 0.2475, 1.2375, 0.33, 1.32, 0.4125, 1.4025, 0.5775, 1.5675, 0.66, 1.65, 0.7425, 1.7325, 0.825, 1.815, 0.9075, 1.8975, 0.495, 1.485, 0, 0.99, 0.0825, 1.0725, 0.165, 1.155, 0.2475, 1.2375, 0.33, 1.32, 0.4125, 1.4025, 0.5775, 1.5675, 0.66, 1.65, 0.7425, 1.7325, 0.825, 1.815, 0.9075, 1.8975, 0.495],
  "SoftwareVersions": "syngo_MR_E11",
  "SpacingBetweenSlices": 2,
  "StationName": "AWP166078",
  "TaskName": "motor",
  "TotalReadoutTime": 0.0534586,
  "TxRefAmp": 231.814,
  "dcmmeta_affine": [
    [-2.0, 0.0, 0.0, 99.32530212402344],
    [0.0, 2.0, 0.0, -98.48674774169922],
    [0.0, 0.0, 2.0, -68.59036254882812],
    [0.0, 0.0, 0.0, 1.0]
],
  "dcmmeta_reorient_transform": [
    [0.0, -1.0, 0.0, 99.0],
    [1.0, 0.0, 0.0, 0.0],
    [0.0, 0.0, 1.0, 0.0],
    [0.0, 0.0, 0.0, 1.0]
],
  "dcmmeta_shape": [100, 100, 72, 232],
  "dcmmeta_slice_dim": 2,
  "dcmmeta_version": 0.6,
  "global": {
    "const": {
      "AcquisitionMatrix": [100, 0, 0, 100],
      "AngioFlag": "N",
      "BitsAllocated": 16,
      "BitsStored": 12,
      "BodyPartExamined": "BRAIN",
      "Columns": 900,
      "EchoNumbers": 1,
      "EchoTime": 34.0,
      "EchoTrainLength": 100,
      "FlipAngle": 90.0,
      "HighBit": 11,
      "ImageOrientationPatient": [1.0, 0.0, 0.0, 0.0, 1.0, 0.0],
      "ImagePositionPatient": [-899.32530122995, -899.51325300336, -68.590362548828],
      "ImageType": [
        "ORIGINAL",
        "PRIMARY",
        "M",
        "ND",
        "MOSAIC"
],
      "ImagedNucleus": "1H",
      "ImagingFrequency": 123.257813,
      "InPlanePhaseEncodingDirection": "COL",
      "MRAcquisitionType": "2D",
      "MagneticFieldStrength": 3.0,
      "Manufacturer": "SIEMENS",
      "ManufacturerModelName": "Prisma",
      "Modality": "MR",
      "NumberOfAverages": 1.0,
      "NumberOfPhaseEncodingSteps": 100,
      "PercentPhaseFieldOfView": 100.0,
      "PercentSampling": 100.0,
      "PerformedProcedureStepStartTime": "164957.957000",
      "PhotometricInterpretation": "MONOCHROME2",
      "PixelBandwidth": 2380.0,
      "PixelRepresentation": 0,
      "PixelSpacing": [2.0, 2.0],
      "ProtocolName": "bold_100x100_s3_2x2x2_232",
      "RepetitionTime": 2000.0,
      "Rows": 900,
      "SAR": 0.07791117140663,
      "SamplesPerPixel": 1,
      "ScanOptions": "FS",
      "ScanningSequence": "EP",
      "SequenceName": "*epfid2d1_100",
      "SequenceVariant": "SK",
      "SeriesDescription": "bold_100x100_s3_2x2x2_232",
      "SeriesNumber": 8,
      "SeriesTime": "173736.309000",
      "SliceLocation": -68.590362548828,
      "SliceThickness": 2.0,
      "SmallestImagePixelValue": 0,
      "SoftwareVersions": "syngo MR E11",
      "SpacingBetweenSlices": 2.0,
      "SpecificCharacterSet": "ISO_IR 100",
      "StudyID": "1",
      "StudyTime": "164957.828000",
      "TransmitCoilName": "Body",
      "VariableFlipAngleFlag": "N",
      "WindowCenterWidthExplanation": "Algo1",
      "dBdt": 0.0},
    "slices": {}
  },
  "time": {
    "samples": {
      "AcquisitionNumber": [1, 2, 3, 4, 5, 6, 7, 8, 9, 10, 11, 12, 13, 14, 15, 16, 17, 18, 19, 20, 21, 22, 23, 24, 25, 26, 27, 28, 29, 30, 31, 32, 33, 34, 35, 36, 37, 38, 39, 40, 41, 42, 43, 44, 45, 46, 47, 48, 49, 50, 51, 52, 53, 54, 55, 56, 57, 58, 59, 60, 61, 62, 63, 64, 65, 66, 67, 68, 69, 70, 71, 72, 73, 74, 75, 76, 77, 78, 79, 80, 81, 82, 83, 84, 85, 86, 87, 88, 89, 90, 91, 92, 93, 94, 95, 96, 97, 98, 99, 100, 101, 102, 103, 104, 105, 106, 107, 108, 109, 110, 111, 112, 113, 114, 115, 116, 117, 118, 119, 120, 121, 122, 123, 124, 125, 126, 127, 128, 129, 130, 131, 132, 133, 134, 135, 136, 137, 138, 139, 140, 141, 142, 143, 144, 145, 146, 147, 148, 149, 150, 151, 152, 153, 154, 155, 156, 157, 158, 159, 160, 161, 162, 163, 164, 165, 166, 167, 168, 169, 170, 171, 172, 173, 174, 175, 176, 177, 178, 179, 180, 181, 182, 183, 184, 185, 186, 187, 188, 189, 190, 191, 192, 193, 194, 195, 196, 197, 198, 199, 200, 201, 202, 203, 204, 205, 206, 207, 208, 209, 210, 211, 212, 213, 214, 215, 216, 217, 218, 219, 220, 221, 222, 223, 224, 225, 226, 227, 228, 229, 230, 231, 232],
      "AcquisitionTime": ["173734.135000", "173736.135000", "173738.135000", "173740.135000", "173742.135000", "173744.135000", "173746.135000", "173748.135000", "173750.135000", "173752.135000", "173754.135000", "173756.135000", "173758.135000", "173800.135000", "173802.135000", "173804.135000", "173806.135000", "173808.135000", "173810.135000", "173812.135000", "173814.135000", "173816.135000", "173818.135000", "173820.135000", "173822.135000", "173824.135000", "173826.135000", "173828.135000", "173830.135000", "173832.135000", "173834.135000", "173836.135000", "173838.135000", "173840.135000", "173842.135000", "173844.135000", "173846.135000", "173848.135000", "173850.135000", "173852.135000", "173854.135000", "173856.135000", "173858.135000", "173900.135000", "173902.135000", "173904.135000", "173906.135000", "173908.135000", "173910.135000", "173912.135000", "173914.135000", "173916.135000", "173918.135000", "173920.135000", "173922.135000", "173924.135000", "173926.135000", "173928.135000", "173930.135000", "173932.135000", "173934.135000", "173936.135000", "173938.135000", "173940.135000", "173942.135000", "173944.135000", "173946.135000", "173948.135000", "173950.135000", "173952.135000", "173954.135000", "173956.135000", "173958.135000", "174000.135000", "174002.135000", "174004.135000", "174006.135000", "174008.135000", "174010.135000", "174012.135000", "174014.135000", "174016.135000", "174018.135000", "174020.135000", "174022.135000", "174024.135000", "174026.135000", "174028.135000", "174030.135000", "174032.135000", "174034.135000", "174036.135000", "174038.135000", "174040.135000", "174042.135000", "174044.135000", "174046.135000", "174048.135000", "174050.135000", "174052.135000", "174054.135000", "174056.135000", "174058.135000", "174100.135000", "174102.135000", "174104.135000", "174106.135000", "174108.135000", "174110.135000", "174112.135000", "174114.135000", "174116.135000", "174118.135000", "174120.135000", "174122.135000", "174124.135000", "174126.135000", "174128.135000", "174130.135000", "174132.135000", "174134.135000", "174136.135000", "174138.135000", "174140.135000", "174142.135000", "174144.135000", "174146.135000", "174148.135000", "174150.135000", "174152.135000", "174154.135000", "174156.135000", "174158.135000", "174200.135000", "174202.135000", "174204.135000", "174206.135000", "174208.135000", "174210.135000", "174212.135000", "174214.135000", "174216.135000", "174218.135000", "174220.135000", "174222.135000", "174224.135000", "174226.135000", "174228.135000", "174230.135000", "174232.135000", "174234.135000", "174236.135000", "174238.135000", "174240.135000", "174242.135000", "174244.135000", "174246.135000", "174248.135000", "174250.135000", "174252.135000", "174254.135000", "174256.135000", "174258.135000", "174300.135000", "174302.135000", "174304.135000", "174306.135000", "174308.135000", "174310.135000", "174312.135000", "174314.135000", "174316.135000", "174318.135000", "174320.135000", "174322.135000", "174324.135000", "174326.135000", "174328.135000", "174330.135000", "174332.135000", "174334.135000", "174336.135000", "174338.135000", "174340.135000", "174342.135000", "174344.135000", "174346.135000", "174348.135000", "174350.135000", "174352.135000", "174354.135000", "174356.135000", "174358.135000", "174400.135000", "174402.135000", "174404.135000", "174406.135000", "174408.135000", "174410.135000", "174412.135000", "174414.135000", "174416.135000", "174418.135000", "174420.135000", "174422.135000", "174424.135000", "174426.135000", "174428.135000", "174430.135000", "174432.135000", "174434.135000", "174436.135000", "174438.135000", "174440.135000", "174442.135000", "174444.135000", "174446.135000", "174448.135000", "174450.135000", "174452.135000", "174454.135000", "174456.135000", "174458.135000", "174500.135000", "174502.135000", "174504.135000", "174506.135000", "174508.135000", "174510.135000", "174512.135000", "174514.135000", "174516.135000"],
      "ContentTime": ["173736.313000", "173737.807000", "173739.808000", "173741.808000", "173743.808000", "173745.808000", "173747.808000", "173749.808000", "173751.808000", "173753.808000", "173755.808000", "173757.808000", "173759.808000", "173801.808000", "173803.808000", "173805.808000", "173807.809000", "173809.808000", "173811.808000", "173813.808000", "173815.809000", "173817.808000", "173819.808000", "173821.808000", "173823.808000", "173825.809000", "173827.808000", "173829.808000", "173831.809000", "173833.808000", "173835.808000", "173837.809000", "173839.808000", "173841.808000", "173843.809000", "173845.809000", "173847.807000", "173849.808000", "173851.809000", "173853.809000", "173855.808000", "173857.808000", "173859.808000", "173901.809000", "173903.808000", "173905.808000", "173907.808000", "173909.808000", "173911.808000", "173913.808000", "173915.808000", "173917.808000", "173919.809000", "173921.809000", "173923.808000", "173925.809000", "173927.808000", "173929.808000", "173931.808000", "173933.808000", "173935.809000", "173937.808000", "173939.808000", "173941.808000", "173943.808000", "173945.808000", "173947.809000", "173949.808000", "173951.809000", "173953.808000", "173955.809000", "173957.808000", "173959.808000", "174001.808000", "174003.809000", "174005.808000", "174007.808000", "174009.808000", "174011.809000", "174013.808000", "174015.808000", "174017.809000", "174019.808000", "174021.809000", "174023.808000", "174025.808000", "174027.808000", "174029.808000", "174031.809000", "174033.809000", "174035.809000", "174037.808000", "174039.809000", "174041.808000", "174043.809000", "174045.809000", "174047.808000", "174049.808000", "174051.808000", "174053.809000", "174055.808000", "174057.808000", "174059.809000", "174101.808000", "174103.808000", "174105.808000", "174107.807000", "174109.808000", "174111.808000", "174113.808000", "174115.809000", "174117.809000", "174119.809000", "174121.808000", "174123.808000", "174125.808000", "174127.809000", "174129.809000", "174131.809000", "174133.808000", "174135.808000", "174137.808000", "174139.808000", "174141.808000", "174143.809000", "174145.808000", "174147.808000", "174149.809000", "174151.808000", "174153.808000", "174155.808000", "174157.808000", "174159.808000", "174201.809000", "174203.808000", "174205.809000", "174207.809000", "174209.808000", "174211.809000", "174213.808000", "174215.808000", "174217.807000", "174219.808000", "174221.809000", "174223.808000", "174225.809000", "174227.808000", "174229.808000", "174231.809000", "174233.808000", "174235.808000", "174237.809000", "174239.809000", "174241.809000", "174243.808000", "174245.808000", "174247.809000", "174249.808000", "174251.808000", "174253.808000", "174255.808000", "174257.808000", "174259.808000", "174301.809000", "174303.808000", "174305.824000", "174307.808000", "174309.808000", "174311.809000", "174313.808000", "174315.808000", "174317.809000", "174319.808000", "174321.808000", "174323.808000", "174325.808000", "174327.808000", "174329.808000", "174331.808000", "174333.808000", "174335.808000", "174337.808000", "174339.808000", "174341.808000", "174343.808000", "174345.808000", "174347.809000", "174349.808000", "174351.808000", "174353.808000", "174355.808000", "174357.808000", "174359.808000", "174401.808000", "174403.808000", "174405.808000", "174407.809000", "174409.808000", "174411.808000", "174413.808000", "174415.808000", "174417.809000", "174419.808000", "174421.809000", "174423.808000", "174425.808000", "174427.809000", "174429.808000", "174431.809000", "174433.808000", "174435.808000", "174437.807000", "174439.808000", "174441.809000", "174443.808000", "174445.808000", "174447.808000", "174449.809000", "174451.808000", "174453.808000", "174455.808000", "174457.809000", "174459.809000", "174501.809000", "174503.808000", "174505.808000", "174507.808000", "174509.808000", "174511.809000", "174513.808000", "174515.808000", "174517.447000"],
      "InstanceCreationTime": ["173736.313000", "173737.807000", "173739.808000", "173741.808000", "173743.808000", "173745.808000", "173747.808000", "173749.808000", "173751.808000", "173753.808000", "173755.808000", "173757.808000", "173759.808000", "173801.808000", "173803.808000", "173805.808000", "173807.809000", "173809.808000", "173811.808000", "173813.808000", "173815.809000", "173817.808000", "173819.808000", "173821.808000", "173823.808000", "173825.809000", "173827.808000", "173829.808000", "173831.809000", "173833.808000", "173835.808000", "173837.809000", "173839.808000", "173841.808000", "173843.809000", "173845.809000", "173847.807000", "173849.808000", "173851.809000", "173853.809000", "173855.808000", "173857.808000", "173859.808000", "173901.809000", "173903.808000", "173905.808000", "173907.808000", "173909.808000", "173911.808000", "173913.808000", "173915.808000", "173917.808000", "173919.809000", "173921.809000", "173923.808000", "173925.809000", "173927.808000", "173929.808000", "173931.808000", "173933.808000", "173935.809000", "173937.808000", "173939.808000", "173941.808000", "173943.808000", "173945.808000", "173947.809000", "173949.808000", "173951.809000", "173953.808000", "173955.809000", "173957.808000", "173959.808000", "174001.808000", "174003.809000", "174005.808000", "174007.808000", "174009.808000", "174011.809000", "174013.808000", "174015.808000", "174017.809000", "174019.808000", "174021.809000", "174023.808000", "174025.808000", "174027.808000", "174029.808000", "174031.809000", "174033.809000", "174035.809000", "174037.808000", "174039.809000", "174041.808000", "174043.809000", "174045.809000", "174047.808000", "174049.808000", "174051.808000", "174053.809000", "174055.808000", "174057.808000", "174059.809000", "174101.808000", "174103.808000", "174105.808000", "174107.807000", "174109.808000", "174111.808000", "174113.808000", "174115.809000", "174117.809000", "174119.809000", "174121.808000", "174123.808000", "174125.808000", "174127.809000", "174129.809000", "174131.809000", "174133.808000", "174135.808000", "174137.808000", "174139.808000", "174141.808000", "174143.809000", "174145.808000", "174147.808000", "174149.809000", "174151.808000", "174153.808000", "174155.808000", "174157.808000", "174159.808000", "174201.809000", "174203.808000", "174205.809000", "174207.809000", "174209.808000", "174211.809000", "174213.808000", "174215.808000", "174217.807000", "174219.808000", "174221.809000", "174223.808000", "174225.809000", "174227.808000", "174229.808000", "174231.809000", "174233.808000", "174235.808000", "174237.809000", "174239.809000", "174241.809000", "174243.808000", "174245.808000", "174247.809000", "174249.808000", "174251.808000", "174253.808000", "174255.808000", "174257.808000", "174259.808000", "174301.809000", "174303.808000", "174305.824000", "174307.808000", "174309.808000", "174311.809000", "174313.808000", "174315.808000", "174317.809000", "174319.808000", "174321.808000", "174323.808000", "174325.808000", "174327.808000", "174329.808000", "174331.808000", "174333.808000", "174335.808000", "174337.808000", "174339.808000", "174341.808000", "174343.808000", "174345.808000", "174347.809000", "174349.808000", "174351.808000", "174353.808000", "174355.808000", "174357.808000", "174359.808000", "174401.808000", "174403.808000", "174405.808000", "174407.809000", "174409.808000", "174411.808000", "174413.808000", "174415.808000", "174417.809000", "174419.808000", "174421.809000", "174423.808000", "174425.808000", "174427.809000", "174429.808000", "174431.809000", "174433.808000", "174435.808000", "174437.807000", "174439.808000", "174441.809000", "174443.808000", "174445.808000", "174447.808000", "174449.809000", "174451.808000", "174453.808000", "174455.808000", "174457.809000", "174459.809000", "174501.809000", "174503.808000", "174505.808000", "174507.808000", "174509.808000", "174511.809000", "174513.808000", "174515.808000", "174517.447000"],
      "InstanceNumber": [1, 2, 3, 4, 5, 6, 7, 8, 9, 10, 11, 12, 13, 14, 15, 16, 17, 18, 19, 20, 21, 22, 23, 24, 25, 26, 27, 28, 29, 30, 31, 32, 33, 34, 35, 36, 37, 38, 39, 40, 41, 42, 43, 44, 45, 46, 47, 48, 49, 50, 51, 52, 53, 54, 55, 56, 57, 58, 59, 60, 61, 62, 63, 64, 65, 66, 67, 68, 69, 70, 71, 72, 73, 74, 75, 76, 77, 78, 79, 80, 81, 82, 83, 84, 85, 86, 87, 88, 89, 90, 91, 92, 93, 94, 95, 96, 97, 98, 99, 100, 101, 102, 103, 104, 105, 106, 107, 108, 109, 110, 111, 112, 113, 114, 115, 116, 117, 118, 119, 120, 121, 122, 123, 124, 125, 126, 127, 128, 129, 130, 131, 132, 133, 134, 135, 136, 137, 138, 139, 140, 141, 142, 143, 144, 145, 146, 147, 148, 149, 150, 151, 152, 153, 154, 155, 156, 157, 158, 159, 160, 161, 162, 163, 164, 165, 166, 167, 168, 169, 170, 171, 172, 173, 174, 175, 176, 177, 178, 179, 180, 181, 182, 183, 184, 185, 186, 187, 188, 189, 190, 191, 192, 193, 194, 195, 196, 197, 198, 199, 200, 201, 202, 203, 204, 205, 206, 207, 208, 209, 210, 211, 212, 213, 214, 215, 216, 217, 218, 219, 220, 221, 222, 223, 224, 225, 226, 227, 228, 229, 230, 231, 232],
      "LargestImagePixelValue": [3661, 3621, 3595, 3607, 3597, 3610, 3575, 3541, 3538, 3570, 3546, 3557, 3580, 3609, 3595, 3619, 3611, 3508, 3539, 3580, 3608, 3618, 3661, 3659, 3635, 3599, 3638, 3505, 3650, 3640, 3617, 3546, 3677, 3644, 3617, 3615, 3587, 3585, 3667, 3663, 3609, 3665, 3605, 3627, 3609, 3580, 3606, 3617, 3565, 3602, 3603, 3594, 3568, 3583, 3569, 3597, 3557, 3607, 3592, 3634, 3605, 3608, 3606, 3573, 3631, 3598, 3559, 3554, 3566, 3564, 3552, 3515, 3557, 3549, 3546, 3562, 3531, 3540, 3553, 3536, 3550, 3546, 3532, 3561, 3527, 3561, 3541, 3515, 3503, 3502, 3529, 3489, 3498, 3532, 3483, 3496, 3508, 3469, 3426, 3470, 3467, 3443, 3493, 3570, 3502, 3620, 3625, 3582, 3669, 3621, 3651, 3628, 3615, 3608, 3554, 3578, 3593, 3566, 3623, 3595, 3592, 3575, 3643, 3524, 3597, 3608, 3628, 3671, 3562, 3487, 3475, 3459, 3459, 3541, 3473, 3413, 3562, 3572, 3603, 3577, 3584, 3586, 3613, 3621, 3582, 3572, 3601, 3565, 3572, 3598, 3570, 3582, 3597, 3579, 3551, 3539, 3570, 3584, 3544, 3572, 3555, 3522, 3509, 3524, 3489, 3512, 3509, 3489, 3490, 3490, 3498, 3553, 3519, 3511, 3503, 3527, 3524, 3513, 3518, 3504, 3522, 3506, 3521, 3517, 3504, 3545, 3538, 3531, 3521, 3535, 3519, 3518, 3549, 3539, 3547, 3532, 3507, 3505, 3526, 3553, 3580, 3555, 3512, 3562, 3570, 3514, 3625, 3536, 3480, 3439, 3462, 3498, 3534, 3526, 3502, 3538, 3552, 3526, 3512, 3538, 3544, 3541, 3525, 3556, 3552, 3505, 3538, 3555, 3561, 3553, 3534, 3541],
      "WindowCenter": [779.0, 777.0, 776.0, 776.0, 776.0, 776.0, 775.0, 774.0, 774.0, 776.0, 778.0, 779.0, 779.0, 778.0, 777.0, 777.0, 777.0, 776.0, 777.0, 778.0, 777.0, 777.0, 776.0, 777.0, 777.0, 775.0, 775.0, 774.0, 776.0, 775.0, 775.0, 772.0, 776.0, 776.0, 777.0, 778.0, 778.0, 777.0, 777.0, 777.0, 776.0, 776.0, 776.0, 777.0, 778.0, 777.0, 777.0, 777.0, 777.0, 778.0, 778.0, 778.0, 778.0, 777.0, 776.0, 776.0, 776.0, 777.0, 777.0, 776.0, 775.0, 775.0, 776.0, 777.0, 777.0, 777.0, 776.0, 776.0, 776.0, 776.0, 776.0, 776.0, 776.0, 776.0, 777.0, 777.0, 777.0, 777.0, 776.0, 775.0, 777.0, 779.0, 781.0, 780.0, 778.0, 778.0, 777.0, 776.0, 775.0, 775.0, 775.0, 775.0, 775.0, 777.0, 777.0, 776.0, 776.0, 776.0, 775.0, 776.0, 775.0, 775.0, 775.0, 777.0, 776.0, 776.0, 777.0, 775.0, 775.0, 774.0, 776.0, 776.0, 776.0, 777.0, 778.0, 777.0, 777.0, 778.0, 779.0, 777.0, 776.0, 775.0, 776.0, 777.0, 779.0, 778.0, 777.0, 778.0, 776.0, 775.0, 776.0, 776.0, 775.0, 776.0, 775.0, 774.0, 775.0, 774.0, 774.0, 774.0, 775.0, 775.0, 775.0, 775.0, 775.0, 776.0, 778.0, 779.0, 779.0, 779.0, 779.0, 777.0, 776.0, 776.0, 777.0, 777.0, 777.0, 776.0, 775.0, 776.0, 776.0, 775.0, 774.0, 774.0, 776.0, 777.0, 776.0, 776.0, 776.0, 777.0, 778.0, 777.0, 776.0, 775.0, 775.0, 775.0, 775.0, 776.0, 777.0, 775.0, 775.0, 775.0, 776.0, 775.0, 774.0, 774.0, 776.0, 777.0, 779.0, 778.0, 777.0, 776.0, 777.0, 779.0, 778.0, 776.0, 775.0, 775.0, 777.0, 777.0, 775.0, 775.0, 774.0, 773.0, 774.0, 776.0, 772.0, 775.0, 774.0, 773.0, 774.0, 776.0, 778.0, 778.0, 777.0, 777.0, 777.0, 776.0, 778.0, 778.0, 777.0, 776.0, 775.0, 776.0, 777.0, 776.0, 777.0, 775.0, 774.0, 774.0, 775.0, 776.0],
      "WindowWidth": [1699.0, 1694.0, 1692.0, 1691.0, 1691.0, 1689.0, 1687.0, 1685.0, 1686.0, 1690.0, 1696.0, 1700.0, 1699.0, 1696.0, 1693.0, 1694.0, 1695.0, 1691.0, 1693.0, 1695.0, 1694.0, 1693.0, 1692.0, 1693.0, 1694.0, 1687.0, 1689.0, 1684.0, 1691.0, 1688.0, 1688.0, 1680.0, 1690.0, 1691.0, 1694.0, 1696.0, 1696.0, 1693.0, 1694.0, 1694.0, 1692.0, 1690.0, 1690.0, 1693.0, 1695.0, 1693.0, 1693.0, 1694.0, 1694.0, 1695.0, 1695.0, 1695.0, 1695.0, 1694.0, 1692.0, 1690.0, 1689.0, 1693.0, 1693.0, 1692.0, 1689.0, 1688.0, 1691.0, 1693.0, 1694.0, 1692.0, 1692.0, 1692.0, 1691.0, 1690.0, 1691.0, 1691.0, 1691.0, 1690.0, 1694.0, 1694.0, 1693.0, 1692.0, 1690.0, 1689.0, 1693.0, 1700.0, 1704.0, 1702.0, 1697.0, 1696.0, 1693.0, 1690.0, 1689.0, 1688.0, 1688.0, 1687.0, 1689.0, 1693.0, 1692.0, 1691.0, 1689.0, 1689.0, 1688.0, 1690.0, 1687.0, 1686.0, 1688.0, 1691.0, 1690.0, 1691.0, 1692.0, 1689.0, 1688.0, 1684.0, 1689.0, 1689.0, 1690.0, 1694.0, 1695.0, 1693.0, 1694.0, 1695.0, 1698.0, 1694.0, 1689.0, 1687.0, 1691.0, 1692.0, 1698.0, 1695.0, 1692.0, 1696.0, 1692.0, 1688.0, 1689.0, 1690.0, 1687.0, 1689.0, 1687.0, 1685.0, 1688.0, 1685.0, 1684.0, 1685.0, 1687.0, 1687.0, 1688.0, 1687.0, 1688.0, 1691.0, 1696.0, 1698.0, 1697.0, 1699.0, 1697.0, 1693.0, 1691.0, 1691.0, 1692.0, 1694.0, 1693.0, 1690.0, 1689.0, 1690.0, 1691.0, 1687.0, 1684.0, 1686.0, 1690.0, 1693.0, 1691.0, 1690.0, 1691.0, 1692.0, 1695.0, 1694.0, 1688.0, 1686.0, 1687.0, 1688.0, 1689.0, 1692.0, 1694.0, 1689.0, 1689.0, 1689.0, 1690.0, 1688.0, 1685.0, 1686.0, 1689.0, 1694.0, 1698.0, 1698.0, 1695.0, 1692.0, 1692.0, 1698.0, 1695.0, 1690.0, 1689.0, 1688.0, 1693.0, 1693.0, 1689.0, 1688.0, 1685.0, 1684.0, 1686.0, 1691.0, 1682.0, 1689.0, 1685.0, 1681.0, 1686.0, 1691.0, 1695.0, 1697.0, 1692.0, 1692.0, 1692.0, 1692.0, 1695.0, 1697.0, 1694.0, 1689.0, 1688.0, 1691.0, 1693.0, 1690.0, 1692.0, 1687.0, 1685.0, 1685.0, 1688.0, 1691.0]
    },
    "slices": {}
  }
}