{
  "AcquisitionMatrixPE": 100,
  "AcquisitionNumber": 1,
  "AcquisitionTime": "10:34:8.472500",
  "BandwidthPerPixelPhaseEncode": 18.519,
  "BaseResolution": 100,
  "BodyPartExamined": "BRAIN",
  "ConsistencyInfo": "N4_VE11C_LATEST_20160120",
  "ConversionSoftware": "dcm2niix",
  "ConversionSoftwareVersion": "v1.0.20180622 GCC4.9.2",
  "DerivedVendorReportedEchoSpacing": 0.000539986,
  "DeviceSerialNumber": "166078",
  "DwellTime": 2.1e-06,
  "EchoTime": 0.034,
  "EchoTrainLength": 100,
  "EffectiveEchoSpacing": 0.000539986,
  "FlipAngle": 90,
  "ImageOrientationPatientDICOM": [1, 0, 0, 0, 0.998342, -0.057564],
  "ImageType": [
    "ORIGINAL",
    "PRIMARY",
    "M",
    "ND",
    "MOSAIC"
],
  "InPlanePhaseEncodingDirectionDICOM": "COL",
  "InstitutionAddress": "Street_StreetNo_Bei_Jing_District_CN_ZIP",
  "InstitutionName": "BeiJing_Normal_University",
  "InstitutionalDepartmentName": "Department",
  "MRAcquisitionType": "2D",
  "MagneticFieldStrength": 3,
  "Manufacturer": "Siemens",
  "ManufacturersModelName": "Prisma",
  "Modality": "MR",
  "MultibandAccelerationFactor": 3,
  "PartialFourier": 1,
  "PatientPosition": "HFS",
  "PercentPhaseFOV": 100,
  "PhaseEncodingDirection": "j-",
  "PhaseEncodingSteps": 100,
  "PhaseResolution": 1,
  "PixelBandwidth": 2380,
  "ProcedureStepDescription": "BNU_P2018_64CH_Liu.Jia",
  "ProtocolName": "bold_100x100_s3_2x2x2_232",
  "PulseSequenceDetails": "%SiemensSeq%_ep2d_bold",
  "ReceiveCoilActiveElements": "HC1-7;NC1",
  "ReceiveCoilName": "HeadNeck_64",
  "ReconMatrixPE": 100,
  "RepetitionTime": 2,
  "SAR": 0.0589375,
  "ScanOptions": "FS",
  "ScanningSequence": "EP",
  "SequenceName": "_epfid2d1_100",
  "SequenceVariant": "SK",
  "SeriesDescription": "bold_100x100_s3_2x2x2_232",
  "SeriesNumber": 3,
  "ShimSetting": [-5461, -11492, -1350, 335, -54, -131, -130, 50],
  "SliceThickness": 2,
  "SliceTiming": [1.485, 0, 0.99, 0.0825, 1.0725, 0.165, 1.155, 0.2475, 1.2375, 0.33, 1.32, 0.4125, 1.4025, 0.5775, 1.5675, 0.66, 1.65, 0.7425, 1.7325, 0.825, 1.815, 0.9075, 1.8975, 0.495, 1.485, 0, 0.99, 0.0825, 1.0725, 0.165, 1.155, 0.2475, 1.2375, 0.33, 1.32, 0.4125, 1.4025, 0.5775, 1.5675, 0.66, 1.65, 0.7425, 1.7325, 0.825, 1.815, 0.9075, 1.8975, 0.495, 1.485, 0, 0.99, 0.0825, 1.0725, 0.165, 1.155, 0.2475, 1.2375, 0.33, 1.32, 0.4125, 1.4025, 0.5775, 1.5675, 0.66, 1.65, 0.7425, 1.7325, 0.825, 1.815, 0.9075, 1.8975, 0.495],
  "SoftwareVersions": "syngo_MR_E11",
  "SpacingBetweenSlices": 2,
  "StationName": "AWP166078",
  "TaskName": "motor",
  "TotalReadoutTime": 0.0534586,
  "TxRefAmp": 210.908,
  "dcmmeta_affine": [
    [-2.0, 0.0, 0.0, 101.34939575195312],
    [0.0, 1.9966835975646973, -0.1151280626654625, -82.51671600341797],
    [0.0, 0.1151280552148819, 1.9966837167739868, -74.05607604980469],
    [0.0, 0.0, 0.0, 1.0]
],
  "dcmmeta_reorient_transform": [
    [0.0, -1.0, 0.0, 99.0],
    [1.0, 0.0, 0.0, 0.0],
    [0.0, 0.0, 1.0, 0.0],
    [0.0, 0.0, 0.0, 1.0]
],
  "dcmmeta_shape": [100, 100, 72, 232],
  "dcmmeta_slice_dim": 2,
  "dcmmeta_version": 0.6,
  "global": {
    "const": {
      "AcquisitionMatrix": [100, 0, 0, 100],
      "AngioFlag": "N",
      "BitsAllocated": 16,
      "BitsStored": 12,
      "BodyPartExamined": "BRAIN",
      "Columns": 900,
      "EchoNumbers": 1,
      "EchoTime": 34.0,
      "EchoTrainLength": 100,
      "FlipAngle": 90.0,
      "HighBit": 11,
      "ImageOrientationPatient": [1.0, 0.0, 0.0, 0.0, 0.99834181651793, -0.0575640286263],
      "ImagePositionPatient": [-901.34939754009, -913.82841562023, -16.6071767876],
      "ImageType": [
        "ORIGINAL",
        "PRIMARY",
        "M",
        "ND",
        "MOSAIC"
],
      "ImagedNucleus": "1H",
      "ImagingFrequency": 123.257863,
      "InPlanePhaseEncodingDirection": "COL",
      "MRAcquisitionType": "2D",
      "MagneticFieldStrength": 3.0,
      "Manufacturer": "SIEMENS",
      "ManufacturerModelName": "Prisma",
      "Modality": "MR",
      "NumberOfAverages": 1.0,
      "NumberOfPhaseEncodingSteps": 100,
      "PercentPhaseFieldOfView": 100.0,
      "PercentSampling": 100.0,
      "PerformedProcedureStepStartTime": "103115.060000",
      "PhotometricInterpretation": "MONOCHROME2",
      "PixelBandwidth": 2380.0,
      "PixelRepresentation": 0,
      "PixelSpacing": [2.0, 2.0],
      "ProtocolName": "bold_100x100_s3_2x2x2_232",
      "RepetitionTime": 2000.0,
      "Rows": 900,
      "SAR": 0.05893749681943,
      "SamplesPerPixel": 1,
      "ScanOptions": "FS",
      "ScanningSequence": "EP",
      "SequenceName": "*epfid2d1_100",
      "SequenceVariant": "SK",
      "SeriesDescription": "bold_100x100_s3_2x2x2_232",
      "SeriesNumber": 3,
      "SeriesTime": "103410.864000",
      "SliceLocation": -69.183284117655,
      "SliceThickness": 2.0,
      "SmallestImagePixelValue": 0,
      "SoftwareVersions": "syngo MR E11",
      "SpacingBetweenSlices": 2.0000000515492,
      "SpecificCharacterSet": "ISO_IR 100",
      "StudyID": "1",
      "StudyTime": "103115.001000",
      "TransmitCoilName": "Body",
      "VariableFlipAngleFlag": "N",
      "WindowCenterWidthExplanation": "Algo1",
      "dBdt": 0.0},
    "slices": {}
  },
  "time": {
    "samples": {
      "AcquisitionNumber": [1, 2, 3, 4, 5, 6, 7, 8, 9, 10, 11, 12, 13, 14, 15, 16, 17, 18, 19, 20, 21, 22, 23, 24, 25, 26, 27, 28, 29, 30, 31, 32, 33, 34, 35, 36, 37, 38, 39, 40, 41, 42, 43, 44, 45, 46, 47, 48, 49, 50, 51, 52, 53, 54, 55, 56, 57, 58, 59, 60, 61, 62, 63, 64, 65, 66, 67, 68, 69, 70, 71, 72, 73, 74, 75, 76, 77, 78, 79, 80, 81, 82, 83, 84, 85, 86, 87, 88, 89, 90, 91, 92, 93, 94, 95, 96, 97, 98, 99, 100, 101, 102, 103, 104, 105, 106, 107, 108, 109, 110, 111, 112, 113, 114, 115, 116, 117, 118, 119, 120, 121, 122, 123, 124, 125, 126, 127, 128, 129, 130, 131, 132, 133, 134, 135, 136, 137, 138, 139, 140, 141, 142, 143, 144, 145, 146, 147, 148, 149, 150, 151, 152, 153, 154, 155, 156, 157, 158, 159, 160, 161, 162, 163, 164, 165, 166, 167, 168, 169, 170, 171, 172, 173, 174, 175, 176, 177, 178, 179, 180, 181, 182, 183, 184, 185, 186, 187, 188, 189, 190, 191, 192, 193, 194, 195, 196, 197, 198, 199, 200, 201, 202, 203, 204, 205, 206, 207, 208, 209, 210, 211, 212, 213, 214, 215, 216, 217, 218, 219, 220, 221, 222, 223, 224, 225, 226, 227, 228, 229, 230, 231, 232],
      "AcquisitionTime": ["103408.472500", "103410.472500", "103412.472500", "103414.472500", "103416.472500", "103418.472500", "103420.472500", "103422.472500", "103424.472500", "103426.472500", "103428.472500", "103430.472500", "103432.472500", "103434.472500", "103436.472500", "103438.472500", "103440.472500", "103442.472500", "103444.472500", "103446.472500", "103448.472500", "103450.472500", "103452.472500", "103454.472500", "103456.472500", "103458.472500", "103500.472500", "103502.472500", "103504.472500", "103506.472500", "103508.472500", "103510.472500", "103512.472500", "103514.472500", "103516.472500", "103518.472500", "103520.472500", "103522.472500", "103524.472500", "103526.472500", "103528.472500", "103530.472500", "103532.472500", "103534.472500", "103536.472500", "103538.472500", "103540.472500", "103542.472500", "103544.472500", "103546.472500", "103548.472500", "103550.472500", "103552.472500", "103554.472500", "103556.472500", "103558.472500", "103600.472500", "103602.472500", "103604.472500", "103606.472500", "103608.472500", "103610.472500", "103612.472500", "103614.472500", "103616.472500", "103618.472500", "103620.472500", "103622.472500", "103624.472500", "103626.472500", "103628.472500", "103630.472500", "103632.472500", "103634.472500", "103636.472500", "103638.472500", "103640.472500", "103642.472500", "103644.472500", "103646.472500", "103648.472500", "103650.472500", "103652.472500", "103654.472500", "103656.472500", "103658.472500", "103700.472500", "103702.472500", "103704.472500", "103706.472500", "103708.472500", "103710.472500", "103712.472500", "103714.472500", "103716.472500", "103718.472500", "103720.472500", "103722.472500", "103724.472500", "103726.472500", "103728.472500", "103730.472500", "103732.472500", "103734.472500", "103736.472500", "103738.472500", "103740.472500", "103742.472500", "103744.472500", "103746.472500", "103748.472500", "103750.472500", "103752.472500", "103754.472500", "103756.472500", "103758.472500", "103800.472500", "103802.472500", "103804.472500", "103806.472500", "103808.472500", "103810.472500", "103812.472500", "103814.472500", "103816.472500", "103818.472500", "103820.472500", "103822.472500", "103824.472500", "103826.472500", "103828.472500", "103830.472500", "103832.472500", "103834.472500", "103836.472500", "103838.472500", "103840.472500", "103842.472500", "103844.472500", "103846.472500", "103848.472500", "103850.472500", "103852.472500", "103854.472500", "103856.472500", "103858.472500", "103900.472500", "103902.472500", "103904.472500", "103906.472500", "103908.472500", "103910.472500", "103912.472500", "103914.472500", "103916.472500", "103918.472500", "103920.472500", "103922.472500", "103924.472500", "103926.472500", "103928.472500", "103930.472500", "103932.472500", "103934.472500", "103936.472500", "103938.472500", "103940.472500", "103942.472500", "103944.472500", "103946.472500", "103948.472500", "103950.472500", "103952.472500", "103954.472500", "103956.472500", "103958.472500", "104000.472500", "104002.472500", "104004.472500", "104006.472500", "104008.472500", "104010.472500", "104012.472500", "104014.472500", "104016.472500", "104018.472500", "104020.472500", "104022.472500", "104024.472500", "104026.472500", "104028.472500", "104030.472500", "104032.472500", "104034.472500", "104036.472500", "104038.472500", "104040.472500", "104042.472500", "104044.472500", "104046.472500", "104048.472500", "104050.472500", "104052.472500", "104054.472500", "104056.472500", "104058.472500", "104100.472500", "104102.472500", "104104.472500", "104106.472500", "104108.472500", "104110.472500", "104112.472500", "104114.472500", "104116.472500", "104118.472500", "104120.472500", "104122.472500", "104124.472500", "104126.472500", "104128.472500", "104130.472500", "104132.472500", "104134.472500", "104136.472500", "104138.472500", "104140.472500", "104142.472500", "104144.472500", "104146.472500", "104148.472500", "104150.472500"],
      "ContentTime": ["103410.868000", "103412.864000", "103414.362000", "103416.362000", "103418.362000", "103420.362000", "103422.363000", "103424.363000", "103426.363000", "103428.363000", "103430.363000", "103432.862000", "103434.362000", "103436.363000", "103438.863000", "103440.363000", "103442.363000", "103444.363000", "103446.864000", "103448.863000", "103450.362000", "103452.362000", "103454.362000", "103456.363000", "103458.363000", "103500.363000", "103502.363000", "103504.363000", "103506.362000", "103508.362000", "103510.362000", "103512.362000", "103514.363000", "103516.363000", "103518.363000", "103520.863000", "103522.863000", "103524.382000", "103526.362000", "103528.362000", "103530.362000", "103532.363000", "103534.863000", "103536.363000", "103538.363000", "103540.363000", "103542.363000", "103544.362000", "103546.362000", "103548.362000", "103550.364000", "103552.364000", "103554.864000", "103556.863000", "103558.363000", "103600.362000", "103602.362000", "103604.363000", "103606.362000", "103608.363000", "103610.364000", "103612.364000", "103614.364000", "103616.862000", "103618.362000", "103620.362000", "103622.362000", "103624.364000", "103626.863000", "103628.364000", "103630.363000", "103632.364000", "103634.362000", "103636.362000", "103638.363000", "103640.862000", "103642.363000", "103644.863000", "103646.363000", "103648.863000", "103650.363000", "103652.363000", "103654.862000", "103656.362000", "103658.362000", "103700.863000", "103702.364000", "103704.364000", "103706.364000", "103708.363000", "103710.363000", "103712.363000", "103714.363000", "103716.364000", "103718.363000", "103720.363000", "103722.363000", "103724.364000", "103726.362000", "103728.362000", "103730.362000", "103732.362000", "103734.363000", "103736.363000", "103738.363000", "103740.863000", "103742.364000", "103744.362000", "103746.362000", "103748.362000", "103750.363000", "103752.864000", "103754.363000", "103756.363000", "103758.363000", "103800.364000", "103802.362000", "103804.362000", "103806.363000", "103808.363000", "103810.863000", "103812.863000", "103814.363000", "103816.863000", "103818.362000", "103820.362000", "103822.362000", "103824.362000", "103826.364000", "103828.363000", "103830.364000", "103832.363000", "103834.363000", "103836.363000", "103838.363000", "103840.362000", "103842.363000", "103844.363000", "103846.364000", "103848.364000", "103850.864000", "103852.363000", "103854.363000", "103856.363000", "103858.362000", "103900.362000", "103902.363000", "103904.363000", "103906.363000", "103908.363000", "103910.363000", "103912.363000", "103914.363000", "103916.363000", "103918.363000", "103920.363000", "103922.364000", "103924.863000", "103926.364000", "103928.363000", "103930.362000", "103932.362000", "103934.363000", "103936.363000", "103938.363000", "103940.863000", "103942.363000", "103944.363000", "103946.362000", "103948.363000", "103950.362000", "103952.362000", "103954.363000", "103956.364000", "103958.363000", "104000.364000", "104002.363000", "104004.863000", "104006.362000", "104008.862000", "104010.363000", "104012.364000", "104014.363000", "104016.864000", "104018.364000", "104020.863000", "104022.363000", "104024.363000", "104026.363000", "104028.363000", "104030.364000", "104032.364000", "104034.364000", "104036.363000", "104038.362000", "104040.363000", "104042.363000", "104044.362000", "104046.364000", "104048.364000", "104050.364000", "104052.364000", "104054.864000", "104056.862000", "104058.363000", "104100.363000", "104102.362000", "104104.864000", "104106.363000", "104108.363000", "104110.364000", "104112.364000", "104114.363000", "104116.363000", "104118.362000", "104120.362000", "104122.363000", "104124.364000", "104126.364000", "104128.364000", "104130.363000", "104132.362000", "104134.362000", "104136.363000", "104138.362000", "104140.363000", "104142.863000", "104144.364000", "104146.363000", "104148.362000", "104150.362000", "104152.272000"],
      "InstanceCreationTime": ["103410.868000", "103412.864000", "103414.362000", "103416.362000", "103418.362000", "103420.362000", "103422.363000", "103424.363000", "103426.363000", "103428.363000", "103430.363000", "103432.862000", "103434.362000", "103436.363000", "103438.863000", "103440.363000", "103442.363000", "103444.363000", "103446.864000", "103448.863000", "103450.362000", "103452.362000", "103454.362000", "103456.363000", "103458.363000", "103500.363000", "103502.363000", "103504.363000", "103506.362000", "103508.362000", "103510.362000", "103512.362000", "103514.363000", "103516.363000", "103518.363000", "103520.863000", "103522.863000", "103524.382000", "103526.362000", "103528.362000", "103530.362000", "103532.363000", "103534.863000", "103536.363000", "103538.363000", "103540.363000", "103542.363000", "103544.362000", "103546.362000", "103548.362000", "103550.364000", "103552.364000", "103554.864000", "103556.863000", "103558.363000", "103600.362000", "103602.362000", "103604.363000", "103606.362000", "103608.363000", "103610.364000", "103612.364000", "103614.364000", "103616.862000", "103618.362000", "103620.362000", "103622.362000", "103624.364000", "103626.863000", "103628.364000", "103630.363000", "103632.364000", "103634.362000", "103636.362000", "103638.363000", "103640.862000", "103642.363000", "103644.863000", "103646.363000", "103648.863000", "103650.363000", "103652.363000", "103654.862000", "103656.362000", "103658.362000", "103700.863000", "103702.364000", "103704.364000", "103706.364000", "103708.363000", "103710.363000", "103712.363000", "103714.363000", "103716.364000", "103718.363000", "103720.363000", "103722.363000", "103724.364000", "103726.362000", "103728.362000", "103730.362000", "103732.362000", "103734.363000", "103736.363000", "103738.363000", "103740.863000", "103742.364000", "103744.362000", "103746.362000", "103748.362000", "103750.363000", "103752.864000", "103754.363000", "103756.363000", "103758.363000", "103800.364000", "103802.362000", "103804.362000", "103806.363000", "103808.363000", "103810.863000", "103812.863000", "103814.363000", "103816.863000", "103818.362000", "103820.362000", "103822.362000", "103824.362000", "103826.364000", "103828.363000", "103830.364000", "103832.363000", "103834.363000", "103836.363000", "103838.363000", "103840.362000", "103842.363000", "103844.363000", "103846.364000", "103848.364000", "103850.864000", "103852.363000", "103854.363000", "103856.363000", "103858.362000", "103900.362000", "103902.363000", "103904.363000", "103906.363000", "103908.363000", "103910.363000", "103912.363000", "103914.363000", "103916.363000", "103918.363000", "103920.363000", "103922.364000", "103924.863000", "103926.364000", "103928.363000", "103930.362000", "103932.362000", "103934.363000", "103936.363000", "103938.363000", "103940.863000", "103942.363000", "103944.363000", "103946.362000", "103948.363000", "103950.362000", "103952.362000", "103954.363000", "103956.364000", "103958.363000", "104000.364000", "104002.363000", "104004.863000", "104006.362000", "104008.862000", "104010.363000", "104012.364000", "104014.363000", "104016.864000", "104018.364000", "104020.863000", "104022.363000", "104024.363000", "104026.363000", "104028.363000", "104030.364000", "104032.364000", "104034.364000", "104036.363000", "104038.362000", "104040.363000", "104042.363000", "104044.362000", "104046.364000", "104048.364000", "104050.364000", "104052.364000", "104054.864000", "104056.862000", "104058.363000", "104100.363000", "104102.362000", "104104.864000", "104106.363000", "104108.363000", "104110.364000", "104112.364000", "104114.363000", "104116.363000", "104118.362000", "104120.362000", "104122.363000", "104124.364000", "104126.364000", "104128.364000", "104130.363000", "104132.362000", "104134.362000", "104136.363000", "104138.362000", "104140.363000", "104142.863000", "104144.364000", "104146.363000", "104148.362000", "104150.362000", "104152.272000"],
      "InstanceNumber": [1, 2, 3, 4, 5, 6, 7, 8, 9, 10, 11, 12, 13, 14, 15, 16, 17, 18, 19, 20, 21, 22, 23, 24, 25, 26, 27, 28, 29, 30, 31, 32, 33, 34, 35, 36, 37, 38, 39, 40, 41, 42, 43, 44, 45, 46, 47, 48, 49, 50, 51, 52, 53, 54, 55, 56, 57, 58, 59, 60, 61, 62, 63, 64, 65, 66, 67, 68, 69, 70, 71, 72, 73, 74, 75, 76, 77, 78, 79, 80, 81, 82, 83, 84, 85, 86, 87, 88, 89, 90, 91, 92, 93, 94, 95, 96, 97, 98, 99, 100, 101, 102, 103, 104, 105, 106, 107, 108, 109, 110, 111, 112, 113, 114, 115, 116, 117, 118, 119, 120, 121, 122, 123, 124, 125, 126, 127, 128, 129, 130, 131, 132, 133, 134, 135, 136, 137, 138, 139, 140, 141, 142, 143, 144, 145, 146, 147, 148, 149, 150, 151, 152, 153, 154, 155, 156, 157, 158, 159, 160, 161, 162, 163, 164, 165, 166, 167, 168, 169, 170, 171, 172, 173, 174, 175, 176, 177, 178, 179, 180, 181, 182, 183, 184, 185, 186, 187, 188, 189, 190, 191, 192, 193, 194, 195, 196, 197, 198, 199, 200, 201, 202, 203, 204, 205, 206, 207, 208, 209, 210, 211, 212, 213, 214, 215, 216, 217, 218, 219, 220, 221, 222, 223, 224, 225, 226, 227, 228, 229, 230, 231, 232],
      "LargestImagePixelValue": [2719, 2671, 2624, 2618, 2626, 2639, 2637, 2644, 2632, 2626, 2641, 2641, 2628, 2660, 2643, 2638, 2632, 2651, 2665, 2647, 2636, 2653, 2662, 2630, 2628, 2636, 2736, 2566, 2566, 2586, 2623, 2611, 2651, 2607, 2645, 2618, 2643, 2634, 2663, 2652, 2678, 2705, 2681, 2596, 2691, 2576, 2614, 2674, 2697, 2588, 2653, 2629, 2595, 2617, 2612, 2629, 2628, 2691, 2681, 2686, 2667, 2678, 2674, 2672, 2658, 2604, 2620, 2602, 2604, 2627, 2626, 2617, 2635, 2624, 2613, 2612, 2596, 2597, 2602, 2570, 2626, 2591, 2611, 2574, 2621, 2624, 2597, 2628, 2642, 2620, 2627, 2999, 2604, 2605, 2619, 2595, 2646, 2625, 2686, 2678, 2593, 2638, 2719, 2649, 2611, 2566, 2592, 2626, 2617, 2620, 2629, 2637, 2647, 2653, 2606, 2656, 2651, 2666, 2662, 2694, 2665, 2654, 2656, 2614, 2621, 2647, 2631, 2631, 2632, 2708, 2618, 2654, 2690, 2682, 2674, 2648, 2729, 3012, 2874, 2614, 2637, 2649, 2630, 2634, 2642, 2626, 2613, 2608, 2623, 2618, 2604, 2607, 2644, 2644, 2606, 2635, 2649, 2634, 2619, 2656, 2659, 2658, 2625, 2637, 2610, 2611, 2675, 2622, 2729, 2646, 2633, 2666, 2668, 2667, 2654, 2671, 2696, 2688, 2646, 2649, 2615, 2619, 2626, 2615, 2676, 2730, 2625, 2744, 2800, 2686, 2690, 2661, 2694, 2677, 2623, 2615, 2625, 2621, 2628, 2626, 2647, 2615, 2635, 2632, 2628, 2616, 2668, 2650, 2722, 2883, 2694, 2662, 2598, 2643, 2721, 2720, 2741, 2740, 2734, 2721, 2663, 2629, 2623, 2653, 2600, 2632, 2617, 2610, 2631, 2612, 2628, 2631],
      "WindowCenter": [733.0, 732.0, 731.0, 730.0, 730.0, 729.0, 728.0, 729.0, 730.0, 731.0, 732.0, 731.0, 730.0, 730.0, 730.0, 730.0, 731.0, 731.0, 731.0, 730.0, 729.0, 730.0, 730.0, 730.0, 730.0, 727.0, 732.0, 730.0, 729.0, 727.0, 728.0, 728.0, 729.0, 730.0, 731.0, 730.0, 729.0, 729.0, 728.0, 728.0, 729.0, 731.0, 725.0, 729.0, 732.0, 727.0, 726.0, 724.0, 731.0, 730.0, 731.0, 731.0, 731.0, 732.0, 732.0, 732.0, 730.0, 733.0, 733.0, 732.0, 731.0, 730.0, 729.0, 729.0, 729.0, 730.0, 732.0, 731.0, 729.0, 728.0, 728.0, 727.0, 728.0, 729.0, 729.0, 729.0, 727.0, 728.0, 728.0, 728.0, 729.0, 731.0, 732.0, 731.0, 731.0, 730.0, 729.0, 729.0, 730.0, 730.0, 731.0, 736.0, 729.0, 728.0, 729.0, 728.0, 730.0, 727.0, 737.0, 732.0, 730.0, 730.0, 731.0, 729.0, 728.0, 728.0, 730.0, 731.0, 730.0, 729.0, 729.0, 729.0, 728.0, 729.0, 728.0, 728.0, 727.0, 727.0, 727.0, 729.0, 729.0, 730.0, 730.0, 729.0, 729.0, 728.0, 727.0, 727.0, 727.0, 728.0, 730.0, 729.0, 732.0, 729.0, 732.0, 730.0, 727.0, 732.0, 730.0, 730.0, 729.0, 729.0, 729.0, 729.0, 729.0, 730.0, 731.0, 730.0, 729.0, 728.0, 728.0, 728.0, 728.0, 729.0, 728.0, 728.0, 728.0, 728.0, 727.0, 728.0, 729.0, 731.0, 731.0, 731.0, 729.0, 729.0, 729.0, 729.0, 729.0, 727.0, 727.0, 727.0, 727.0, 728.0, 727.0, 728.0, 729.0, 728.0, 728.0, 729.0, 729.0, 727.0, 726.0, 727.0, 729.0, 729.0, 724.0, 724.0, 732.0, 725.0, 731.0, 727.0, 728.0, 729.0, 729.0, 730.0, 730.0, 729.0, 728.0, 728.0, 728.0, 729.0, 732.0, 730.0, 729.0, 727.0, 726.0, 726.0, 726.0, 727.0, 728.0, 728.0, 726.0, 724.0, 723.0, 722.0, 724.0, 725.0, 727.0, 728.0, 729.0, 728.0, 729.0, 731.0, 731.0, 731.0, 731.0, 731.0, 730.0, 730.0, 729.0, 729.0],
      "WindowWidth": [1578.0, 1574.0, 1572.0, 1570.0, 1569.0, 1568.0, 1565.0, 1567.0, 1568.0, 1571.0, 1576.0, 1574.0, 1571.0, 1570.0, 1570.0, 1571.0, 1571.0, 1573.0, 1573.0, 1570.0, 1568.0, 1569.0, 1569.0, 1570.0, 1569.0, 1562.0, 1576.0, 1569.0, 1567.0, 1562.0, 1565.0, 1563.0, 1567.0, 1568.0, 1571.0, 1569.0, 1568.0, 1566.0, 1564.0, 1565.0, 1568.0, 1573.0, 1556.0, 1568.0, 1575.0, 1562.0, 1559.0, 1555.0, 1573.0, 1570.0, 1572.0, 1570.0, 1573.0, 1573.0, 1575.0, 1574.0, 1570.0, 1577.0, 1577.0, 1575.0, 1572.0, 1568.0, 1567.0, 1566.0, 1565.0, 1569.0, 1574.0, 1571.0, 1566.0, 1564.0, 1563.0, 1562.0, 1563.0, 1565.0, 1566.0, 1565.0, 1563.0, 1564.0, 1563.0, 1563.0, 1568.0, 1571.0, 1574.0, 1572.0, 1571.0, 1568.0, 1566.0, 1566.0, 1569.0, 1570.0, 1572.0, 1584.0, 1567.0, 1565.0, 1565.0, 1565.0, 1568.0, 1562.0, 1587.0, 1575.0, 1571.0, 1571.0, 1572.0, 1566.0, 1563.0, 1563.0, 1569.0, 1572.0, 1569.0, 1566.0, 1566.0, 1566.0, 1564.0, 1567.0, 1564.0, 1565.0, 1561.0, 1560.0, 1560.0, 1565.0, 1565.0, 1568.0, 1570.0, 1567.0, 1565.0, 1564.0, 1561.0, 1561.0, 1561.0, 1564.0, 1569.0, 1567.0, 1574.0, 1568.0, 1575.0, 1569.0, 1563.0, 1572.0, 1568.0, 1568.0, 1567.0, 1567.0, 1567.0, 1566.0, 1566.0, 1570.0, 1571.0, 1568.0, 1566.0, 1564.0, 1563.0, 1564.0, 1564.0, 1566.0, 1564.0, 1564.0, 1563.0, 1563.0, 1561.0, 1563.0, 1565.0, 1570.0, 1571.0, 1571.0, 1568.0, 1566.0, 1567.0, 1565.0, 1565.0, 1562.0, 1560.0, 1560.0, 1561.0, 1562.0, 1561.0, 1564.0, 1565.0, 1564.0, 1564.0, 1567.0, 1565.0, 1562.0, 1559.0, 1561.0, 1565.0, 1567.0, 1553.0, 1555.0, 1575.0, 1556.0, 1571.0, 1562.0, 1564.0, 1567.0, 1567.0, 1569.0, 1568.0, 1566.0, 1564.0, 1563.0, 1563.0, 1566.0, 1573.0, 1570.0, 1565.0, 1561.0, 1558.0, 1558.0, 1558.0, 1561.0, 1563.0, 1563.0, 1558.0, 1552.0, 1549.0, 1549.0, 1553.0, 1556.0, 1561.0, 1565.0, 1565.0, 1565.0, 1567.0, 1571.0, 1571.0, 1573.0, 1571.0, 1570.0, 1570.0, 1569.0, 1567.0, 1567.0]
    },
    "slices": {}
  }
}