{
  "AcquisitionMatrixPE": 100,
  "AcquisitionNumber": 1,
  "AcquisitionTime": "11:11:41.992500",
  "BandwidthPerPixelPhaseEncode": 18.519,
  "BaseResolution": 100,
  "BodyPartExamined": "BRAIN",
  "ConsistencyInfo": "N4_VE11C_LATEST_20160120",
  "ConversionSoftware": "dcm2niix",
  "ConversionSoftwareVersion": "v1.0.20180622 GCC4.9.2",
  "DerivedVendorReportedEchoSpacing": 0.000539986,
  "DeviceSerialNumber": "166078",
  "DwellTime": 2.1e-06,
  "EchoTime": 0.034,
  "EchoTrainLength": 100,
  "EffectiveEchoSpacing": 0.000539986,
  "FlipAngle": 90,
  "ImageOrientationPatientDICOM": [1, 0, 0, 0, 0.998342, -0.057564],
  "ImageType": [
    "ORIGINAL",
    "PRIMARY",
    "M",
    "ND",
    "MOSAIC"
],
  "InPlanePhaseEncodingDirectionDICOM": "COL",
  "InstitutionAddress": "Street_StreetNo_Bei_Jing_District_CN_ZIP",
  "InstitutionName": "BeiJing_Normal_University",
  "InstitutionalDepartmentName": "Department",
  "MRAcquisitionType": "2D",
  "MagneticFieldStrength": 3,
  "Manufacturer": "Siemens",
  "ManufacturersModelName": "Prisma",
  "Modality": "MR",
  "MultibandAccelerationFactor": 3,
  "PartialFourier": 1,
  "PatientPosition": "HFS",
  "PercentPhaseFOV": 100,
  "PhaseEncodingDirection": "j-",
  "PhaseEncodingSteps": 100,
  "PhaseResolution": 1,
  "PixelBandwidth": 2380,
  "ProcedureStepDescription": "BNU_P2018_64CH_Liu.Jia",
  "ProtocolName": "bold_100x100_s3_2x2x2_232",
  "PulseSequenceDetails": "%SiemensSeq%_ep2d_bold",
  "ReceiveCoilActiveElements": "HC1-7;NC1",
  "ReceiveCoilName": "HeadNeck_64",
  "ReconMatrixPE": 100,
  "RepetitionTime": 2,
  "SAR": 0.0589375,
  "ScanOptions": "FS",
  "ScanningSequence": "EP",
  "SequenceName": "_epfid2d1_100",
  "SequenceVariant": "SK",
  "SeriesDescription": "bold_100x100_s3_2x2x2_232",
  "SeriesNumber": 9,
  "ShimSetting": [-5461, -11492, -1350, 335, -54, -131, -130, 50],
  "SliceThickness": 2,
  "SliceTiming": [1.485, 0, 0.99, 0.0825, 1.0725, 0.165, 1.155, 0.2475, 1.2375, 0.33, 1.32, 0.4125, 1.4025, 0.5775, 1.5675, 0.66, 1.65, 0.7425, 1.7325, 0.825, 1.815, 0.9075, 1.8975, 0.495, 1.485, 0, 0.99, 0.0825, 1.0725, 0.165, 1.155, 0.2475, 1.2375, 0.33, 1.32, 0.4125, 1.4025, 0.5775, 1.5675, 0.66, 1.65, 0.7425, 1.7325, 0.825, 1.815, 0.9075, 1.8975, 0.495, 1.485, 0, 0.99, 0.0825, 1.0725, 0.165, 1.155, 0.2475, 1.2375, 0.33, 1.32, 0.4125, 1.4025, 0.5775, 1.5675, 0.66, 1.65, 0.7425, 1.7325, 0.825, 1.815, 0.9075, 1.8975, 0.495],
  "SoftwareVersions": "syngo_MR_E11",
  "SpacingBetweenSlices": 2,
  "StationName": "AWP166078",
  "TaskName": "motor",
  "TotalReadoutTime": 0.0534586,
  "TxRefAmp": 210.908,
  "dcmmeta_affine": [
    [-2.0, 0.0, 0.0, 101.34939575195312],
    [0.0, 1.9966835975646973, -0.1151280626654625, -82.51671600341797],
    [0.0, 0.1151280552148819, 1.9966837167739868, -74.05607604980469],
    [0.0, 0.0, 0.0, 1.0]
],
  "dcmmeta_reorient_transform": [
    [0.0, -1.0, 0.0, 99.0],
    [1.0, 0.0, 0.0, 0.0],
    [0.0, 0.0, 1.0, 0.0],
    [0.0, 0.0, 0.0, 1.0]
],
  "dcmmeta_shape": [100, 100, 72, 232],
  "dcmmeta_slice_dim": 2,
  "dcmmeta_version": 0.6,
  "global": {
    "const": {
      "AcquisitionMatrix": [100, 0, 0, 100],
      "AngioFlag": "N",
      "BitsAllocated": 16,
      "BitsStored": 12,
      "BodyPartExamined": "BRAIN",
      "Columns": 900,
      "EchoNumbers": 1,
      "EchoTime": 34.0,
      "EchoTrainLength": 100,
      "FlipAngle": 90.0,
      "HighBit": 11,
      "ImageOrientationPatient": [1.0, 0.0, 0.0, 0.0, 0.99834181651793, -0.0575640286263],
      "ImagePositionPatient": [-901.34939754009, -913.82841562023, -16.6071767876],
      "ImageType": [
        "ORIGINAL",
        "PRIMARY",
        "M",
        "ND",
        "MOSAIC"
],
      "ImagedNucleus": "1H",
      "ImagingFrequency": 123.25788,
      "InPlanePhaseEncodingDirection": "COL",
      "MRAcquisitionType": "2D",
      "MagneticFieldStrength": 3.0,
      "Manufacturer": "SIEMENS",
      "ManufacturerModelName": "Prisma",
      "Modality": "MR",
      "NumberOfAverages": 1.0,
      "NumberOfPhaseEncodingSteps": 100,
      "PercentPhaseFieldOfView": 100.0,
      "PercentSampling": 100.0,
      "PerformedProcedureStepStartTime": "103115.060000",
      "PhotometricInterpretation": "MONOCHROME2",
      "PixelBandwidth": 2380.0,
      "PixelRepresentation": 0,
      "PixelSpacing": [2.0, 2.0],
      "ProtocolName": "bold_100x100_s3_2x2x2_232",
      "RepetitionTime": 2000.0,
      "Rows": 900,
      "SAR": 0.05893749681943,
      "SamplesPerPixel": 1,
      "ScanOptions": "FS",
      "ScanningSequence": "EP",
      "SequenceName": "*epfid2d1_100",
      "SequenceVariant": "SK",
      "SeriesDescription": "bold_100x100_s3_2x2x2_232",
      "SeriesNumber": 9,
      "SeriesTime": "111144.098000",
      "SliceLocation": -69.183284117655,
      "SliceThickness": 2.0,
      "SmallestImagePixelValue": 0,
      "SoftwareVersions": "syngo MR E11",
      "SpacingBetweenSlices": 2.0000000515492,
      "SpecificCharacterSet": "ISO_IR 100",
      "StudyID": "1",
      "StudyTime": "103115.001000",
      "TransmitCoilName": "Body",
      "VariableFlipAngleFlag": "N",
      "WindowCenterWidthExplanation": "Algo1",
      "dBdt": 0.0},
    "slices": {}
  },
  "time": {
    "samples": {
      "AcquisitionNumber": [1, 2, 3, 4, 5, 6, 7, 8, 9, 10, 11, 12, 13, 14, 15, 16, 17, 18, 19, 20, 21, 22, 23, 24, 25, 26, 27, 28, 29, 30, 31, 32, 33, 34, 35, 36, 37, 38, 39, 40, 41, 42, 43, 44, 45, 46, 47, 48, 49, 50, 51, 52, 53, 54, 55, 56, 57, 58, 59, 60, 61, 62, 63, 64, 65, 66, 67, 68, 69, 70, 71, 72, 73, 74, 75, 76, 77, 78, 79, 80, 81, 82, 83, 84, 85, 86, 87, 88, 89, 90, 91, 92, 93, 94, 95, 96, 97, 98, 99, 100, 101, 102, 103, 104, 105, 106, 107, 108, 109, 110, 111, 112, 113, 114, 115, 116, 117, 118, 119, 120, 121, 122, 123, 124, 125, 126, 127, 128, 129, 130, 131, 132, 133, 134, 135, 136, 137, 138, 139, 140, 141, 142, 143, 144, 145, 146, 147, 148, 149, 150, 151, 152, 153, 154, 155, 156, 157, 158, 159, 160, 161, 162, 163, 164, 165, 166, 167, 168, 169, 170, 171, 172, 173, 174, 175, 176, 177, 178, 179, 180, 181, 182, 183, 184, 185, 186, 187, 188, 189, 190, 191, 192, 193, 194, 195, 196, 197, 198, 199, 200, 201, 202, 203, 204, 205, 206, 207, 208, 209, 210, 211, 212, 213, 214, 215, 216, 217, 218, 219, 220, 221, 222, 223, 224, 225, 226, 227, 228, 229, 230, 231, 232],
      "AcquisitionTime": ["111141.992500", "111143.992500", "111145.992500", "111147.992500", "111149.992500", "111151.992500", "111153.992500", "111155.992500", "111157.992500", "111159.992500", "111201.992500", "111203.992500", "111205.992500", "111207.992500", "111209.992500", "111211.992500", "111213.992500", "111215.992500", "111217.992500", "111219.992500", "111221.992500", "111223.992500", "111225.992500", "111227.992500", "111229.992500", "111231.992500", "111233.992500", "111235.992500", "111237.992500", "111239.992500", "111241.992500", "111243.992500", "111245.992500", "111247.992500", "111249.992500", "111251.992500", "111253.992500", "111255.992500", "111257.992500", "111259.992500", "111301.992500", "111303.992500", "111305.992500", "111307.992500", "111309.992500", "111311.992500", "111313.992500", "111315.992500", "111317.992500", "111319.992500", "111321.992500", "111323.992500", "111325.992500", "111327.992500", "111329.992500", "111331.992500", "111333.992500", "111335.992500", "111337.992500", "111339.992500", "111341.992500", "111343.992500", "111345.992500", "111347.992500", "111349.992500", "111351.992500", "111353.992500", "111355.992500", "111357.992500", "111359.992500", "111401.992500", "111403.992500", "111405.992500", "111407.992500", "111409.992500", "111411.992500", "111413.992500", "111415.992500", "111417.992500", "111419.992500", "111421.992500", "111423.992500", "111425.992500", "111427.992500", "111429.992500", "111431.992500", "111433.992500", "111435.992500", "111437.992500", "111439.992500", "111441.992500", "111443.992500", "111445.992500", "111447.992500", "111449.992500", "111451.992500", "111453.992500", "111455.992500", "111457.992500", "111459.992500", "111501.992500", "111503.992500", "111505.992500", "111507.992500", "111509.992500", "111511.992500", "111513.992500", "111515.992500", "111517.992500", "111519.992500", "111521.992500", "111523.992500", "111525.992500", "111527.992500", "111529.992500", "111531.992500", "111533.992500", "111535.992500", "111537.992500", "111539.992500", "111541.992500", "111543.992500", "111545.992500", "111547.992500", "111549.992500", "111551.992500", "111553.992500", "111555.992500", "111557.992500", "111559.992500", "111601.992500", "111603.992500", "111605.992500", "111607.992500", "111609.992500", "111611.992500", "111613.992500", "111615.992500", "111617.992500", "111619.992500", "111621.992500", "111623.992500", "111625.992500", "111627.992500", "111629.992500", "111631.992500", "111633.992500", "111635.992500", "111637.992500", "111639.992500", "111641.992500", "111643.992500", "111645.992500", "111647.992500", "111649.992500", "111651.992500", "111653.992500", "111655.992500", "111657.992500", "111659.992500", "111701.992500", "111703.992500", "111705.992500", "111707.992500", "111709.992500", "111711.992500", "111713.992500", "111715.992500", "111717.992500", "111719.992500", "111721.992500", "111723.992500", "111725.992500", "111727.992500", "111729.992500", "111731.992500", "111733.992500", "111735.992500", "111737.992500", "111739.992500", "111741.992500", "111743.992500", "111745.992500", "111747.992500", "111749.992500", "111751.992500", "111753.992500", "111755.992500", "111757.992500", "111759.992500", "111801.992500", "111803.992500", "111805.992500", "111807.992500", "111809.992500", "111811.992500", "111813.992500", "111815.992500", "111817.992500", "111819.992500", "111821.992500", "111823.992500", "111825.992500", "111827.992500", "111829.992500", "111831.992500", "111833.992500", "111835.992500", "111837.992500", "111839.992500", "111841.992500", "111843.992500", "111845.992500", "111847.992500", "111849.992500", "111851.992500", "111853.992500", "111855.992500", "111857.992500", "111859.992500", "111901.992500", "111903.992500", "111905.992500", "111907.992500", "111909.992500", "111911.992500", "111913.992500", "111915.992500", "111917.992500", "111919.992500", "111921.992500", "111923.992500"],
      "ContentTime": ["111144.101000", "111146.097000", "111148.097000", "111149.598000", "111151.597000", "111153.597000", "111156.096000", "111158.097000", "111200.097000", "111201.597000", "111203.597000", "111205.597000", "111208.097000", "111209.598000", "111212.096000", "111214.097000", "111216.097000", "111218.098000", "111220.097000", "111222.097000", "111223.598000", "111225.598000", "111228.097000", "111230.096000", "111231.597000", "111233.597000", "111236.097000", "111237.598000", "111239.597000", "111242.097000", "111243.598000", "111245.598000", "111248.097000", "111250.098000", "111252.098000", "111253.598000", "111256.097000", "111258.097000", "111259.597000", "111302.098000", "111304.096000", "111306.097000", "111308.098000", "111309.597000", "111312.097000", "111314.097000", "111315.597000", "111318.098000", "111320.097000", "111321.596000", "111323.597000", "111325.597000", "111327.597000", "111330.097000", "111331.597000", "111333.598000", "111335.597000", "111338.098000", "111340.096000", "111341.597000", "111343.597000", "111346.097000", "111347.598000", "111350.098000", "111352.097000", "111353.597000", "111356.097000", "111358.097000", "111359.597000", "111401.598000", "111403.597000", "111405.597000", "111407.598000", "111409.598000", "111411.598000", "111414.097000", "111415.596000", "111418.097000", "111419.597000", "111422.097000", "111423.597000", "111425.597000", "111428.098000", "111429.598000", "111431.596000", "111433.596000", "111435.598000", "111437.597000", "111439.598000", "111442.097000", "111444.098000", "111446.097000", "111447.597000", "111449.597000", "111451.596000", "111453.597000", "111456.098000", "111457.597000", "111500.097000", "111501.598000", "111504.097000", "111505.597000", "111507.597000", "111510.098000", "111511.598000", "111514.098000", "111515.597000", "111517.597000", "111520.097000", "111522.098000", "111524.096000", "111526.096000", "111528.097000", "111530.098000", "111531.598000", "111534.098000", "111536.098000", "111537.597000", "111540.098000", "111541.596000", "111544.096000", "111545.598000", "111548.097000", "111549.597000", "111552.097000", "111554.097000", "111556.097000", "111557.597000", "111600.097000", "111601.596000", "111603.597000", "111606.098000", "111608.109000", "111610.098000", "111612.097000", "111614.098000", "111615.598000", "111617.597000", "111620.098000", "111621.597000", "111624.097000", "111625.598000", "111628.097000", "111629.598000", "111632.097000", "111634.097000", "111636.097000", "111637.598000", "111640.098000", "111642.097000", "111643.598000", "111646.097000", "111648.097000", "111650.097000", "111651.596000", "111654.097000", "111656.098000", "111657.597000", "111659.598000", "111702.098000", "111703.597000", "111706.098000", "111707.597000", "111709.596000", "111712.097000", "111714.097000", "111716.097000", "111717.597000", "111719.597000", "111722.097000", "111724.097000", "111725.597000", "111728.096000", "111730.097000", "111731.597000", "111733.598000", "111736.098000", "111738.098000", "111740.098000", "111742.098000", "111744.097000", "111745.596000", "111747.598000", "111750.097000", "111752.098000", "111753.598000", "111756.098000", "111758.098000", "111759.598000", "111801.596000", "111803.597000", "111806.098000", "111808.098000", "111809.597000", "111811.597000", "111813.597000", "111816.097000", "111818.098000", "111820.097000", "111821.598000", "111824.097000", "111826.098000", "111828.097000", "111830.098000", "111831.597000", "111833.598000", "111835.597000", "111838.097000", "111839.597000", "111842.098000", "111843.598000", "111846.097000", "111847.597000", "111849.598000", "111851.597000", "111854.097000", "111856.097000", "111857.597000", "111859.597000", "111901.597000", "111904.097000", "111905.597000", "111908.098000", "111910.098000", "111912.097000", "111914.098000", "111916.097000", "111917.597000", "111919.598000", "111921.597000", "111923.597000", "111925.570000"],
      "InstanceCreationTime": ["111144.101000", "111146.097000", "111148.097000", "111149.598000", "111151.597000", "111153.597000", "111156.096000", "111158.097000", "111200.097000", "111201.597000", "111203.597000", "111205.597000", "111208.097000", "111209.598000", "111212.096000", "111214.097000", "111216.097000", "111218.098000", "111220.097000", "111222.097000", "111223.598000", "111225.598000", "111228.097000", "111230.096000", "111231.597000", "111233.597000", "111236.097000", "111237.598000", "111239.597000", "111242.097000", "111243.598000", "111245.598000", "111248.097000", "111250.098000", "111252.098000", "111253.598000", "111256.097000", "111258.097000", "111259.597000", "111302.098000", "111304.096000", "111306.097000", "111308.098000", "111309.597000", "111312.097000", "111314.097000", "111315.597000", "111318.098000", "111320.097000", "111321.596000", "111323.597000", "111325.597000", "111327.597000", "111330.097000", "111331.597000", "111333.598000", "111335.597000", "111338.098000", "111340.096000", "111341.597000", "111343.597000", "111346.097000", "111347.598000", "111350.098000", "111352.097000", "111353.597000", "111356.097000", "111358.097000", "111359.597000", "111401.598000", "111403.597000", "111405.597000", "111407.598000", "111409.598000", "111411.598000", "111414.097000", "111415.596000", "111418.097000", "111419.597000", "111422.097000", "111423.597000", "111425.597000", "111428.098000", "111429.598000", "111431.596000", "111433.596000", "111435.598000", "111437.597000", "111439.598000", "111442.097000", "111444.098000", "111446.097000", "111447.597000", "111449.597000", "111451.596000", "111453.597000", "111456.098000", "111457.597000", "111500.097000", "111501.598000", "111504.097000", "111505.597000", "111507.597000", "111510.098000", "111511.598000", "111514.098000", "111515.597000", "111517.597000", "111520.097000", "111522.098000", "111524.096000", "111526.096000", "111528.097000", "111530.098000", "111531.598000", "111534.098000", "111536.098000", "111537.597000", "111540.098000", "111541.596000", "111544.096000", "111545.598000", "111548.097000", "111549.597000", "111552.097000", "111554.097000", "111556.097000", "111557.597000", "111600.097000", "111601.596000", "111603.597000", "111606.098000", "111608.109000", "111610.098000", "111612.097000", "111614.098000", "111615.598000", "111617.597000", "111620.098000", "111621.597000", "111624.097000", "111625.598000", "111628.097000", "111629.598000", "111632.097000", "111634.097000", "111636.097000", "111637.598000", "111640.098000", "111642.097000", "111643.598000", "111646.097000", "111648.097000", "111650.097000", "111651.596000", "111654.097000", "111656.098000", "111657.597000", "111659.598000", "111702.098000", "111703.597000", "111706.098000", "111707.597000", "111709.596000", "111712.097000", "111714.097000", "111716.097000", "111717.597000", "111719.597000", "111722.097000", "111724.097000", "111725.597000", "111728.096000", "111730.097000", "111731.597000", "111733.598000", "111736.098000", "111738.098000", "111740.098000", "111742.098000", "111744.097000", "111745.596000", "111747.598000", "111750.097000", "111752.098000", "111753.598000", "111756.098000", "111758.098000", "111759.598000", "111801.596000", "111803.597000", "111806.098000", "111808.098000", "111809.597000", "111811.597000", "111813.597000", "111816.097000", "111818.098000", "111820.097000", "111821.598000", "111824.097000", "111826.098000", "111828.097000", "111830.098000", "111831.597000", "111833.598000", "111835.597000", "111838.097000", "111839.597000", "111842.098000", "111843.598000", "111846.097000", "111847.597000", "111849.598000", "111851.597000", "111854.097000", "111856.097000", "111857.597000", "111859.597000", "111901.597000", "111904.097000", "111905.597000", "111908.098000", "111910.098000", "111912.097000", "111914.098000", "111916.097000", "111917.597000", "111919.598000", "111921.597000", "111923.597000", "111925.570000"],
      "InstanceNumber": [1, 2, 3, 4, 5, 6, 7, 8, 9, 10, 11, 12, 13, 14, 15, 16, 17, 18, 19, 20, 21, 22, 23, 24, 25, 26, 27, 28, 29, 30, 31, 32, 33, 34, 35, 36, 37, 38, 39, 40, 41, 42, 43, 44, 45, 46, 47, 48, 49, 50, 51, 52, 53, 54, 55, 56, 57, 58, 59, 60, 61, 62, 63, 64, 65, 66, 67, 68, 69, 70, 71, 72, 73, 74, 75, 76, 77, 78, 79, 80, 81, 82, 83, 84, 85, 86, 87, 88, 89, 90, 91, 92, 93, 94, 95, 96, 97, 98, 99, 100, 101, 102, 103, 104, 105, 106, 107, 108, 109, 110, 111, 112, 113, 114, 115, 116, 117, 118, 119, 120, 121, 122, 123, 124, 125, 126, 127, 128, 129, 130, 131, 132, 133, 134, 135, 136, 137, 138, 139, 140, 141, 142, 143, 144, 145, 146, 147, 148, 149, 150, 151, 152, 153, 154, 155, 156, 157, 158, 159, 160, 161, 162, 163, 164, 165, 166, 167, 168, 169, 170, 171, 172, 173, 174, 175, 176, 177, 178, 179, 180, 181, 182, 183, 184, 185, 186, 187, 188, 189, 190, 191, 192, 193, 194, 195, 196, 197, 198, 199, 200, 201, 202, 203, 204, 205, 206, 207, 208, 209, 210, 211, 212, 213, 214, 215, 216, 217, 218, 219, 220, 221, 222, 223, 224, 225, 226, 227, 228, 229, 230, 231, 232],
      "LargestImagePixelValue": [2768, 2746, 2730, 2722, 2728, 2739, 2743, 2782, 2801, 2754, 2709, 2696, 2696, 2711, 2711, 2707, 2743, 2757, 2766, 2746, 2724, 2716, 2718, 2707, 2756, 2742, 2738, 2716, 2709, 2709, 2732, 2688, 2682, 2713, 2726, 2739, 2743, 2754, 2741, 2753, 2727, 2738, 2779, 2731, 2709, 2770, 2735, 2689, 2714, 2577, 2789, 2829, 2821, 2692, 2607, 2781, 2692, 2629, 2647, 2663, 2658, 2653, 2703, 2690, 2726, 2678, 2659, 2643, 2691, 2669, 2701, 2676, 2714, 2695, 2686, 2649, 2649, 2664, 2666, 2683, 2703, 2660, 2707, 2880, 2788, 2683, 2750, 2797, 2654, 2639, 2629, 2657, 2674, 2640, 2663, 2636, 2666, 2708, 2690, 2693, 2726, 2707, 2730, 2711, 2701, 2666, 2700, 2686, 2725, 2735, 2702, 2650, 2717, 2714, 2810, 2804, 2775, 2881, 2729, 2706, 2734, 2701, 2720, 2726, 2713, 2741, 2721, 2763, 2765, 2742, 2718, 2745, 2727, 2712, 2748, 2723, 2699, 2724, 2679, 2702, 2701, 2742, 2735, 2802, 2792, 2806, 2609, 2754, 2640, 2558, 2865, 2654, 2693, 2656, 2667, 2664, 2691, 2683, 2778, 2743, 2755, 2724, 2687, 2664, 2663, 2676, 2661, 2708, 2706, 2687, 2663, 2661, 2707, 2714, 2688, 2675, 2687, 2680, 2869, 2730, 2667, 2679, 2745, 2635, 2719, 2683, 2630, 2759, 2676, 2621, 2642, 2674, 2650, 2684, 2673, 2687, 2675, 2686, 2668, 2709, 2673, 2702, 2691, 2645, 2625, 2675, 2801, 2766, 2840, 2792, 2816, 2819, 2838, 2819, 2828, 2770, 2697, 2624, 2609, 2642, 2646, 2637, 2657, 2628, 2618, 2676, 2670, 2696, 2698, 2707, 2729, 2734],
      "WindowCenter": [726.0, 724.0, 724.0, 725.0, 727.0, 730.0, 730.0, 730.0, 730.0, 729.0, 729.0, 729.0, 730.0, 730.0, 730.0, 730.0, 731.0, 732.0, 732.0, 731.0, 730.0, 730.0, 730.0, 730.0, 731.0, 731.0, 732.0, 731.0, 730.0, 730.0, 730.0, 729.0, 730.0, 731.0, 731.0, 731.0, 731.0, 730.0, 729.0, 729.0, 730.0, 731.0, 732.0, 731.0, 730.0, 730.0, 730.0, 730.0, 731.0, 731.0, 732.0, 733.0, 732.0, 730.0, 728.0, 730.0, 724.0, 724.0, 724.0, 725.0, 727.0, 728.0, 729.0, 729.0, 729.0, 728.0, 727.0, 727.0, 727.0, 728.0, 730.0, 729.0, 729.0, 728.0, 729.0, 728.0, 728.0, 728.0, 728.0, 728.0, 729.0, 729.0, 730.0, 735.0, 728.0, 730.0, 733.0, 733.0, 727.0, 729.0, 728.0, 730.0, 730.0, 730.0, 730.0, 730.0, 730.0, 732.0, 730.0, 731.0, 731.0, 731.0, 733.0, 732.0, 728.0, 726.0, 726.0, 726.0, 726.0, 727.0, 729.0, 730.0, 730.0, 730.0, 731.0, 730.0, 729.0, 731.0, 728.0, 726.0, 725.0, 724.0, 724.0, 724.0, 726.0, 727.0, 728.0, 728.0, 728.0, 729.0, 728.0, 729.0, 728.0, 729.0, 730.0, 729.0, 729.0, 729.0, 731.0, 731.0, 731.0, 731.0, 731.0, 731.0, 731.0, 730.0, 728.0, 727.0, 723.0, 718.0, 727.0, 719.0, 727.0, 728.0, 730.0, 731.0, 729.0, 726.0, 726.0, 727.0, 729.0, 730.0, 728.0, 725.0, 724.0, 724.0, 724.0, 726.0, 728.0, 729.0, 729.0, 729.0, 728.0, 728.0, 727.0, 728.0, 729.0, 729.0, 735.0, 730.0, 728.0, 728.0, 726.0, 728.0, 728.0, 728.0, 730.0, 732.0, 732.0, 732.0, 731.0, 730.0, 728.0, 729.0, 729.0, 729.0, 729.0, 729.0, 730.0, 730.0, 730.0, 733.0, 733.0, 732.0, 731.0, 730.0, 730.0, 728.0, 726.0, 728.0, 729.0, 730.0, 731.0, 731.0, 731.0, 732.0, 731.0, 732.0, 731.0, 731.0, 730.0, 731.0, 733.0, 733.0, 731.0, 730.0, 729.0, 729.0, 729.0, 729.0, 730.0, 731.0],
      "WindowWidth": [1557.0, 1553.0, 1553.0, 1555.0, 1560.0, 1566.0, 1567.0, 1567.0, 1568.0, 1565.0, 1565.0, 1566.0, 1567.0, 1567.0, 1568.0, 1568.0, 1569.0, 1572.0, 1572.0, 1570.0, 1568.0, 1568.0, 1567.0, 1567.0, 1569.0, 1570.0, 1571.0, 1570.0, 1568.0, 1568.0, 1568.0, 1566.0, 1567.0, 1569.0, 1570.0, 1570.0, 1569.0, 1567.0, 1564.0, 1565.0, 1567.0, 1571.0, 1573.0, 1569.0, 1566.0, 1567.0, 1567.0, 1566.0, 1569.0, 1569.0, 1574.0, 1574.0, 1574.0, 1567.0, 1563.0, 1567.0, 1552.0, 1552.0, 1552.0, 1554.0, 1558.0, 1562.0, 1565.0, 1565.0, 1565.0, 1562.0, 1560.0, 1559.0, 1560.0, 1562.0, 1566.0, 1564.0, 1565.0, 1563.0, 1565.0, 1561.0, 1562.0, 1561.0, 1562.0, 1562.0, 1565.0, 1566.0, 1569.0, 1582.0, 1564.0, 1568.0, 1575.0, 1575.0, 1562.0, 1564.0, 1563.0, 1566.0, 1568.0, 1567.0, 1568.0, 1567.0, 1568.0, 1573.0, 1568.0, 1569.0, 1569.0, 1570.0, 1575.0, 1573.0, 1563.0, 1556.0, 1557.0, 1556.0, 1558.0, 1560.0, 1564.0, 1566.0, 1568.0, 1567.0, 1570.0, 1565.0, 1564.0, 1568.0, 1562.0, 1557.0, 1553.0, 1550.0, 1551.0, 1552.0, 1556.0, 1559.0, 1562.0, 1563.0, 1562.0, 1565.0, 1562.0, 1564.0, 1563.0, 1565.0, 1567.0, 1566.0, 1564.0, 1566.0, 1570.0, 1571.0, 1570.0, 1570.0, 1569.0, 1569.0, 1568.0, 1567.0, 1564.0, 1559.0, 1550.0, 1536.0, 1560.0, 1539.0, 1558.0, 1561.0, 1566.0, 1569.0, 1563.0, 1558.0, 1557.0, 1558.0, 1565.0, 1566.0, 1562.0, 1555.0, 1551.0, 1551.0, 1552.0, 1557.0, 1561.0, 1565.0, 1565.0, 1563.0, 1562.0, 1561.0, 1561.0, 1562.0, 1564.0, 1566.0, 1580.0, 1567.0, 1564.0, 1562.0, 1558.0, 1562.0, 1562.0, 1563.0, 1567.0, 1574.0, 1572.0, 1572.0, 1569.0, 1568.0, 1563.0, 1565.0, 1565.0, 1565.0, 1565.0, 1564.0, 1566.0, 1567.0, 1567.0, 1574.0, 1574.0, 1573.0, 1571.0, 1567.0, 1566.0, 1561.0, 1557.0, 1562.0, 1564.0, 1566.0, 1568.0, 1568.0, 1570.0, 1573.0, 1571.0, 1571.0, 1570.0, 1569.0, 1568.0, 1568.0, 1574.0, 1575.0, 1570.0, 1568.0, 1565.0, 1565.0, 1563.0, 1564.0, 1567.0, 1569.0]
    },
    "slices": {}
  }
}