{
  "AcquisitionMatrixPE": 100,
  "AcquisitionNumber": 1,
  "AcquisitionTime": "10:42:57.352500",
  "BandwidthPerPixelPhaseEncode": 18.519,
  "BaseResolution": 100,
  "BodyPartExamined": "BRAIN",
  "ConsistencyInfo": "N4_VE11C_LATEST_20160120",
  "ConversionSoftware": "dcm2niix",
  "ConversionSoftwareVersion": "v1.0.20180622 GCC4.9.2",
  "DerivedVendorReportedEchoSpacing": 0.000539986,
  "DeviceSerialNumber": "166078",
  "DwellTime": 2.1e-06,
  "EchoTime": 0.034,
  "EchoTrainLength": 100,
  "EffectiveEchoSpacing": 0.000539986,
  "FlipAngle": 90,
  "ImageOrientationPatientDICOM": [1, 0, 0, 0, 0.998342, -0.057564],
  "ImageType": [
    "ORIGINAL",
    "PRIMARY",
    "M",
    "ND",
    "MOSAIC"
],
  "InPlanePhaseEncodingDirectionDICOM": "COL",
  "InstitutionAddress": "Street_StreetNo_Bei_Jing_District_CN_ZIP",
  "InstitutionName": "BeiJing_Normal_University",
  "InstitutionalDepartmentName": "Department",
  "MRAcquisitionType": "2D",
  "MagneticFieldStrength": 3,
  "Manufacturer": "Siemens",
  "ManufacturersModelName": "Prisma",
  "Modality": "MR",
  "MultibandAccelerationFactor": 3,
  "PartialFourier": 1,
  "PatientPosition": "HFS",
  "PercentPhaseFOV": 100,
  "PhaseEncodingDirection": "j-",
  "PhaseEncodingSteps": 100,
  "PhaseResolution": 1,
  "PixelBandwidth": 2380,
  "ProcedureStepDescription": "BNU_P2018_64CH_Liu.Jia",
  "ProtocolName": "bold_100x100_s3_2x2x2_232",
  "PulseSequenceDetails": "%SiemensSeq%_ep2d_bold",
  "ReceiveCoilActiveElements": "HC1-7;NC1",
  "ReceiveCoilName": "HeadNeck_64",
  "ReconMatrixPE": 100,
  "RepetitionTime": 2,
  "SAR": 0.0589375,
  "ScanOptions": "FS",
  "ScanningSequence": "EP",
  "SequenceName": "_epfid2d1_100",
  "SequenceVariant": "SK",
  "SeriesDescription": "bold_100x100_s3_2x2x2_232",
  "SeriesNumber": 4,
  "ShimSetting": [-5461, -11492, -1350, 335, -54, -131, -130, 50],
  "SliceThickness": 2,
  "SliceTiming": [1.485, 0, 0.99, 0.0825, 1.0725, 0.165, 1.155, 0.2475, 1.2375, 0.33, 1.32, 0.4125, 1.4025, 0.5775, 1.5675, 0.66, 1.65, 0.7425, 1.7325, 0.825, 1.815, 0.9075, 1.8975, 0.495, 1.485, 0, 0.99, 0.0825, 1.0725, 0.165, 1.155, 0.2475, 1.2375, 0.33, 1.32, 0.4125, 1.4025, 0.5775, 1.5675, 0.66, 1.65, 0.7425, 1.7325, 0.825, 1.815, 0.9075, 1.8975, 0.495, 1.485, 0, 0.99, 0.0825, 1.0725, 0.165, 1.155, 0.2475, 1.2375, 0.33, 1.32, 0.4125, 1.4025, 0.5775, 1.5675, 0.66, 1.65, 0.7425, 1.7325, 0.825, 1.815, 0.9075, 1.8975, 0.495],
  "SoftwareVersions": "syngo_MR_E11",
  "SpacingBetweenSlices": 2,
  "StationName": "AWP166078",
  "TaskName": "motor",
  "TotalReadoutTime": 0.0534586,
  "TxRefAmp": 210.908,
  "dcmmeta_affine": [
    [-2.0, 0.0, 0.0, 101.34939575195312],
    [0.0, 1.9966835975646973, -0.1151280626654625, -82.51671600341797],
    [0.0, 0.1151280552148819, 1.9966837167739868, -74.05607604980469],
    [0.0, 0.0, 0.0, 1.0]
],
  "dcmmeta_reorient_transform": [
    [0.0, -1.0, 0.0, 99.0],
    [1.0, 0.0, 0.0, 0.0],
    [0.0, 0.0, 1.0, 0.0],
    [0.0, 0.0, 0.0, 1.0]
],
  "dcmmeta_shape": [100, 100, 72, 232],
  "dcmmeta_slice_dim": 2,
  "dcmmeta_version": 0.6,
  "global": {
    "const": {
      "AcquisitionMatrix": [100, 0, 0, 100],
      "AngioFlag": "N",
      "BitsAllocated": 16,
      "BitsStored": 12,
      "BodyPartExamined": "BRAIN",
      "Columns": 900,
      "EchoNumbers": 1,
      "EchoTime": 34.0,
      "EchoTrainLength": 100,
      "FlipAngle": 90.0,
      "HighBit": 11,
      "ImageOrientationPatient": [1.0, 0.0, 0.0, 0.0, 0.99834181651793, -0.0575640286263],
      "ImagePositionPatient": [-901.34939754009, -913.82841562023, -16.6071767876],
      "ImageType": [
        "ORIGINAL",
        "PRIMARY",
        "M",
        "ND",
        "MOSAIC"
],
      "ImagedNucleus": "1H",
      "ImagingFrequency": 123.257871,
      "InPlanePhaseEncodingDirection": "COL",
      "MRAcquisitionType": "2D",
      "MagneticFieldStrength": 3.0,
      "Manufacturer": "SIEMENS",
      "ManufacturerModelName": "Prisma",
      "Modality": "MR",
      "NumberOfAverages": 1.0,
      "NumberOfPhaseEncodingSteps": 100,
      "PercentPhaseFieldOfView": 100.0,
      "PercentSampling": 100.0,
      "PerformedProcedureStepStartTime": "103115.060000",
      "PhotometricInterpretation": "MONOCHROME2",
      "PixelBandwidth": 2380.0,
      "PixelRepresentation": 0,
      "PixelSpacing": [2.0, 2.0],
      "ProtocolName": "bold_100x100_s3_2x2x2_232",
      "RepetitionTime": 2000.0,
      "Rows": 900,
      "SAR": 0.05893749681943,
      "SamplesPerPixel": 1,
      "ScanOptions": "FS",
      "ScanningSequence": "EP",
      "SequenceName": "*epfid2d1_100",
      "SequenceVariant": "SK",
      "SeriesDescription": "bold_100x100_s3_2x2x2_232",
      "SeriesNumber": 4,
      "SeriesTime": "104259.454000",
      "SliceLocation": -69.183284117655,
      "SliceThickness": 2.0,
      "SmallestImagePixelValue": 0,
      "SoftwareVersions": "syngo MR E11",
      "SpacingBetweenSlices": 2.0000000515492,
      "SpecificCharacterSet": "ISO_IR 100",
      "StudyID": "1",
      "StudyTime": "103115.001000",
      "TransmitCoilName": "Body",
      "VariableFlipAngleFlag": "N",
      "WindowCenterWidthExplanation": "Algo1",
      "dBdt": 0.0},
    "slices": {}
  },
  "time": {
    "samples": {
      "AcquisitionNumber": [1, 2, 3, 4, 5, 6, 7, 8, 9, 10, 11, 12, 13, 14, 15, 16, 17, 18, 19, 20, 21, 22, 23, 24, 25, 26, 27, 28, 29, 30, 31, 32, 33, 34, 35, 36, 37, 38, 39, 40, 41, 42, 43, 44, 45, 46, 47, 48, 49, 50, 51, 52, 53, 54, 55, 56, 57, 58, 59, 60, 61, 62, 63, 64, 65, 66, 67, 68, 69, 70, 71, 72, 73, 74, 75, 76, 77, 78, 79, 80, 81, 82, 83, 84, 85, 86, 87, 88, 89, 90, 91, 92, 93, 94, 95, 96, 97, 98, 99, 100, 101, 102, 103, 104, 105, 106, 107, 108, 109, 110, 111, 112, 113, 114, 115, 116, 117, 118, 119, 120, 121, 122, 123, 124, 125, 126, 127, 128, 129, 130, 131, 132, 133, 134, 135, 136, 137, 138, 139, 140, 141, 142, 143, 144, 145, 146, 147, 148, 149, 150, 151, 152, 153, 154, 155, 156, 157, 158, 159, 160, 161, 162, 163, 164, 165, 166, 167, 168, 169, 170, 171, 172, 173, 174, 175, 176, 177, 178, 179, 180, 181, 182, 183, 184, 185, 186, 187, 188, 189, 190, 191, 192, 193, 194, 195, 196, 197, 198, 199, 200, 201, 202, 203, 204, 205, 206, 207, 208, 209, 210, 211, 212, 213, 214, 215, 216, 217, 218, 219, 220, 221, 222, 223, 224, 225, 226, 227, 228, 229, 230, 231, 232],
      "AcquisitionTime": ["104257.352500", "104259.352500", "104301.352500", "104303.352500", "104305.352500", "104307.352500", "104309.352500", "104311.352500", "104313.352500", "104315.352500", "104317.352500", "104319.352500", "104321.352500", "104323.352500", "104325.352500", "104327.352500", "104329.352500", "104331.352500", "104333.352500", "104335.352500", "104337.352500", "104339.352500", "104341.352500", "104343.352500", "104345.352500", "104347.352500", "104349.352500", "104351.352500", "104353.352500", "104355.352500", "104357.352500", "104359.352500", "104401.352500", "104403.352500", "104405.352500", "104407.352500", "104409.352500", "104411.352500", "104413.352500", "104415.352500", "104417.352500", "104419.352500", "104421.352500", "104423.352500", "104425.352500", "104427.352500", "104429.352500", "104431.352500", "104433.352500", "104435.352500", "104437.352500", "104439.352500", "104441.352500", "104443.352500", "104445.352500", "104447.352500", "104449.352500", "104451.352500", "104453.352500", "104455.352500", "104457.352500", "104459.352500", "104501.352500", "104503.352500", "104505.352500", "104507.352500", "104509.352500", "104511.352500", "104513.352500", "104515.352500", "104517.352500", "104519.352500", "104521.352500", "104523.352500", "104525.352500", "104527.352500", "104529.352500", "104531.352500", "104533.352500", "104535.352500", "104537.352500", "104539.352500", "104541.352500", "104543.352500", "104545.352500", "104547.352500", "104549.352500", "104551.352500", "104553.352500", "104555.352500", "104557.352500", "104559.352500", "104601.352500", "104603.352500", "104605.352500", "104607.352500", "104609.352500", "104611.352500", "104613.352500", "104615.352500", "104617.352500", "104619.352500", "104621.352500", "104623.352500", "104625.352500", "104627.352500", "104629.352500", "104631.352500", "104633.352500", "104635.352500", "104637.352500", "104639.352500", "104641.352500", "104643.352500", "104645.352500", "104647.352500", "104649.352500", "104651.352500", "104653.352500", "104655.352500", "104657.352500", "104659.352500", "104701.352500", "104703.352500", "104705.352500", "104707.352500", "104709.352500", "104711.352500", "104713.352500", "104715.352500", "104717.352500", "104719.352500", "104721.352500", "104723.352500", "104725.352500", "104727.352500", "104729.352500", "104731.352500", "104733.352500", "104735.352500", "104737.352500", "104739.352500", "104741.352500", "104743.352500", "104745.352500", "104747.352500", "104749.352500", "104751.352500", "104753.352500", "104755.352500", "104757.352500", "104759.352500", "104801.352500", "104803.352500", "104805.352500", "104807.352500", "104809.352500", "104811.352500", "104813.352500", "104815.352500", "104817.352500", "104819.352500", "104821.352500", "104823.352500", "104825.352500", "104827.352500", "104829.352500", "104831.352500", "104833.352500", "104835.352500", "104837.352500", "104839.352500", "104841.352500", "104843.352500", "104845.352500", "104847.352500", "104849.352500", "104851.352500", "104853.352500", "104855.352500", "104857.352500", "104859.352500", "104901.352500", "104903.352500", "104905.352500", "104907.352500", "104909.352500", "104911.352500", "104913.352500", "104915.352500", "104917.352500", "104919.352500", "104921.352500", "104923.352500", "104925.352500", "104927.352500", "104929.352500", "104931.352500", "104933.352500", "104935.352500", "104937.352500", "104939.352500", "104941.352500", "104943.352500", "104945.352500", "104947.352500", "104949.352500", "104951.352500", "104953.352500", "104955.352500", "104957.352500", "104959.352500", "105001.352500", "105003.352500", "105005.352500", "105007.352500", "105009.352500", "105011.352500", "105013.352500", "105015.352500", "105017.352500", "105019.352500", "105021.352500", "105023.352500", "105025.352500", "105027.352500", "105029.352500", "105031.352500", "105033.352500", "105035.352500", "105037.352500", "105039.352500"],
      "ContentTime": ["104259.458000", "104300.954000", "104302.954000", "104304.952000", "104306.953000", "104308.953000", "104310.953000", "104312.953000", "104314.953000", "104316.953000", "104318.953000", "104321.453000", "104322.952000", "104324.953000", "104326.953000", "104328.953000", "104330.953000", "104332.953000", "104334.953000", "104336.953000", "104338.954000", "104340.953000", "104342.953000", "104344.953000", "104346.953000", "104348.954000", "104350.953000", "104352.953000", "104354.953000", "104356.952000", "104358.953000", "104400.953000", "104402.953000", "104404.953000", "104406.953000", "104408.953000", "104410.953000", "104412.954000", "104414.953000", "104416.953000", "104418.954000", "104420.953000", "104422.953000", "104424.953000", "104426.954000", "104428.953000", "104430.954000", "104432.952000", "104434.953000", "104436.953000", "104438.953000", "104440.953000", "104442.953000", "104444.953000", "104446.953000", "104448.953000", "104450.954000", "104452.953000", "104454.953000", "104456.953000", "104458.953000", "104500.953000", "104502.953000", "104504.953000", "104506.952000", "104508.953000", "104510.953000", "104512.954000", "104514.953000", "104516.954000", "104518.954000", "104520.953000", "104522.953000", "104524.952000", "104526.953000", "104528.953000", "104530.953000", "104532.954000", "104534.953000", "104536.954000", "104538.954000", "104540.953000", "104542.952000", "104544.954000", "104546.953000", "104548.953000", "104550.953000", "104552.953000", "104554.953000", "104556.953000", "104558.953000", "104600.953000", "104602.953000", "104604.953000", "104606.953000", "104608.953000", "104610.953000", "104612.953000", "104614.953000", "104616.953000", "104618.954000", "104620.954000", "104622.953000", "104624.954000", "104626.953000", "104628.953000", "104630.953000", "104632.953000", "104634.952000", "104636.954000", "104638.953000", "104640.953000", "104642.954000", "104644.953000", "104646.953000", "104648.953000", "104650.953000", "104652.953000", "104654.953000", "104656.953000", "104658.953000", "104700.953000", "104702.953000", "104704.953000", "104706.953000", "104708.953000", "104710.953000", "104712.953000", "104714.953000", "104716.953000", "104718.953000", "104720.954000", "104723.462000", "104724.953000", "104726.952000", "104728.953000", "104730.954000", "104732.953000", "104734.953000", "104736.954000", "104738.953000", "104740.953000", "104742.953000", "104744.953000", "104746.954000", "104748.953000", "104750.953000", "104752.953000", "104754.953000", "104756.953000", "104758.953000", "104800.953000", "104802.953000", "104804.953000", "104806.954000", "104808.953000", "104810.954000", "104812.953000", "104814.953000", "104816.953000", "104818.953000", "104820.953000", "104822.953000", "104824.953000", "104826.953000", "104828.954000", "104830.953000", "104832.953000", "104834.953000", "104836.952000", "104838.954000", "104840.954000", "104842.953000", "104844.954000", "104846.954000", "104848.954000", "104850.954000", "104852.953000", "104854.953000", "104856.953000", "104858.953000", "104900.953000", "104902.953000", "104904.953000", "104906.953000", "104908.954000", "104910.953000", "104912.952000", "104914.954000", "104916.953000", "104918.953000", "104920.953000", "104922.954000", "104924.954000", "104926.953000", "104928.954000", "104930.953000", "104932.954000", "104934.953000", "104936.953000", "104938.953000", "104940.953000", "104942.953000", "104944.953000", "104946.952000", "104948.953000", "104950.953000", "104952.953000", "104954.953000", "104956.953000", "104958.953000", "105000.953000", "105002.953000", "105004.952000", "105006.954000", "105008.953000", "105010.953000", "105012.953000", "105014.953000", "105016.953000", "105018.954000", "105020.953000", "105022.952000", "105024.953000", "105026.954000", "105028.953000", "105030.953000", "105032.953000", "105034.953000", "105036.953000", "105038.953000", "105040.747000"],
      "InstanceCreationTime": ["104259.458000", "104300.954000", "104302.954000", "104304.952000", "104306.953000", "104308.953000", "104310.953000", "104312.953000", "104314.953000", "104316.953000", "104318.953000", "104321.453000", "104322.952000", "104324.953000", "104326.953000", "104328.953000", "104330.953000", "104332.953000", "104334.953000", "104336.953000", "104338.954000", "104340.953000", "104342.953000", "104344.953000", "104346.953000", "104348.954000", "104350.953000", "104352.953000", "104354.953000", "104356.952000", "104358.953000", "104400.953000", "104402.953000", "104404.953000", "104406.953000", "104408.953000", "104410.953000", "104412.954000", "104414.953000", "104416.953000", "104418.954000", "104420.953000", "104422.953000", "104424.953000", "104426.954000", "104428.953000", "104430.954000", "104432.952000", "104434.953000", "104436.953000", "104438.953000", "104440.953000", "104442.953000", "104444.953000", "104446.953000", "104448.953000", "104450.954000", "104452.953000", "104454.953000", "104456.953000", "104458.953000", "104500.953000", "104502.953000", "104504.953000", "104506.952000", "104508.953000", "104510.953000", "104512.954000", "104514.953000", "104516.954000", "104518.954000", "104520.953000", "104522.953000", "104524.952000", "104526.953000", "104528.953000", "104530.953000", "104532.954000", "104534.953000", "104536.954000", "104538.954000", "104540.953000", "104542.952000", "104544.954000", "104546.953000", "104548.953000", "104550.953000", "104552.953000", "104554.953000", "104556.953000", "104558.953000", "104600.953000", "104602.953000", "104604.953000", "104606.953000", "104608.953000", "104610.953000", "104612.953000", "104614.953000", "104616.953000", "104618.954000", "104620.954000", "104622.953000", "104624.954000", "104626.953000", "104628.953000", "104630.953000", "104632.953000", "104634.952000", "104636.954000", "104638.953000", "104640.953000", "104642.954000", "104644.953000", "104646.953000", "104648.953000", "104650.953000", "104652.953000", "104654.953000", "104656.953000", "104658.953000", "104700.953000", "104702.953000", "104704.953000", "104706.953000", "104708.953000", "104710.953000", "104712.953000", "104714.953000", "104716.953000", "104718.953000", "104720.954000", "104723.462000", "104724.953000", "104726.952000", "104728.953000", "104730.954000", "104732.953000", "104734.953000", "104736.954000", "104738.953000", "104740.953000", "104742.953000", "104744.953000", "104746.954000", "104748.953000", "104750.953000", "104752.953000", "104754.953000", "104756.953000", "104758.953000", "104800.953000", "104802.953000", "104804.953000", "104806.954000", "104808.953000", "104810.954000", "104812.953000", "104814.953000", "104816.953000", "104818.953000", "104820.953000", "104822.953000", "104824.953000", "104826.953000", "104828.954000", "104830.953000", "104832.953000", "104834.953000", "104836.952000", "104838.954000", "104840.954000", "104842.953000", "104844.954000", "104846.954000", "104848.954000", "104850.954000", "104852.953000", "104854.953000", "104856.953000", "104858.953000", "104900.953000", "104902.953000", "104904.953000", "104906.953000", "104908.954000", "104910.953000", "104912.952000", "104914.954000", "104916.953000", "104918.953000", "104920.953000", "104922.954000", "104924.954000", "104926.953000", "104928.954000", "104930.953000", "104932.954000", "104934.953000", "104936.953000", "104938.953000", "104940.953000", "104942.953000", "104944.953000", "104946.952000", "104948.953000", "104950.953000", "104952.953000", "104954.953000", "104956.953000", "104958.953000", "105000.953000", "105002.953000", "105004.952000", "105006.954000", "105008.953000", "105010.953000", "105012.953000", "105014.953000", "105016.953000", "105018.954000", "105020.953000", "105022.952000", "105024.953000", "105026.954000", "105028.953000", "105030.953000", "105032.953000", "105034.953000", "105036.953000", "105038.953000", "105040.747000"],
      "InstanceNumber": [1, 2, 3, 4, 5, 6, 7, 8, 9, 10, 11, 12, 13, 14, 15, 16, 17, 18, 19, 20, 21, 22, 23, 24, 25, 26, 27, 28, 29, 30, 31, 32, 33, 34, 35, 36, 37, 38, 39, 40, 41, 42, 43, 44, 45, 46, 47, 48, 49, 50, 51, 52, 53, 54, 55, 56, 57, 58, 59, 60, 61, 62, 63, 64, 65, 66, 67, 68, 69, 70, 71, 72, 73, 74, 75, 76, 77, 78, 79, 80, 81, 82, 83, 84, 85, 86, 87, 88, 89, 90, 91, 92, 93, 94, 95, 96, 97, 98, 99, 100, 101, 102, 103, 104, 105, 106, 107, 108, 109, 110, 111, 112, 113, 114, 115, 116, 117, 118, 119, 120, 121, 122, 123, 124, 125, 126, 127, 128, 129, 130, 131, 132, 133, 134, 135, 136, 137, 138, 139, 140, 141, 142, 143, 144, 145, 146, 147, 148, 149, 150, 151, 152, 153, 154, 155, 156, 157, 158, 159, 160, 161, 162, 163, 164, 165, 166, 167, 168, 169, 170, 171, 172, 173, 174, 175, 176, 177, 178, 179, 180, 181, 182, 183, 184, 185, 186, 187, 188, 189, 190, 191, 192, 193, 194, 195, 196, 197, 198, 199, 200, 201, 202, 203, 204, 205, 206, 207, 208, 209, 210, 211, 212, 213, 214, 215, 216, 217, 218, 219, 220, 221, 222, 223, 224, 225, 226, 227, 228, 229, 230, 231, 232],
      "LargestImagePixelValue": [2831, 2750, 2679, 2710, 2696, 2657, 2656, 2659, 2686, 2678, 2664, 2625, 2639, 2647, 2640, 2638, 2656, 2646, 2652, 2634, 2630, 2635, 2660, 2648, 2662, 2585, 2615, 2592, 2635, 2628, 2618, 2621, 2608, 2620, 2656, 2610, 2635, 2690, 2643, 2609, 2639, 2588, 2642, 2667, 2656, 2688, 2651, 2633, 2625, 2639, 2703, 2762, 2746, 2676, 2880, 2793, 2678, 2683, 2605, 2610, 2608, 2678, 2684, 2657, 2681, 2677, 2670, 2668, 2700, 2677, 2677, 2644, 2690, 2662, 2669, 2663, 2659, 2692, 2703, 2694, 2701, 2643, 2673, 2663, 2671, 2650, 2653, 2642, 2681, 2622, 2938, 2627, 2947, 2627, 2738, 2812, 2735, 2642, 2628, 2644, 2636, 2667, 2724, 2694, 2662, 2655, 2649, 2655, 2687, 2660, 2701, 2643, 2676, 2705, 2661, 2679, 2641, 2679, 2707, 2696, 2696, 2676, 2632, 2670, 2604, 2571, 2623, 2604, 2645, 2736, 2633, 2600, 2612, 2634, 2598, 2643, 2632, 2774, 2910, 2865, 2928, 2765, 3090, 2710, 2702, 2628, 2634, 2670, 2706, 2686, 2677, 2662, 2646, 2675, 2668, 2609, 2613, 2605, 2599, 2576, 2646, 2603, 2604, 2609, 2610, 2593, 2605, 2601, 3121, 2631, 2633, 2643, 2584, 2610, 2595, 2594, 2624, 2817, 2613, 2727, 2833, 2821, 2887, 2842, 2743, 2561, 2565, 2595, 2619, 2583, 2584, 2599, 2619, 2593, 2619, 2614, 2579, 2619, 2596, 2592, 2616, 2591, 2574, 2600, 2587, 2601, 2615, 2595, 2678, 2648, 2749, 2615, 2645, 2690, 2637, 2641, 2628, 2612, 2589, 2572, 2567, 2592, 2615, 2589, 2705, 2706, 2752, 2706, 2709, 2746, 2726, 2706],
      "WindowCenter": [730.0, 729.0, 729.0, 729.0, 730.0, 730.0, 730.0, 731.0, 730.0, 731.0, 733.0, 733.0, 732.0, 731.0, 731.0, 731.0, 731.0, 731.0, 732.0, 730.0, 731.0, 730.0, 730.0, 730.0, 731.0, 731.0, 733.0, 732.0, 732.0, 730.0, 730.0, 730.0, 730.0, 731.0, 731.0, 730.0, 730.0, 730.0, 730.0, 729.0, 729.0, 729.0, 730.0, 729.0, 729.0, 730.0, 729.0, 730.0, 729.0, 730.0, 733.0, 735.0, 730.0, 729.0, 736.0, 733.0, 727.0, 731.0, 730.0, 731.0, 730.0, 730.0, 729.0, 729.0, 730.0, 731.0, 730.0, 730.0, 730.0, 730.0, 729.0, 729.0, 730.0, 730.0, 731.0, 731.0, 730.0, 729.0, 729.0, 729.0, 729.0, 729.0, 730.0, 730.0, 730.0, 729.0, 729.0, 729.0, 730.0, 729.0, 734.0, 726.0, 736.0, 728.0, 731.0, 729.0, 730.0, 728.0, 731.0, 729.0, 729.0, 729.0, 729.0, 729.0, 729.0, 730.0, 730.0, 730.0, 730.0, 730.0, 730.0, 730.0, 729.0, 730.0, 731.0, 731.0, 729.0, 729.0, 729.0, 729.0, 729.0, 729.0, 730.0, 730.0, 728.0, 727.0, 727.0, 727.0, 728.0, 731.0, 731.0, 730.0, 729.0, 729.0, 728.0, 728.0, 728.0, 728.0, 731.0, 731.0, 729.0, 725.0, 735.0, 725.0, 729.0, 729.0, 729.0, 730.0, 730.0, 731.0, 731.0, 732.0, 731.0, 732.0, 731.0, 729.0, 728.0, 727.0, 727.0, 727.0, 727.0, 729.0, 729.0, 729.0, 729.0, 729.0, 729.0, 729.0, 734.0, 731.0, 731.0, 731.0, 729.0, 729.0, 729.0, 729.0, 730.0, 731.0, 728.0, 730.0, 726.0, 728.0, 730.0, 730.0, 725.0, 728.0, 728.0, 729.0, 729.0, 728.0, 728.0, 728.0, 728.0, 728.0, 729.0, 730.0, 730.0, 730.0, 729.0, 729.0, 729.0, 729.0, 729.0, 729.0, 728.0, 727.0, 727.0, 727.0, 728.0, 728.0, 729.0, 728.0, 729.0, 729.0, 729.0, 729.0, 729.0, 730.0, 730.0, 730.0, 730.0, 729.0, 729.0, 728.0, 728.0, 730.0, 730.0, 729.0, 730.0, 730.0, 729.0, 727.0],
      "WindowWidth": [1571.0, 1566.0, 1566.0, 1568.0, 1569.0, 1570.0, 1570.0, 1571.0, 1570.0, 1573.0, 1577.0, 1576.0, 1574.0, 1572.0, 1571.0, 1571.0, 1572.0, 1573.0, 1575.0, 1570.0, 1571.0, 1569.0, 1570.0, 1570.0, 1572.0, 1572.0, 1577.0, 1576.0, 1574.0, 1571.0, 1570.0, 1570.0, 1570.0, 1571.0, 1573.0, 1570.0, 1568.0, 1570.0, 1568.0, 1567.0, 1567.0, 1568.0, 1568.0, 1568.0, 1568.0, 1568.0, 1567.0, 1568.0, 1568.0, 1570.0, 1578.0, 1584.0, 1570.0, 1568.0, 1585.0, 1577.0, 1562.0, 1573.0, 1570.0, 1571.0, 1569.0, 1569.0, 1566.0, 1567.0, 1570.0, 1571.0, 1570.0, 1569.0, 1570.0, 1570.0, 1568.0, 1566.0, 1568.0, 1570.0, 1573.0, 1572.0, 1570.0, 1568.0, 1566.0, 1566.0, 1566.0, 1566.0, 1568.0, 1569.0, 1569.0, 1567.0, 1566.0, 1566.0, 1569.0, 1567.0, 1581.0, 1559.0, 1585.0, 1565.0, 1572.0, 1567.0, 1569.0, 1564.0, 1570.0, 1567.0, 1565.0, 1567.0, 1566.0, 1567.0, 1565.0, 1569.0, 1569.0, 1569.0, 1569.0, 1568.0, 1570.0, 1568.0, 1568.0, 1569.0, 1573.0, 1571.0, 1566.0, 1566.0, 1566.0, 1565.0, 1565.0, 1567.0, 1570.0, 1570.0, 1564.0, 1561.0, 1561.0, 1561.0, 1564.0, 1572.0, 1571.0, 1568.0, 1567.0, 1566.0, 1565.0, 1564.0, 1563.0, 1567.0, 1572.0, 1572.0, 1565.0, 1557.0, 1583.0, 1557.0, 1567.0, 1567.0, 1567.0, 1569.0, 1570.0, 1571.0, 1572.0, 1573.0, 1572.0, 1573.0, 1572.0, 1566.0, 1563.0, 1561.0, 1561.0, 1561.0, 1560.0, 1566.0, 1568.0, 1568.0, 1568.0, 1568.0, 1567.0, 1568.0, 1580.0, 1571.0, 1573.0, 1572.0, 1568.0, 1567.0, 1567.0, 1567.0, 1567.0, 1572.0, 1564.0, 1569.0, 1559.0, 1565.0, 1568.0, 1569.0, 1557.0, 1562.0, 1564.0, 1566.0, 1566.0, 1564.0, 1564.0, 1564.0, 1564.0, 1564.0, 1567.0, 1570.0, 1569.0, 1569.0, 1567.0, 1567.0, 1566.0, 1566.0, 1567.0, 1566.0, 1563.0, 1561.0, 1562.0, 1561.0, 1564.0, 1564.0, 1566.0, 1563.0, 1566.0, 1567.0, 1565.0, 1566.0, 1567.0, 1568.0, 1569.0, 1570.0, 1569.0, 1566.0, 1566.0, 1564.0, 1564.0, 1568.0, 1569.0, 1565.0, 1569.0, 1568.0, 1565.0, 1561.0]
    },
    "slices": {}
  }
}