{
  "AcquisitionMatrixPE": 100,
  "AcquisitionNumber": 1,
  "AcquisitionTime": "10:51:19.992500",
  "BandwidthPerPixelPhaseEncode": 18.519,
  "BaseResolution": 100,
  "BodyPartExamined": "BRAIN",
  "ConsistencyInfo": "N4_VE11C_LATEST_20160120",
  "ConversionSoftware": "dcm2niix",
  "ConversionSoftwareVersion": "v1.0.20180622 GCC4.9.2",
  "DerivedVendorReportedEchoSpacing": 0.000539986,
  "DeviceSerialNumber": "166078",
  "DwellTime": 2.1e-06,
  "EchoTime": 0.034,
  "EchoTrainLength": 100,
  "EffectiveEchoSpacing": 0.000539986,
  "FlipAngle": 90,
  "ImageOrientationPatientDICOM": [1, 0, 0, 0, 0.998342, -0.057564],
  "ImageType": [
    "ORIGINAL",
    "PRIMARY",
    "M",
    "ND",
    "MOSAIC"
],
  "InPlanePhaseEncodingDirectionDICOM": "COL",
  "InstitutionAddress": "Street_StreetNo_Bei_Jing_District_CN_ZIP",
  "InstitutionName": "BeiJing_Normal_University",
  "InstitutionalDepartmentName": "Department",
  "MRAcquisitionType": "2D",
  "MagneticFieldStrength": 3,
  "Manufacturer": "Siemens",
  "ManufacturersModelName": "Prisma",
  "Modality": "MR",
  "MultibandAccelerationFactor": 3,
  "PartialFourier": 1,
  "PatientPosition": "HFS",
  "PercentPhaseFOV": 100,
  "PhaseEncodingDirection": "j-",
  "PhaseEncodingSteps": 100,
  "PhaseResolution": 1,
  "PixelBandwidth": 2380,
  "ProcedureStepDescription": "BNU_P2018_64CH_Liu.Jia",
  "ProtocolName": "bold_100x100_s3_2x2x2_232",
  "PulseSequenceDetails": "%SiemensSeq%_ep2d_bold",
  "ReceiveCoilActiveElements": "HC1-7;NC1",
  "ReceiveCoilName": "HeadNeck_64",
  "ReconMatrixPE": 100,
  "RepetitionTime": 2,
  "SAR": 0.0589375,
  "ScanOptions": "FS",
  "ScanningSequence": "EP",
  "SequenceName": "_epfid2d1_100",
  "SequenceVariant": "SK",
  "SeriesDescription": "bold_100x100_s3_2x2x2_232",
  "SeriesNumber": 5,
  "ShimSetting": [-5461, -11492, -1350, 335, -54, -131, -130, 50],
  "SliceThickness": 2,
  "SliceTiming": [1.485, 0, 0.99, 0.0825, 1.0725, 0.165, 1.155, 0.2475, 1.2375, 0.33, 1.32, 0.4125, 1.4025, 0.5775, 1.5675, 0.66, 1.65, 0.7425, 1.7325, 0.825, 1.815, 0.9075, 1.8975, 0.495, 1.485, 0, 0.99, 0.0825, 1.0725, 0.165, 1.155, 0.2475, 1.2375, 0.33, 1.32, 0.4125, 1.4025, 0.5775, 1.5675, 0.66, 1.65, 0.7425, 1.7325, 0.825, 1.815, 0.9075, 1.8975, 0.495, 1.485, 0, 0.99, 0.0825, 1.0725, 0.165, 1.155, 0.2475, 1.2375, 0.33, 1.32, 0.4125, 1.4025, 0.5775, 1.5675, 0.66, 1.65, 0.7425, 1.7325, 0.825, 1.815, 0.9075, 1.8975, 0.495],
  "SoftwareVersions": "syngo_MR_E11",
  "SpacingBetweenSlices": 2,
  "StationName": "AWP166078",
  "TaskName": "motor",
  "TotalReadoutTime": 0.0534586,
  "TxRefAmp": 210.908,
  "dcmmeta_affine": [
    [-2.0, 0.0, 0.0, 101.34939575195312],
    [0.0, 1.9966835975646973, -0.1151280626654625, -82.51671600341797],
    [0.0, 0.1151280552148819, 1.9966837167739868, -74.05607604980469],
    [0.0, 0.0, 0.0, 1.0]
],
  "dcmmeta_reorient_transform": [
    [0.0, -1.0, 0.0, 99.0],
    [1.0, 0.0, 0.0, 0.0],
    [0.0, 0.0, 1.0, 0.0],
    [0.0, 0.0, 0.0, 1.0]
],
  "dcmmeta_shape": [100, 100, 72, 232],
  "dcmmeta_slice_dim": 2,
  "dcmmeta_version": 0.6,
  "global": {
    "const": {
      "AcquisitionMatrix": [100, 0, 0, 100],
      "AngioFlag": "N",
      "BitsAllocated": 16,
      "BitsStored": 12,
      "BodyPartExamined": "BRAIN",
      "Columns": 900,
      "EchoNumbers": 1,
      "EchoTime": 34.0,
      "EchoTrainLength": 100,
      "FlipAngle": 90.0,
      "HighBit": 11,
      "ImageOrientationPatient": [1.0, 0.0, 0.0, 0.0, 0.99834181651793, -0.0575640286263],
      "ImagePositionPatient": [-901.34939754009, -913.82841562023, -16.6071767876],
      "ImageType": [
        "ORIGINAL",
        "PRIMARY",
        "M",
        "ND",
        "MOSAIC"
],
      "ImagedNucleus": "1H",
      "ImagingFrequency": 123.257876,
      "InPlanePhaseEncodingDirection": "COL",
      "MRAcquisitionType": "2D",
      "MagneticFieldStrength": 3.0,
      "Manufacturer": "SIEMENS",
      "ManufacturerModelName": "Prisma",
      "Modality": "MR",
      "NumberOfAverages": 1.0,
      "NumberOfPhaseEncodingSteps": 100,
      "PercentPhaseFieldOfView": 100.0,
      "PercentSampling": 100.0,
      "PerformedProcedureStepStartTime": "103115.060000",
      "PhotometricInterpretation": "MONOCHROME2",
      "PixelBandwidth": 2380.0,
      "PixelRepresentation": 0,
      "PixelSpacing": [2.0, 2.0],
      "ProtocolName": "bold_100x100_s3_2x2x2_232",
      "RepetitionTime": 2000.0,
      "Rows": 900,
      "SAR": 0.05893749681943,
      "SamplesPerPixel": 1,
      "ScanOptions": "FS",
      "ScanningSequence": "EP",
      "SequenceName": "*epfid2d1_100",
      "SequenceVariant": "SK",
      "SeriesDescription": "bold_100x100_s3_2x2x2_232",
      "SeriesNumber": 5,
      "SeriesTime": "105122.494000",
      "SliceLocation": -69.183284117655,
      "SliceThickness": 2.0,
      "SmallestImagePixelValue": 0,
      "SoftwareVersions": "syngo MR E11",
      "SpacingBetweenSlices": 2.0000000515492,
      "SpecificCharacterSet": "ISO_IR 100",
      "StudyID": "1",
      "StudyTime": "103115.001000",
      "TransmitCoilName": "Body",
      "VariableFlipAngleFlag": "N",
      "WindowCenterWidthExplanation": "Algo1",
      "dBdt": 0.0},
    "slices": {}
  },
  "time": {
    "samples": {
      "AcquisitionNumber": [1, 2, 3, 4, 5, 6, 7, 8, 9, 10, 11, 12, 13, 14, 15, 16, 17, 18, 19, 20, 21, 22, 23, 24, 25, 26, 27, 28, 29, 30, 31, 32, 33, 34, 35, 36, 37, 38, 39, 40, 41, 42, 43, 44, 45, 46, 47, 48, 49, 50, 51, 52, 53, 54, 55, 56, 57, 58, 59, 60, 61, 62, 63, 64, 65, 66, 67, 68, 69, 70, 71, 72, 73, 74, 75, 76, 77, 78, 79, 80, 81, 82, 83, 84, 85, 86, 87, 88, 89, 90, 91, 92, 93, 94, 95, 96, 97, 98, 99, 100, 101, 102, 103, 104, 105, 106, 107, 108, 109, 110, 111, 112, 113, 114, 115, 116, 117, 118, 119, 120, 121, 122, 123, 124, 125, 126, 127, 128, 129, 130, 131, 132, 133, 134, 135, 136, 137, 138, 139, 140, 141, 142, 143, 144, 145, 146, 147, 148, 149, 150, 151, 152, 153, 154, 155, 156, 157, 158, 159, 160, 161, 162, 163, 164, 165, 166, 167, 168, 169, 170, 171, 172, 173, 174, 175, 176, 177, 178, 179, 180, 181, 182, 183, 184, 185, 186, 187, 188, 189, 190, 191, 192, 193, 194, 195, 196, 197, 198, 199, 200, 201, 202, 203, 204, 205, 206, 207, 208, 209, 210, 211, 212, 213, 214, 215, 216, 217, 218, 219, 220, 221, 222, 223, 224, 225, 226, 227, 228, 229, 230, 231, 232],
      "AcquisitionTime": ["105119.992500", "105121.992500", "105123.992500", "105125.992500", "105127.992500", "105129.992500", "105131.992500", "105133.992500", "105135.992500", "105137.992500", "105139.992500", "105141.992500", "105143.992500", "105145.992500", "105147.992500", "105149.992500", "105151.992500", "105153.992500", "105155.992500", "105157.992500", "105159.992500", "105201.992500", "105203.992500", "105205.992500", "105207.992500", "105209.992500", "105211.992500", "105213.992500", "105215.992500", "105217.992500", "105219.992500", "105221.992500", "105223.992500", "105225.992500", "105227.992500", "105229.992500", "105231.992500", "105233.992500", "105235.992500", "105237.992500", "105239.992500", "105241.992500", "105243.992500", "105245.992500", "105247.992500", "105249.992500", "105251.992500", "105253.992500", "105255.992500", "105257.992500", "105259.992500", "105301.992500", "105303.992500", "105305.992500", "105307.992500", "105309.992500", "105311.992500", "105313.992500", "105315.992500", "105317.992500", "105319.992500", "105321.992500", "105323.992500", "105325.992500", "105327.992500", "105329.992500", "105331.992500", "105333.992500", "105335.992500", "105337.992500", "105339.992500", "105341.992500", "105343.992500", "105345.992500", "105347.992500", "105349.992500", "105351.992500", "105353.992500", "105355.992500", "105357.992500", "105359.992500", "105401.992500", "105403.992500", "105405.992500", "105407.992500", "105409.992500", "105411.992500", "105413.992500", "105415.992500", "105417.992500", "105419.992500", "105421.992500", "105423.992500", "105425.992500", "105427.992500", "105429.992500", "105431.992500", "105433.992500", "105435.992500", "105437.992500", "105439.992500", "105441.992500", "105443.992500", "105445.992500", "105447.992500", "105449.992500", "105451.992500", "105453.992500", "105455.992500", "105457.992500", "105459.992500", "105501.992500", "105503.992500", "105505.992500", "105507.992500", "105509.992500", "105511.992500", "105513.992500", "105515.992500", "105517.992500", "105519.992500", "105521.992500", "105523.992500", "105525.992500", "105527.992500", "105529.992500", "105531.992500", "105533.992500", "105535.992500", "105537.992500", "105539.992500", "105541.992500", "105543.992500", "105545.992500", "105547.992500", "105549.992500", "105551.992500", "105553.992500", "105555.992500", "105557.992500", "105559.992500", "105601.992500", "105603.992500", "105605.992500", "105607.992500", "105609.992500", "105611.992500", "105613.992500", "105615.992500", "105617.992500", "105619.992500", "105621.992500", "105623.992500", "105625.992500", "105627.992500", "105629.992500", "105631.992500", "105633.992500", "105635.992500", "105637.992500", "105639.992500", "105641.992500", "105643.992500", "105645.992500", "105647.992500", "105649.992500", "105651.992500", "105653.992500", "105655.992500", "105657.992500", "105659.992500", "105701.992500", "105703.992500", "105705.992500", "105707.992500", "105709.992500", "105711.992500", "105713.992500", "105715.992500", "105717.992500", "105719.992500", "105721.992500", "105723.992500", "105725.992500", "105727.992500", "105729.992500", "105731.992500", "105733.992500", "105735.992500", "105737.992500", "105739.992500", "105741.992500", "105743.992500", "105745.992500", "105747.992500", "105749.992500", "105751.992500", "105753.992500", "105755.992500", "105757.992500", "105759.992500", "105801.992500", "105803.992500", "105805.992500", "105807.992500", "105809.992500", "105811.992500", "105813.992500", "105815.992500", "105817.992500", "105819.992500", "105821.992500", "105823.992500", "105825.992500", "105827.992500", "105829.992500", "105831.992500", "105833.992500", "105835.992500", "105837.992500", "105839.992500", "105841.992500", "105843.992500", "105845.992500", "105847.992500", "105849.992500", "105851.992500", "105853.992500", "105855.992500", "105857.992500", "105859.992500", "105901.992500"],
      "ContentTime": ["105122.498000", "105123.984000", "105126.484000", "105128.484000", "105130.484000", "105132.484000", "105134.485000", "105135.985000", "105137.984000", "105139.984000", "105141.984000", "105143.984000", "105146.484000", "105148.485000", "105150.484000", "105151.984000", "105154.484000", "105155.984000", "105157.984000", "105159.984000", "105202.485000", "105204.484000", "105205.985000", "105207.984000", "105210.485000", "105212.484000", "105213.985000", "105216.484000", "105218.484000", "105219.984000", "105222.484000", "105224.485000", "105225.985000", "105228.485000", "105230.484000", "105232.484000", "105234.485000", "105236.484000", "105238.485000", "105240.485000", "105242.485000", "105244.484000", "105246.485000", "105248.484000", "105250.484000", "105252.484000", "105253.984000", "105255.984000", "105258.485000", "105259.985000", "105302.484000", "105303.985000", "105305.984000", "105307.984000", "105310.484000", "105312.485000", "105314.485000", "105316.485000", "105318.486000", "105319.984000", "105322.485000", "105323.984000", "105326.484000", "105327.984000", "105330.484000", "105332.484000", "105334.484000", "105335.986000", "105337.985000", "105339.985000", "105341.985000", "105344.484000", "105346.484000", "105347.984000", "105350.484000", "105352.484000", "105354.485000", "105356.484000", "105358.485000", "105359.984000", "105401.984000", "105403.984000", "105406.484000", "105407.984000", "105410.485000", "105411.984000", "105414.484000", "105415.984000", "105417.984000", "105420.484000", "105422.484000", "105424.484000", "105426.485000", "105428.485000", "105429.984000", "105432.484000", "105433.984000", "105435.984000", "105438.484000", "105440.485000", "105442.485000", "105444.484000", "105445.985000", "105447.984000", "105449.984000", "105452.484000", "105454.484000", "105456.484000", "105458.485000", "105500.484000", "105501.985000", "105504.484000", "105506.485000", "105507.984000", "105510.484000", "105512.484000", "105514.484000", "105516.484000", "105518.485000", "105520.486000", "105522.484000", "105524.485000", "105526.484000", "105528.484000", "105530.484000", "105532.485000", "105534.485000", "105536.484000", "105537.985000", "105539.984000", "105542.485000", "105544.484000", "105546.485000", "105548.485000", "105549.984000", "105552.484000", "105554.485000", "105555.986000", "105558.484000", "105600.484000", "105602.484000", "105604.484000", "105605.985000", "105607.984000", "105609.985000", "105611.985000", "105614.484000", "105616.484000", "105618.484000", "105620.484000", "105621.984000", "105624.485000", "105626.484000", "105627.985000", "105629.998000", "105632.485000", "105634.485000", "105635.984000", "105638.486000", "105640.485000", "105642.484000", "105644.485000", "105646.484000", "105648.485000", "105650.485000", "105651.984000", "105654.485000", "105656.484000", "105657.984000", "105700.484000", "105702.485000", "105703.984000", "105706.486000", "105708.484000", "105710.484000", "105711.985000", "105714.484000", "105716.485000", "105718.485000", "105719.985000", "105722.485000", "105724.484000", "105725.984000", "105728.484000", "105730.485000", "105732.484000", "105734.485000", "105735.984000", "105737.984000", "105740.486000", "105741.984000", "105744.485000", "105746.484000", "105747.985000", "105750.484000", "105751.985000", "105754.485000", "105756.484000", "105758.486000", "105759.985000", "105801.985000", "105804.484000", "105805.984000", "105807.984000", "105810.484000", "105812.484000", "105814.485000", "105816.486000", "105817.984000", "105820.484000", "105822.484000", "105824.485000", "105826.484000", "105827.985000", "105830.485000", "105832.484000", "105834.484000", "105836.485000", "105838.485000", "105840.484000", "105842.484000", "105843.985000", "105845.984000", "105847.984000", "105849.985000", "105852.484000", "105854.485000", "105856.485000", "105858.485000", "105859.985000", "105901.984000", "105903.984000"],
      "InstanceCreationTime": ["105122.498000", "105123.984000", "105126.484000", "105128.484000", "105130.484000", "105132.484000", "105134.485000", "105135.985000", "105137.984000", "105139.984000", "105141.984000", "105143.984000", "105146.484000", "105148.485000", "105150.484000", "105151.984000", "105154.484000", "105155.984000", "105157.984000", "105159.984000", "105202.485000", "105204.484000", "105205.985000", "105207.984000", "105210.485000", "105212.484000", "105213.985000", "105216.484000", "105218.484000", "105219.984000", "105222.484000", "105224.485000", "105225.985000", "105228.485000", "105230.484000", "105232.484000", "105234.485000", "105236.484000", "105238.485000", "105240.485000", "105242.485000", "105244.484000", "105246.485000", "105248.484000", "105250.484000", "105252.484000", "105253.984000", "105255.984000", "105258.485000", "105259.985000", "105302.484000", "105303.985000", "105305.984000", "105307.984000", "105310.484000", "105312.485000", "105314.485000", "105316.485000", "105318.486000", "105319.984000", "105322.485000", "105323.984000", "105326.484000", "105327.984000", "105330.484000", "105332.484000", "105334.484000", "105335.986000", "105337.985000", "105339.985000", "105341.985000", "105344.484000", "105346.484000", "105347.984000", "105350.484000", "105352.484000", "105354.485000", "105356.484000", "105358.485000", "105359.984000", "105401.984000", "105403.984000", "105406.484000", "105407.984000", "105410.485000", "105411.984000", "105414.484000", "105415.984000", "105417.984000", "105420.484000", "105422.484000", "105424.484000", "105426.485000", "105428.485000", "105429.984000", "105432.484000", "105433.984000", "105435.984000", "105438.484000", "105440.485000", "105442.485000", "105444.484000", "105445.985000", "105447.984000", "105449.984000", "105452.484000", "105454.484000", "105456.484000", "105458.485000", "105500.484000", "105501.985000", "105504.484000", "105506.485000", "105507.984000", "105510.484000", "105512.484000", "105514.484000", "105516.484000", "105518.485000", "105520.486000", "105522.484000", "105524.485000", "105526.484000", "105528.484000", "105530.484000", "105532.485000", "105534.485000", "105536.484000", "105537.985000", "105539.984000", "105542.485000", "105544.484000", "105546.485000", "105548.485000", "105549.984000", "105552.484000", "105554.485000", "105555.986000", "105558.484000", "105600.484000", "105602.484000", "105604.484000", "105605.985000", "105607.984000", "105609.985000", "105611.985000", "105614.484000", "105616.484000", "105618.484000", "105620.484000", "105621.984000", "105624.485000", "105626.484000", "105627.985000", "105629.998000", "105632.485000", "105634.485000", "105635.984000", "105638.486000", "105640.485000", "105642.484000", "105644.485000", "105646.484000", "105648.485000", "105650.485000", "105651.984000", "105654.485000", "105656.484000", "105657.984000", "105700.484000", "105702.485000", "105703.984000", "105706.486000", "105708.484000", "105710.484000", "105711.985000", "105714.484000", "105716.485000", "105718.485000", "105719.985000", "105722.485000", "105724.484000", "105725.984000", "105728.484000", "105730.485000", "105732.484000", "105734.485000", "105735.984000", "105737.984000", "105740.486000", "105741.984000", "105744.485000", "105746.484000", "105747.985000", "105750.484000", "105751.985000", "105754.485000", "105756.484000", "105758.486000", "105759.985000", "105801.985000", "105804.484000", "105805.984000", "105807.984000", "105810.484000", "105812.484000", "105814.485000", "105816.486000", "105817.984000", "105820.484000", "105822.484000", "105824.485000", "105826.484000", "105827.985000", "105830.485000", "105832.484000", "105834.484000", "105836.485000", "105838.485000", "105840.484000", "105842.484000", "105843.985000", "105845.984000", "105847.984000", "105849.985000", "105852.484000", "105854.485000", "105856.485000", "105858.485000", "105859.985000", "105901.984000", "105903.984000"],
      "InstanceNumber": [1, 2, 3, 4, 5, 6, 7, 8, 9, 10, 11, 12, 13, 14, 15, 16, 17, 18, 19, 20, 21, 22, 23, 24, 25, 26, 27, 28, 29, 30, 31, 32, 33, 34, 35, 36, 37, 38, 39, 40, 41, 42, 43, 44, 45, 46, 47, 48, 49, 50, 51, 52, 53, 54, 55, 56, 57, 58, 59, 60, 61, 62, 63, 64, 65, 66, 67, 68, 69, 70, 71, 72, 73, 74, 75, 76, 77, 78, 79, 80, 81, 82, 83, 84, 85, 86, 87, 88, 89, 90, 91, 92, 93, 94, 95, 96, 97, 98, 99, 100, 101, 102, 103, 104, 105, 106, 107, 108, 109, 110, 111, 112, 113, 114, 115, 116, 117, 118, 119, 120, 121, 122, 123, 124, 125, 126, 127, 128, 129, 130, 131, 132, 133, 134, 135, 136, 137, 138, 139, 140, 141, 142, 143, 144, 145, 146, 147, 148, 149, 150, 151, 152, 153, 154, 155, 156, 157, 158, 159, 160, 161, 162, 163, 164, 165, 166, 167, 168, 169, 170, 171, 172, 173, 174, 175, 176, 177, 178, 179, 180, 181, 182, 183, 184, 185, 186, 187, 188, 189, 190, 191, 192, 193, 194, 195, 196, 197, 198, 199, 200, 201, 202, 203, 204, 205, 206, 207, 208, 209, 210, 211, 212, 213, 214, 215, 216, 217, 218, 219, 220, 221, 222, 223, 224, 225, 226, 227, 228, 229, 230, 231, 232],
      "LargestImagePixelValue": [2794, 2731, 2720, 2767, 2759, 2741, 2749, 2740, 2732, 2757, 2953, 2717, 2734, 2712, 2709, 2723, 2712, 2717, 2698, 2719, 2695, 2666, 2703, 2702, 2723, 2683, 2721, 2718, 2737, 2733, 2752, 2741, 2737, 2728, 2701, 2722, 2706, 2701, 2705, 2704, 2697, 2560, 2820, 2671, 2699, 2842, 2663, 2872, 2742, 2628, 2639, 2580, 2579, 2585, 2608, 2591, 2632, 2617, 2629, 2666, 2715, 2734, 2725, 2716, 2712, 2708, 2702, 2631, 2712, 2611, 2662, 2682, 2640, 2636, 2663, 2680, 2666, 2588, 2687, 2634, 2721, 2674, 2678, 2678, 2702, 2671, 2680, 2672, 2702, 2653, 2655, 2684, 2631, 2659, 2647, 2614, 2714, 2656, 2676, 2653, 2664, 2650, 2619, 2635, 2700, 2797, 2835, 2796, 2903, 2845, 2883, 2638, 2765, 2690, 2707, 2666, 2724, 2717, 2693, 2698, 2704, 2536, 2860, 2911, 2789, 2997, 2684, 2674, 2685, 2682, 2562, 2613, 2582, 2603, 2607, 2587, 2623, 2579, 2613, 2599, 2608, 2632, 2648, 2645, 2663, 2545, 2557, 2572, 2576, 2566, 2608, 2592, 2591, 2593, 2605, 2590, 2602, 2649, 2624, 2598, 2640, 2672, 2679, 2622, 2682, 2674, 2622, 2571, 2688, 2657, 2654, 2664, 2653, 2619, 2664, 2653, 2644, 2603, 2599, 2638, 2580, 2600, 2643, 2617, 2608, 2849, 2907, 2676, 2920, 2768, 2657, 2758, 2760, 2665, 2608, 2586, 2599, 2598, 2617, 2611, 2626, 2600, 2587, 2604, 2584, 2567, 2571, 2600, 2567, 2589, 2570, 2569, 2575, 2602, 2586, 2600, 2617, 2995, 2601, 2816, 2586, 2693, 2624, 2589, 2591, 2638, 2599, 2717, 2666, 2653, 2676, 2676],
      "WindowCenter": [731.0, 729.0, 729.0, 729.0, 729.0, 728.0, 729.0, 729.0, 729.0, 729.0, 732.0, 729.0, 730.0, 729.0, 729.0, 729.0, 730.0, 730.0, 731.0, 731.0, 730.0, 729.0, 729.0, 729.0, 730.0, 729.0, 730.0, 729.0, 729.0, 729.0, 730.0, 729.0, 730.0, 730.0, 730.0, 730.0, 730.0, 730.0, 730.0, 729.0, 729.0, 726.0, 733.0, 725.0, 727.0, 728.0, 725.0, 732.0, 727.0, 728.0, 730.0, 730.0, 729.0, 729.0, 730.0, 730.0, 730.0, 730.0, 730.0, 730.0, 730.0, 729.0, 729.0, 730.0, 730.0, 730.0, 730.0, 728.0, 729.0, 727.0, 728.0, 729.0, 728.0, 729.0, 729.0, 729.0, 727.0, 727.0, 728.0, 728.0, 729.0, 730.0, 731.0, 731.0, 730.0, 730.0, 730.0, 730.0, 730.0, 729.0, 730.0, 730.0, 729.0, 729.0, 728.0, 728.0, 730.0, 729.0, 730.0, 729.0, 729.0, 729.0, 729.0, 730.0, 730.0, 730.0, 730.0, 732.0, 734.0, 732.0, 730.0, 723.0, 728.0, 729.0, 730.0, 730.0, 730.0, 729.0, 729.0, 729.0, 729.0, 721.0, 733.0, 730.0, 727.0, 734.0, 727.0, 729.0, 724.0, 731.0, 728.0, 729.0, 728.0, 729.0, 728.0, 728.0, 729.0, 728.0, 730.0, 730.0, 730.0, 730.0, 729.0, 729.0, 729.0, 728.0, 729.0, 730.0, 728.0, 727.0, 727.0, 727.0, 728.0, 728.0, 729.0, 729.0, 729.0, 729.0, 728.0, 728.0, 729.0, 729.0, 731.0, 731.0, 732.0, 730.0, 728.0, 727.0, 729.0, 730.0, 730.0, 728.0, 729.0, 726.0, 726.0, 725.0, 726.0, 726.0, 728.0, 729.0, 728.0, 728.0, 729.0, 729.0, 729.0, 727.0, 726.0, 731.0, 729.0, 727.0, 730.0, 727.0, 725.0, 731.0, 731.0, 730.0, 730.0, 729.0, 729.0, 729.0, 729.0, 729.0, 729.0, 730.0, 729.0, 728.0, 729.0, 728.0, 728.0, 728.0, 729.0, 729.0, 729.0, 730.0, 729.0, 728.0, 729.0, 733.0, 729.0, 732.0, 729.0, 731.0, 729.0, 728.0, 728.0, 729.0, 729.0, 730.0, 730.0, 730.0, 731.0, 730.0],
      "WindowWidth": [1572.0, 1566.0, 1565.0, 1565.0, 1566.0, 1564.0, 1565.0, 1565.0, 1565.0, 1566.0, 1572.0, 1567.0, 1569.0, 1566.0, 1565.0, 1566.0, 1567.0, 1569.0, 1571.0, 1572.0, 1568.0, 1566.0, 1566.0, 1567.0, 1568.0, 1567.0, 1567.0, 1567.0, 1566.0, 1567.0, 1568.0, 1566.0, 1568.0, 1568.0, 1568.0, 1569.0, 1568.0, 1569.0, 1568.0, 1567.0, 1565.0, 1558.0, 1578.0, 1557.0, 1561.0, 1563.0, 1556.0, 1575.0, 1563.0, 1564.0, 1569.0, 1568.0, 1567.0, 1567.0, 1568.0, 1569.0, 1570.0, 1570.0, 1568.0, 1568.0, 1569.0, 1566.0, 1566.0, 1567.0, 1568.0, 1568.0, 1568.0, 1564.0, 1566.0, 1562.0, 1563.0, 1565.0, 1563.0, 1565.0, 1567.0, 1565.0, 1561.0, 1561.0, 1563.0, 1562.0, 1564.0, 1567.0, 1570.0, 1571.0, 1568.0, 1567.0, 1568.0, 1567.0, 1567.0, 1565.0, 1567.0, 1568.0, 1566.0, 1566.0, 1563.0, 1563.0, 1567.0, 1567.0, 1567.0, 1566.0, 1566.0, 1565.0, 1565.0, 1567.0, 1569.0, 1571.0, 1569.0, 1575.0, 1579.0, 1575.0, 1568.0, 1552.0, 1565.0, 1565.0, 1568.0, 1567.0, 1568.0, 1565.0, 1564.0, 1565.0, 1566.0, 1545.0, 1578.0, 1570.0, 1562.0, 1580.0, 1561.0, 1566.0, 1553.0, 1570.0, 1564.0, 1565.0, 1563.0, 1565.0, 1565.0, 1565.0, 1565.0, 1565.0, 1568.0, 1568.0, 1568.0, 1569.0, 1567.0, 1566.0, 1566.0, 1564.0, 1567.0, 1568.0, 1564.0, 1560.0, 1561.0, 1561.0, 1563.0, 1565.0, 1566.0, 1565.0, 1565.0, 1566.0, 1563.0, 1564.0, 1566.0, 1567.0, 1572.0, 1572.0, 1573.0, 1569.0, 1563.0, 1561.0, 1564.0, 1567.0, 1567.0, 1564.0, 1565.0, 1558.0, 1557.0, 1556.0, 1557.0, 1559.0, 1563.0, 1566.0, 1564.0, 1565.0, 1566.0, 1565.0, 1565.0, 1563.0, 1558.0, 1572.0, 1568.0, 1560.0, 1569.0, 1561.0, 1557.0, 1570.0, 1570.0, 1569.0, 1568.0, 1565.0, 1566.0, 1565.0, 1565.0, 1566.0, 1566.0, 1568.0, 1566.0, 1565.0, 1565.0, 1564.0, 1563.0, 1564.0, 1566.0, 1565.0, 1567.0, 1567.0, 1565.0, 1563.0, 1564.0, 1575.0, 1565.0, 1572.0, 1565.0, 1571.0, 1566.0, 1563.0, 1563.0, 1565.0, 1565.0, 1569.0, 1567.0, 1569.0, 1570.0, 1568.0]
    },
    "slices": {}
  }
}