{
  "AcquisitionMatrixPE": 100,
  "AcquisitionNumber": 1,
  "AcquisitionTime": "14:48:42.932500",
  "BandwidthPerPixelPhaseEncode": 18.519,
  "BaseResolution": 100,
  "BodyPartExamined": "BRAIN",
  "ConsistencyInfo": "N4_VE11C_LATEST_20160120",
  "ConversionSoftware": "dcm2niix",
  "ConversionSoftwareVersion": "v1.0.20180622 GCC4.9.2",
  "DerivedVendorReportedEchoSpacing": 0.000539986,
  "DeviceSerialNumber": "166078",
  "DwellTime": 2.1e-06,
  "EchoTime": 0.034,
  "EchoTrainLength": 100,
  "EffectiveEchoSpacing": 0.000539986,
  "FlipAngle": 90,
  "ImageOrientationPatientDICOM": [1, -7.96831e-07, -1.43298e-05, 4.58172e-08, 0.99863, -0.0523331],
  "ImageType": [
    "ORIGINAL",
    "PRIMARY",
    "M",
    "ND",
    "MOSAIC"
],
  "InPlanePhaseEncodingDirectionDICOM": "COL",
  "InstitutionAddress": "Street_StreetNo_Bei_Jing_District_CN_ZIP",
  "InstitutionName": "BeiJing_Normal_University",
  "InstitutionalDepartmentName": "Department",
  "MRAcquisitionType": "2D",
  "MagneticFieldStrength": 3,
  "Manufacturer": "Siemens",
  "ManufacturersModelName": "Prisma",
  "Modality": "MR",
  "MultibandAccelerationFactor": 3,
  "PartialFourier": 1,
  "PatientPosition": "HFS",
  "PercentPhaseFOV": 100,
  "PhaseEncodingDirection": "j-",
  "PhaseEncodingSteps": 100,
  "PhaseResolution": 1,
  "PixelBandwidth": 2380,
  "ProcedureStepDescription": "BNU_P2018_64CH_Liu.Jia",
  "ProtocolName": "bold_100x100_s3_2x2x2_232",
  "PulseSequenceDetails": "%SiemensSeq%_ep2d_bold",
  "ReceiveCoilActiveElements": "HC1-7;NC1",
  "ReceiveCoilName": "HeadNeck_64",
  "ReconMatrixPE": 100,
  "RepetitionTime": 2,
  "SAR": 0.0756439,
  "ScanOptions": "FS",
  "ScanningSequence": "EP",
  "SequenceName": "_epfid2d1_100",
  "SequenceVariant": "SK",
  "SeriesDescription": "bold_100x100_s3_2x2x2_232",
  "SeriesNumber": 10,
  "ShimSetting": [-5449, -11520, -1259, 393, 25, -150, -71, 41],
  "SliceThickness": 2,
  "SliceTiming": [1.4825, 0, 0.99, 0.0825, 1.07, 0.165, 1.1525, 0.2475, 1.235, 0.33, 1.3175, 0.4125, 1.4, 0.5775, 1.565, 0.66, 1.6475, 0.7425, 1.73, 0.825, 1.8125, 0.9075, 1.895, 0.495, 1.4825, 0, 0.99, 0.0825, 1.07, 0.165, 1.1525, 0.2475, 1.235, 0.33, 1.3175, 0.4125, 1.4, 0.5775, 1.565, 0.66, 1.6475, 0.7425, 1.73, 0.825, 1.8125, 0.9075, 1.895, 0.495, 1.4825, 0, 0.99, 0.0825, 1.07, 0.165, 1.1525, 0.2475, 1.235, 0.33, 1.3175, 0.4125, 1.4, 0.5775, 1.565, 0.66, 1.6475, 0.7425, 1.73, 0.825, 1.8125, 0.9075, 1.895, 0.495],
  "SoftwareVersions": "syngo_MR_E11",
  "SpacingBetweenSlices": 2,
  "StationName": "AWP166078",
  "TaskName": "motor",
  "TotalReadoutTime": 0.0534586,
  "TxRefAmp": 208.836,
  "dcmmeta_affine": [
    [-2.0, 9.163434100400991e-08, -2.8703700081678107e-05, 99.99455261230469],
    [1.5936619774947758e-06, 1.9972593784332275, -0.10466616600751877, -94.92518615722656],
    [-2.8659571398748085e-05, 0.10466616600751877, 1.9972593784332275, -65.17681884765625],
    [0.0, 0.0, 0.0, 1.0]
],
  "dcmmeta_reorient_transform": [
    [0.0, -1.0, 0.0, 99.0],
    [1.0, 0.0, 0.0, 0.0],
    [0.0, 0.0, 1.0, 0.0],
    [0.0, 0.0, 0.0, 1.0]
],
  "dcmmeta_shape": [100, 100, 72, 232],
  "dcmmeta_slice_dim": 2,
  "dcmmeta_version": 0.6,
  "global": {
    "const": {
      "AcquisitionMatrix": [100, 0, 0, 100],
      "AngioFlag": "N",
      "BitsAllocated": 16,
      "BitsStored": 12,
      "BodyPartExamined": "BRAIN",
      "Columns": 900,
      "EchoNumbers": 1,
      "EchoTime": 34.0,
      "EchoTrainLength": 100,
      "FlipAngle": 90.0,
      "HighBit": 11,
      "ImageOrientationPatient": [0.99999999989701, -7.96830971e-07, -1.43297859e-05, 4.581717e-08, 0.99862968527096, -0.0523330841401],
      "ImagePositionPatient": [-899.99460086991, -901.70659903752, -12.936937604497],
      "ImageType": [
        "ORIGINAL",
        "PRIMARY",
        "M",
        "ND",
        "MOSAIC"
],
      "ImagedNucleus": "1H",
      "ImagingFrequency": 123.257846,
      "InPlanePhaseEncodingDirection": "COL",
      "MRAcquisitionType": "2D",
      "MagneticFieldStrength": 3.0,
      "Manufacturer": "SIEMENS",
      "ManufacturerModelName": "Prisma",
      "Modality": "MR",
      "NumberOfAverages": 1.0,
      "NumberOfPhaseEncodingSteps": 100,
      "PercentPhaseFieldOfView": 100.0,
      "PercentSampling": 100.0,
      "PerformedProcedureStepStartTime": "135916.185000",
      "PhotometricInterpretation": "MONOCHROME2",
      "PixelBandwidth": 2380.0,
      "PixelRepresentation": 0,
      "PixelSpacing": [2.0, 2.0],
      "ProtocolName": "bold_100x100_s3_2x2x2_232",
      "RepetitionTime": 2000.0,
      "Rows": 900,
      "SAR": 0.0756438883744,
      "SamplesPerPixel": 1,
      "ScanOptions": "FS",
      "ScanningSequence": "EP",
      "SequenceName": "*epfid2d1_100",
      "SequenceVariant": "SK",
      "SeriesDescription": "bold_100x100_s3_2x2x2_232",
      "SeriesNumber": 10,
      "SeriesTime": "144844.909000",
      "SliceLocation": -60.121213826421,
      "SliceThickness": 2.0,
      "SmallestImagePixelValue": 0,
      "SoftwareVersions": "syngo MR E11",
      "SpacingBetweenSlices": 2.0000000116669,
      "SpecificCharacterSet": "ISO_IR 100",
      "StudyID": "1",
      "StudyTime": "135916.103000",
      "TransmitCoilName": "Body",
      "VariableFlipAngleFlag": "N",
      "WindowCenterWidthExplanation": "Algo1",
      "dBdt": 0.0},
    "slices": {}
  },
  "time": {
    "samples": {
      "AcquisitionNumber": [1, 2, 3, 4, 5, 6, 7, 8, 9, 10, 11, 12, 13, 14, 15, 16, 17, 18, 19, 20, 21, 22, 23, 24, 25, 26, 27, 28, 29, 30, 31, 32, 33, 34, 35, 36, 37, 38, 39, 40, 41, 42, 43, 44, 45, 46, 47, 48, 49, 50, 51, 52, 53, 54, 55, 56, 57, 58, 59, 60, 61, 62, 63, 64, 65, 66, 67, 68, 69, 70, 71, 72, 73, 74, 75, 76, 77, 78, 79, 80, 81, 82, 83, 84, 85, 86, 87, 88, 89, 90, 91, 92, 93, 94, 95, 96, 97, 98, 99, 100, 101, 102, 103, 104, 105, 106, 107, 108, 109, 110, 111, 112, 113, 114, 115, 116, 117, 118, 119, 120, 121, 122, 123, 124, 125, 126, 127, 128, 129, 130, 131, 132, 133, 134, 135, 136, 137, 138, 139, 140, 141, 142, 143, 144, 145, 146, 147, 148, 149, 150, 151, 152, 153, 154, 155, 156, 157, 158, 159, 160, 161, 162, 163, 164, 165, 166, 167, 168, 169, 170, 171, 172, 173, 174, 175, 176, 177, 178, 179, 180, 181, 182, 183, 184, 185, 186, 187, 188, 189, 190, 191, 192, 193, 194, 195, 196, 197, 198, 199, 200, 201, 202, 203, 204, 205, 206, 207, 208, 209, 210, 211, 212, 213, 214, 215, 216, 217, 218, 219, 220, 221, 222, 223, 224, 225, 226, 227, 228, 229, 230, 231, 232],
      "AcquisitionTime": ["144842.932500", "144844.932500", "144846.932500", "144848.932500", "144850.932500", "144852.932500", "144854.932500", "144856.932500", "144858.932500", "144900.932500", "144902.932500", "144904.932500", "144906.932500", "144908.932500", "144910.932500", "144912.932500", "144914.932500", "144916.932500", "144918.932500", "144920.932500", "144922.932500", "144924.932500", "144926.932500", "144928.932500", "144930.932500", "144932.932500", "144934.932500", "144936.932500", "144938.932500", "144940.932500", "144942.932500", "144944.932500", "144946.932500", "144948.932500", "144950.932500", "144952.932500", "144954.932500", "144956.932500", "144958.932500", "145000.932500", "145002.932500", "145004.932500", "145006.932500", "145008.932500", "145010.932500", "145012.932500", "145014.932500", "145016.932500", "145018.932500", "145020.932500", "145022.932500", "145024.932500", "145026.932500", "145028.932500", "145030.932500", "145032.932500", "145034.932500", "145036.932500", "145038.932500", "145040.932500", "145042.932500", "145044.932500", "145046.932500", "145048.932500", "145050.932500", "145052.932500", "145054.932500", "145056.932500", "145058.932500", "145100.932500", "145102.932500", "145104.932500", "145106.932500", "145108.932500", "145110.932500", "145112.932500", "145114.932500", "145116.932500", "145118.932500", "145120.932500", "145122.932500", "145124.932500", "145126.932500", "145128.932500", "145130.932500", "145132.932500", "145134.932500", "145136.932500", "145138.932500", "145140.932500", "145142.932500", "145144.932500", "145146.932500", "145148.932500", "145150.932500", "145152.932500", "145154.932500", "145156.932500", "145158.932500", "145200.932500", "145202.932500", "145204.932500", "145206.932500", "145208.932500", "145210.932500", "145212.932500", "145214.932500", "145216.932500", "145218.932500", "145220.932500", "145222.932500", "145224.932500", "145226.932500", "145228.932500", "145230.932500", "145232.932500", "145234.932500", "145236.932500", "145238.932500", "145240.932500", "145242.932500", "145244.932500", "145246.932500", "145248.932500", "145250.932500", "145252.932500", "145254.932500", "145256.932500", "145258.932500", "145300.932500", "145302.932500", "145304.932500", "145306.932500", "145308.932500", "145310.932500", "145312.932500", "145314.932500", "145316.932500", "145318.932500", "145320.932500", "145322.932500", "145324.932500", "145326.932500", "145328.932500", "145330.932500", "145332.932500", "145334.932500", "145336.932500", "145338.932500", "145340.932500", "145342.932500", "145344.932500", "145346.932500", "145348.932500", "145350.932500", "145352.932500", "145354.932500", "145356.932500", "145358.932500", "145400.932500", "145402.932500", "145404.932500", "145406.932500", "145408.932500", "145410.932500", "145412.932500", "145414.932500", "145416.932500", "145418.932500", "145420.932500", "145422.932500", "145424.932500", "145426.932500", "145428.932500", "145430.932500", "145432.932500", "145434.932500", "145436.932500", "145438.932500", "145440.932500", "145442.932500", "145444.932500", "145446.932500", "145448.932500", "145450.932500", "145452.932500", "145454.932500", "145456.932500", "145458.932500", "145500.932500", "145502.932500", "145504.932500", "145506.932500", "145508.932500", "145510.932500", "145512.932500", "145514.932500", "145516.932500", "145518.932500", "145520.932500", "145522.932500", "145524.932500", "145526.932500", "145528.932500", "145530.932500", "145532.932500", "145534.932500", "145536.932500", "145538.932500", "145540.932500", "145542.932500", "145544.932500", "145546.932500", "145548.932500", "145550.932500", "145552.932500", "145554.932500", "145556.932500", "145558.932500", "145600.932500", "145602.932500", "145604.932500", "145606.932500", "145608.932500", "145610.932500", "145612.932500", "145614.932500", "145616.932500", "145618.932500", "145620.932500", "145622.932500", "145624.932500"],
      "ContentTime": ["144844.913000", "144846.408000", "144848.408000", "144850.408000", "144852.408000", "144854.408000", "144856.408000", "144858.408000", "144900.408000", "144902.409000", "144904.408000", "144906.408000", "144908.408000", "144910.408000", "144912.407000", "144914.408000", "144916.408000", "144918.408000", "144920.408000", "144922.409000", "144924.408000", "144926.408000", "144928.408000", "144930.407000", "144932.408000", "144934.409000", "144936.410000", "144938.410000", "144940.410000", "144942.408000", "144944.408000", "144946.407000", "144948.408000", "144950.408000", "144952.409000", "144954.408000", "144956.409000", "144958.409000", "145000.408000", "145002.408000", "145004.407000", "145006.408000", "145008.408000", "145010.408000", "145012.409000", "145014.408000", "145016.408000", "145018.409000", "145020.408000", "145022.407000", "145024.409000", "145026.908000", "145028.408000", "145030.408000", "145032.408000", "145034.408000", "145036.408000", "145038.408000", "145040.407000", "145042.408000", "145044.408000", "145046.409000", "145048.408000", "145050.408000", "145052.409000", "145054.408000", "145056.407000", "145058.409000", "145100.408000", "145102.408000", "145104.408000", "145106.408000", "145108.408000", "145110.409000", "145112.409000", "145114.908000", "145116.408000", "145118.408000", "145120.408000", "145122.408000", "145124.408000", "145126.409000", "145128.408000", "145130.408000", "145132.408000", "145134.408000", "145136.408000", "145138.408000", "145140.408000", "145142.408000", "145144.408000", "145146.408000", "145148.408000", "145150.407000", "145152.409000", "145154.408000", "145156.409000", "145158.409000", "145200.408000", "145202.409000", "145204.408000", "145206.408000", "145208.408000", "145210.408000", "145212.408000", "145214.408000", "145216.408000", "145218.408000", "145220.408000", "145222.408000", "145224.408000", "145226.408000", "145228.408000", "145230.408000", "145232.409000", "145234.411000", "145236.908000", "145238.409000", "145240.409000", "145242.408000", "145244.408000", "145246.408000", "145248.408000", "145250.408000", "145252.409000", "145254.409000", "145256.409000", "145258.408000", "145300.407000", "145302.409000", "145304.408000", "145306.408000", "145308.409000", "145310.409000", "145312.409000", "145314.408000", "145316.407000", "145318.408000", "145320.409000", "145322.409000", "145324.409000", "145326.409000", "145328.408000", "145330.408000", "145332.408000", "145334.408000", "145336.408000", "145338.408000", "145340.409000", "145342.408000", "145344.408000", "145346.408000", "145348.409000", "145350.408000", "145352.408000", "145354.408000", "145356.409000", "145358.908000", "145400.409000", "145402.409000", "145404.408000", "145406.409000", "145408.408000", "145410.407000", "145412.408000", "145414.409000", "145416.408000", "145418.408000", "145420.409000", "145422.409000", "145424.408000", "145426.408000", "145428.408000", "145430.408000", "145432.409000", "145434.408000", "145436.409000", "145438.408000", "145440.409000", "145442.408000", "145444.407000", "145446.408000", "145448.408000", "145450.409000", "145452.908000", "145454.408000", "145456.408000", "145458.408000", "145500.408000", "145502.407000", "145504.408000", "145506.409000", "145508.408000", "145510.408000", "145512.409000", "145514.408000", "145516.408000", "145518.409000", "145520.408000", "145522.408000", "145524.408000", "145526.408000", "145528.409000", "145530.408000", "145532.409000", "145534.408000", "145536.407000", "145538.408000", "145540.408000", "145542.409000", "145544.909000", "145546.408000", "145548.409000", "145550.408000", "145552.409000", "145554.407000", "145556.409000", "145558.409000", "145600.408000", "145602.408000", "145604.408000", "145606.408000", "145608.408000", "145610.408000", "145612.408000", "145614.409000", "145616.409000", "145618.409000", "145620.409000", "145622.408000", "145624.409000", "145626.292000"],
      "InstanceCreationTime": ["144844.913000", "144846.408000", "144848.408000", "144850.408000", "144852.408000", "144854.408000", "144856.408000", "144858.408000", "144900.408000", "144902.409000", "144904.408000", "144906.408000", "144908.408000", "144910.408000", "144912.407000", "144914.408000", "144916.408000", "144918.408000", "144920.408000", "144922.409000", "144924.408000", "144926.408000", "144928.408000", "144930.407000", "144932.408000", "144934.409000", "144936.410000", "144938.410000", "144940.410000", "144942.408000", "144944.408000", "144946.407000", "144948.408000", "144950.408000", "144952.409000", "144954.408000", "144956.409000", "144958.409000", "145000.408000", "145002.408000", "145004.407000", "145006.408000", "145008.408000", "145010.408000", "145012.409000", "145014.408000", "145016.408000", "145018.409000", "145020.408000", "145022.407000", "145024.409000", "145026.908000", "145028.408000", "145030.408000", "145032.408000", "145034.408000", "145036.408000", "145038.408000", "145040.407000", "145042.408000", "145044.408000", "145046.409000", "145048.408000", "145050.408000", "145052.409000", "145054.408000", "145056.407000", "145058.409000", "145100.408000", "145102.408000", "145104.408000", "145106.408000", "145108.408000", "145110.409000", "145112.409000", "145114.908000", "145116.408000", "145118.408000", "145120.408000", "145122.408000", "145124.408000", "145126.409000", "145128.408000", "145130.408000", "145132.408000", "145134.408000", "145136.408000", "145138.408000", "145140.408000", "145142.408000", "145144.408000", "145146.408000", "145148.408000", "145150.407000", "145152.409000", "145154.408000", "145156.409000", "145158.409000", "145200.408000", "145202.409000", "145204.408000", "145206.408000", "145208.408000", "145210.408000", "145212.408000", "145214.408000", "145216.408000", "145218.408000", "145220.408000", "145222.408000", "145224.408000", "145226.408000", "145228.408000", "145230.408000", "145232.409000", "145234.411000", "145236.908000", "145238.409000", "145240.409000", "145242.408000", "145244.408000", "145246.408000", "145248.408000", "145250.408000", "145252.409000", "145254.409000", "145256.409000", "145258.408000", "145300.407000", "145302.409000", "145304.408000", "145306.408000", "145308.409000", "145310.409000", "145312.409000", "145314.408000", "145316.407000", "145318.408000", "145320.409000", "145322.409000", "145324.409000", "145326.409000", "145328.408000", "145330.408000", "145332.408000", "145334.408000", "145336.408000", "145338.408000", "145340.409000", "145342.408000", "145344.408000", "145346.408000", "145348.409000", "145350.408000", "145352.408000", "145354.408000", "145356.409000", "145358.908000", "145400.409000", "145402.409000", "145404.408000", "145406.409000", "145408.408000", "145410.407000", "145412.408000", "145414.409000", "145416.408000", "145418.408000", "145420.409000", "145422.409000", "145424.408000", "145426.408000", "145428.408000", "145430.408000", "145432.409000", "145434.408000", "145436.409000", "145438.408000", "145440.409000", "145442.408000", "145444.407000", "145446.408000", "145448.408000", "145450.409000", "145452.908000", "145454.408000", "145456.408000", "145458.408000", "145500.408000", "145502.407000", "145504.408000", "145506.409000", "145508.408000", "145510.408000", "145512.409000", "145514.408000", "145516.408000", "145518.409000", "145520.408000", "145522.408000", "145524.408000", "145526.408000", "145528.409000", "145530.408000", "145532.409000", "145534.408000", "145536.407000", "145538.408000", "145540.408000", "145542.409000", "145544.909000", "145546.408000", "145548.409000", "145550.408000", "145552.409000", "145554.407000", "145556.409000", "145558.409000", "145600.408000", "145602.408000", "145604.408000", "145606.408000", "145608.408000", "145610.408000", "145612.408000", "145614.409000", "145616.409000", "145618.409000", "145620.409000", "145622.408000", "145624.409000", "145626.292000"],
      "InstanceNumber": [1, 2, 3, 4, 5, 6, 7, 8, 9, 10, 11, 12, 13, 14, 15, 16, 17, 18, 19, 20, 21, 22, 23, 24, 25, 26, 27, 28, 29, 30, 31, 32, 33, 34, 35, 36, 37, 38, 39, 40, 41, 42, 43, 44, 45, 46, 47, 48, 49, 50, 51, 52, 53, 54, 55, 56, 57, 58, 59, 60, 61, 62, 63, 64, 65, 66, 67, 68, 69, 70, 71, 72, 73, 74, 75, 76, 77, 78, 79, 80, 81, 82, 83, 84, 85, 86, 87, 88, 89, 90, 91, 92, 93, 94, 95, 96, 97, 98, 99, 100, 101, 102, 103, 104, 105, 106, 107, 108, 109, 110, 111, 112, 113, 114, 115, 116, 117, 118, 119, 120, 121, 122, 123, 124, 125, 126, 127, 128, 129, 130, 131, 132, 133, 134, 135, 136, 137, 138, 139, 140, 141, 142, 143, 144, 145, 146, 147, 148, 149, 150, 151, 152, 153, 154, 155, 156, 157, 158, 159, 160, 161, 162, 163, 164, 165, 166, 167, 168, 169, 170, 171, 172, 173, 174, 175, 176, 177, 178, 179, 180, 181, 182, 183, 184, 185, 186, 187, 188, 189, 190, 191, 192, 193, 194, 195, 196, 197, 198, 199, 200, 201, 202, 203, 204, 205, 206, 207, 208, 209, 210, 211, 212, 213, 214, 215, 216, 217, 218, 219, 220, 221, 222, 223, 224, 225, 226, 227, 228, 229, 230, 231, 232],
      "LargestImagePixelValue": [3860, 3801, 3734, 3721, 3774, 3748, 3709, 3738, 3759, 3752, 3764, 3781, 3737, 3709, 3797, 3801, 3781, 3766, 3784, 3836, 3785, 3787, 3744, 3668, 3744, 3781, 3791, 3749, 3787, 3753, 3780, 3789, 3767, 3787, 3760, 3737, 3740, 3720, 3698, 3719, 3678, 3731, 3755, 3747, 3720, 3725, 3705, 3714, 3728, 3719, 3744, 3742, 3754, 3769, 3727, 3779, 3750, 3771, 3749, 3786, 3746, 3741, 3761, 3760, 3736, 3770, 3730, 3740, 3735, 3754, 3794, 3772, 3751, 3768, 3754, 3749, 3729, 3776, 3708, 3701, 3719, 3734, 3757, 3742, 3745, 3791, 3754, 3746, 3752, 3726, 3741, 3816, 3786, 3761, 3797, 3777, 3806, 3793, 3807, 3829, 3857, 3804, 3790, 3793, 3825, 3876, 3861, 3867, 3843, 3840, 3870, 3901, 3850, 3846, 3850, 3877, 3851, 3867, 3893, 3881, 3866, 3877, 3848, 3906, 3887, 3870, 3862, 3877, 3863, 3842, 3864, 3859, 3873, 3878, 3864, 3875, 3842, 3861, 3830, 3831, 3858, 3841, 3849, 3865, 3853, 3841, 3896, 3832, 3792, 3919, 3883, 3870, 3822, 3830, 3853, 3815, 3885, 3769, 3851, 3792, 3802, 3761, 3758, 3783, 3765, 3735, 3740, 3750, 3770, 3727, 3709, 3737, 3747, 3713, 3777, 3704, 3763, 3753, 3797, 3768, 3838, 3791, 3769, 3795, 3817, 3862, 3784, 3784, 3805, 3812, 3803, 3738, 3770, 3763, 3746, 3756, 3742, 3799, 3776, 3818, 3782, 3834, 3858, 3845, 3786, 3863, 3829, 3826, 3860, 3860, 3862, 3910, 3845, 3797, 3773, 3787, 3863, 3835, 3841, 3872, 3839, 3875, 3900, 3846, 3846, 3837, 3828, 3846, 3835, 3851, 3840, 3866],
      "WindowCenter": [800.0, 798.0, 797.0, 796.0, 796.0, 795.0, 794.0, 796.0, 797.0, 799.0, 799.0, 799.0, 797.0, 796.0, 796.0, 798.0, 798.0, 799.0, 799.0, 801.0, 799.0, 798.0, 794.0, 797.0, 797.0, 797.0, 798.0, 798.0, 799.0, 798.0, 799.0, 798.0, 798.0, 799.0, 799.0, 798.0, 798.0, 798.0, 798.0, 797.0, 797.0, 798.0, 801.0, 801.0, 800.0, 799.0, 798.0, 798.0, 798.0, 798.0, 799.0, 799.0, 798.0, 797.0, 797.0, 797.0, 797.0, 797.0, 798.0, 800.0, 799.0, 798.0, 797.0, 797.0, 797.0, 798.0, 798.0, 798.0, 796.0, 796.0, 797.0, 797.0, 797.0, 798.0, 800.0, 799.0, 798.0, 798.0, 798.0, 798.0, 798.0, 799.0, 800.0, 800.0, 797.0, 797.0, 796.0, 797.0, 798.0, 797.0, 798.0, 798.0, 797.0, 797.0, 798.0, 799.0, 800.0, 799.0, 799.0, 799.0, 799.0, 798.0, 797.0, 797.0, 798.0, 798.0, 800.0, 799.0, 798.0, 798.0, 798.0, 799.0, 799.0, 798.0, 799.0, 800.0, 799.0, 799.0, 799.0, 798.0, 797.0, 798.0, 800.0, 800.0, 799.0, 798.0, 798.0, 798.0, 798.0, 799.0, 801.0, 801.0, 800.0, 799.0, 798.0, 797.0, 797.0, 798.0, 799.0, 799.0, 799.0, 798.0, 798.0, 798.0, 798.0, 799.0, 799.0, 798.0, 796.0, 797.0, 796.0, 799.0, 799.0, 798.0, 797.0, 796.0, 797.0, 796.0, 797.0, 797.0, 798.0, 798.0, 800.0, 801.0, 800.0, 798.0, 797.0, 797.0, 797.0, 797.0, 797.0, 798.0, 797.0, 796.0, 796.0, 795.0, 796.0, 796.0, 796.0, 796.0, 795.0, 795.0, 795.0, 796.0, 797.0, 797.0, 797.0, 797.0, 797.0, 797.0, 796.0, 796.0, 796.0, 796.0, 796.0, 796.0, 795.0, 795.0, 796.0, 797.0, 799.0, 800.0, 799.0, 799.0, 798.0, 797.0, 796.0, 795.0, 796.0, 796.0, 795.0, 797.0, 795.0, 796.0, 794.0, 793.0, 797.0, 798.0, 799.0, 799.0, 798.0, 798.0, 799.0, 798.0, 798.0, 799.0, 799.0, 798.0, 797.0, 798.0, 797.0, 796.0],
      "WindowWidth": [1783.0, 1777.0, 1773.0, 1770.0, 1770.0, 1768.0, 1766.0, 1769.0, 1774.0, 1779.0, 1781.0, 1779.0, 1773.0, 1771.0, 1773.0, 1776.0, 1779.0, 1780.0, 1782.0, 1786.0, 1779.0, 1776.0, 1766.0, 1774.0, 1774.0, 1774.0, 1776.0, 1777.0, 1779.0, 1779.0, 1779.0, 1778.0, 1779.0, 1781.0, 1781.0, 1778.0, 1776.0, 1777.0, 1776.0, 1775.0, 1773.0, 1779.0, 1786.0, 1786.0, 1783.0, 1780.0, 1775.0, 1775.0, 1777.0, 1778.0, 1779.0, 1779.0, 1776.0, 1775.0, 1774.0, 1774.0, 1773.0, 1773.0, 1778.0, 1783.0, 1780.0, 1777.0, 1774.0, 1773.0, 1773.0, 1775.0, 1777.0, 1775.0, 1771.0, 1771.0, 1773.0, 1774.0, 1775.0, 1777.0, 1782.0, 1780.0, 1775.0, 1776.0, 1776.0, 1776.0, 1776.0, 1779.0, 1784.0, 1783.0, 1774.0, 1773.0, 1770.0, 1774.0, 1777.0, 1774.0, 1776.0, 1775.0, 1774.0, 1774.0, 1777.0, 1779.0, 1781.0, 1780.0, 1781.0, 1780.0, 1779.0, 1777.0, 1774.0, 1774.0, 1776.0, 1779.0, 1783.0, 1781.0, 1777.0, 1777.0, 1778.0, 1780.0, 1779.0, 1778.0, 1779.0, 1782.0, 1781.0, 1780.0, 1778.0, 1776.0, 1774.0, 1778.0, 1782.0, 1784.0, 1779.0, 1776.0, 1775.0, 1776.0, 1776.0, 1779.0, 1785.0, 1785.0, 1781.0, 1779.0, 1775.0, 1775.0, 1775.0, 1775.0, 1779.0, 1781.0, 1778.0, 1776.0, 1775.0, 1775.0, 1776.0, 1779.0, 1779.0, 1777.0, 1771.0, 1774.0, 1770.0, 1781.0, 1778.0, 1775.0, 1773.0, 1771.0, 1773.0, 1771.0, 1774.0, 1773.0, 1775.0, 1776.0, 1783.0, 1785.0, 1781.0, 1777.0, 1774.0, 1773.0, 1774.0, 1773.0, 1774.0, 1774.0, 1772.0, 1770.0, 1769.0, 1768.0, 1770.0, 1770.0, 1770.0, 1769.0, 1768.0, 1766.0, 1768.0, 1771.0, 1773.0, 1774.0, 1774.0, 1773.0, 1773.0, 1773.0, 1771.0, 1770.0, 1772.0, 1772.0, 1772.0, 1769.0, 1766.0, 1767.0, 1770.0, 1773.0, 1778.0, 1781.0, 1780.0, 1778.0, 1775.0, 1772.0, 1768.0, 1766.0, 1768.0, 1770.0, 1766.0, 1774.0, 1766.0, 1769.0, 1764.0, 1760.0, 1774.0, 1778.0, 1781.0, 1778.0, 1776.0, 1778.0, 1780.0, 1778.0, 1777.0, 1779.0, 1778.0, 1777.0, 1775.0, 1776.0, 1772.0, 1772.0]
    },
    "slices": {}
  }
}