{
  "AcquisitionMatrixPE": 100,
  "AcquisitionNumber": 1,
  "AcquisitionTime": "14:19:40.390000",
  "BandwidthPerPixelPhaseEncode": 18.519,
  "BaseResolution": 100,
  "BodyPartExamined": "BRAIN",
  "ConsistencyInfo": "N4_VE11C_LATEST_20160120",
  "ConversionSoftware": "dcm2niix",
  "ConversionSoftwareVersion": "v1.0.20180622 GCC4.9.2",
  "DerivedVendorReportedEchoSpacing": 0.000539986,
  "DeviceSerialNumber": "166078",
  "DwellTime": 2.1e-06,
  "EchoTime": 0.034,
  "EchoTrainLength": 100,
  "EffectiveEchoSpacing": 0.000539986,
  "FlipAngle": 90,
  "ImageOrientationPatientDICOM": [1, -7.96831e-07, -1.43298e-05, 4.58172e-08, 0.99863, -0.0523331],
  "ImageType": [
    "ORIGINAL",
    "PRIMARY",
    "M",
    "ND",
    "MOSAIC"
],
  "InPlanePhaseEncodingDirectionDICOM": "COL",
  "InstitutionAddress": "Street_StreetNo_Bei_Jing_District_CN_ZIP",
  "InstitutionName": "BeiJing_Normal_University",
  "InstitutionalDepartmentName": "Department",
  "MRAcquisitionType": "2D",
  "MagneticFieldStrength": 3,
  "Manufacturer": "Siemens",
  "ManufacturersModelName": "Prisma",
  "Modality": "MR",
  "MultibandAccelerationFactor": 3,
  "PartialFourier": 1,
  "PatientPosition": "HFS",
  "PercentPhaseFOV": 100,
  "PhaseEncodingDirection": "j-",
  "PhaseEncodingSteps": 100,
  "PhaseResolution": 1,
  "PixelBandwidth": 2380,
  "ProcedureStepDescription": "BNU_P2018_64CH_Liu.Jia",
  "ProtocolName": "bold_100x100_s3_2x2x2_232",
  "PulseSequenceDetails": "%SiemensSeq%_ep2d_bold",
  "ReceiveCoilActiveElements": "HC1-7;NC1",
  "ReceiveCoilName": "HeadNeck_64",
  "ReconMatrixPE": 100,
  "RepetitionTime": 2,
  "SAR": 0.0756439,
  "ScanOptions": "FS",
  "ScanningSequence": "EP",
  "SequenceName": "_epfid2d1_100",
  "SequenceVariant": "SK",
  "SeriesDescription": "bold_100x100_s3_2x2x2_232",
  "SeriesNumber": 5,
  "ShimSetting": [-5449, -11520, -1259, 393, 25, -150, -71, 41],
  "SliceThickness": 2,
  "SliceTiming": [1.485, 0, 0.99, 0.0825, 1.0725, 0.165, 1.155, 0.2475, 1.2375, 0.33, 1.32, 0.4125, 1.4025, 0.5775, 1.5675, 0.66, 1.65, 0.7425, 1.7325, 0.825, 1.815, 0.9075, 1.8975, 0.495, 1.485, 0, 0.99, 0.0825, 1.0725, 0.165, 1.155, 0.2475, 1.2375, 0.33, 1.32, 0.4125, 1.4025, 0.5775, 1.5675, 0.66, 1.65, 0.7425, 1.7325, 0.825, 1.815, 0.9075, 1.8975, 0.495, 1.485, 0, 0.99, 0.0825, 1.0725, 0.165, 1.155, 0.2475, 1.2375, 0.33, 1.32, 0.4125, 1.4025, 0.5775, 1.5675, 0.66, 1.65, 0.7425, 1.7325, 0.825, 1.815, 0.9075, 1.8975, 0.495],
  "SoftwareVersions": "syngo_MR_E11",
  "SpacingBetweenSlices": 2,
  "StationName": "AWP166078",
  "TaskName": "motor",
  "TotalReadoutTime": 0.0534586,
  "TxRefAmp": 208.836,
  "dcmmeta_affine": [
    [-2.0, 9.163434100400991e-08, -2.8703700081678107e-05, 99.99455261230469],
    [1.5936619774947758e-06, 1.9972593784332275, -0.10466616600751877, -94.92518615722656],
    [-2.8659571398748085e-05, 0.10466616600751877, 1.9972593784332275, -65.17681884765625],
    [0.0, 0.0, 0.0, 1.0]
],
  "dcmmeta_reorient_transform": [
    [0.0, -1.0, 0.0, 99.0],
    [1.0, 0.0, 0.0, 0.0],
    [0.0, 0.0, 1.0, 0.0],
    [0.0, 0.0, 0.0, 1.0]
],
  "dcmmeta_shape": [100, 100, 72, 232],
  "dcmmeta_slice_dim": 2,
  "dcmmeta_version": 0.6,
  "global": {
    "const": {
      "AcquisitionMatrix": [100, 0, 0, 100],
      "AngioFlag": "N",
      "BitsAllocated": 16,
      "BitsStored": 12,
      "BodyPartExamined": "BRAIN",
      "Columns": 900,
      "EchoNumbers": 1,
      "EchoTime": 34.0,
      "EchoTrainLength": 100,
      "FlipAngle": 90.0,
      "HighBit": 11,
      "ImageOrientationPatient": [0.99999999989701, -7.96830971e-07, -1.43297859e-05, 4.581717e-08, 0.99862968527096, -0.0523330841401],
      "ImagePositionPatient": [-899.99460086991, -901.70659903752, -12.936937604497],
      "ImageType": [
        "ORIGINAL",
        "PRIMARY",
        "M",
        "ND",
        "MOSAIC"
],
      "ImagedNucleus": "1H",
      "ImagingFrequency": 123.257841,
      "InPlanePhaseEncodingDirection": "COL",
      "MRAcquisitionType": "2D",
      "MagneticFieldStrength": 3.0,
      "Manufacturer": "SIEMENS",
      "ManufacturerModelName": "Prisma",
      "Modality": "MR",
      "NumberOfAverages": 1.0,
      "NumberOfPhaseEncodingSteps": 100,
      "PercentPhaseFieldOfView": 100.0,
      "PercentSampling": 100.0,
      "PerformedProcedureStepStartTime": "135916.185000",
      "PhotometricInterpretation": "MONOCHROME2",
      "PixelBandwidth": 2380.0,
      "PixelRepresentation": 0,
      "PixelSpacing": [2.0, 2.0],
      "ProtocolName": "bold_100x100_s3_2x2x2_232",
      "RepetitionTime": 2000.0,
      "Rows": 900,
      "SAR": 0.0756438883744,
      "SamplesPerPixel": 1,
      "ScanOptions": "FS",
      "ScanningSequence": "EP",
      "SequenceName": "*epfid2d1_100",
      "SequenceVariant": "SK",
      "SeriesDescription": "bold_100x100_s3_2x2x2_232",
      "SeriesNumber": 5,
      "SeriesTime": "141943.326000",
      "SliceLocation": -60.121213826421,
      "SliceThickness": 2.0,
      "SmallestImagePixelValue": 0,
      "SoftwareVersions": "syngo MR E11",
      "SpacingBetweenSlices": 2.0000000116669,
      "SpecificCharacterSet": "ISO_IR 100",
      "StudyID": "1",
      "StudyTime": "135916.103000",
      "TransmitCoilName": "Body",
      "VariableFlipAngleFlag": "N",
      "WindowCenterWidthExplanation": "Algo1",
      "dBdt": 0.0},
    "slices": {}
  },
  "time": {
    "samples": {
      "AcquisitionNumber": [1, 2, 3, 4, 5, 6, 7, 8, 9, 10, 11, 12, 13, 14, 15, 16, 17, 18, 19, 20, 21, 22, 23, 24, 25, 26, 27, 28, 29, 30, 31, 32, 33, 34, 35, 36, 37, 38, 39, 40, 41, 42, 43, 44, 45, 46, 47, 48, 49, 50, 51, 52, 53, 54, 55, 56, 57, 58, 59, 60, 61, 62, 63, 64, 65, 66, 67, 68, 69, 70, 71, 72, 73, 74, 75, 76, 77, 78, 79, 80, 81, 82, 83, 84, 85, 86, 87, 88, 89, 90, 91, 92, 93, 94, 95, 96, 97, 98, 99, 100, 101, 102, 103, 104, 105, 106, 107, 108, 109, 110, 111, 112, 113, 114, 115, 116, 117, 118, 119, 120, 121, 122, 123, 124, 125, 126, 127, 128, 129, 130, 131, 132, 133, 134, 135, 136, 137, 138, 139, 140, 141, 142, 143, 144, 145, 146, 147, 148, 149, 150, 151, 152, 153, 154, 155, 156, 157, 158, 159, 160, 161, 162, 163, 164, 165, 166, 167, 168, 169, 170, 171, 172, 173, 174, 175, 176, 177, 178, 179, 180, 181, 182, 183, 184, 185, 186, 187, 188, 189, 190, 191, 192, 193, 194, 195, 196, 197, 198, 199, 200, 201, 202, 203, 204, 205, 206, 207, 208, 209, 210, 211, 212, 213, 214, 215, 216, 217, 218, 219, 220, 221, 222, 223, 224, 225, 226, 227, 228, 229, 230, 231, 232],
      "AcquisitionTime": ["141940.390000", "141942.390000", "141944.390000", "141946.390000", "141948.390000", "141950.390000", "141952.390000", "141954.390000", "141956.390000", "141958.390000", "142000.390000", "142002.390000", "142004.390000", "142006.390000", "142008.390000", "142010.390000", "142012.390000", "142014.390000", "142016.390000", "142018.390000", "142020.390000", "142022.390000", "142024.390000", "142026.390000", "142028.390000", "142030.390000", "142032.390000", "142034.390000", "142036.390000", "142038.390000", "142040.390000", "142042.390000", "142044.390000", "142046.390000", "142048.390000", "142050.390000", "142052.390000", "142054.390000", "142056.390000", "142058.390000", "142100.390000", "142102.390000", "142104.390000", "142106.390000", "142108.390000", "142110.390000", "142112.390000", "142114.390000", "142116.390000", "142118.390000", "142120.390000", "142122.390000", "142124.390000", "142126.390000", "142128.390000", "142130.390000", "142132.390000", "142134.390000", "142136.390000", "142138.390000", "142140.390000", "142142.390000", "142144.390000", "142146.390000", "142148.390000", "142150.390000", "142152.390000", "142154.390000", "142156.390000", "142158.390000", "142200.390000", "142202.390000", "142204.390000", "142206.390000", "142208.390000", "142210.390000", "142212.390000", "142214.390000", "142216.390000", "142218.390000", "142220.390000", "142222.390000", "142224.390000", "142226.390000", "142228.390000", "142230.390000", "142232.390000", "142234.390000", "142236.390000", "142238.390000", "142240.390000", "142242.390000", "142244.390000", "142246.390000", "142248.390000", "142250.390000", "142252.390000", "142254.390000", "142256.390000", "142258.390000", "142300.390000", "142302.390000", "142304.390000", "142306.390000", "142308.390000", "142310.390000", "142312.390000", "142314.390000", "142316.390000", "142318.390000", "142320.390000", "142322.390000", "142324.390000", "142326.390000", "142328.390000", "142330.390000", "142332.390000", "142334.390000", "142336.390000", "142338.390000", "142340.390000", "142342.390000", "142344.390000", "142346.390000", "142348.390000", "142350.390000", "142352.390000", "142354.390000", "142356.390000", "142358.390000", "142400.390000", "142402.390000", "142404.390000", "142406.390000", "142408.390000", "142410.390000", "142412.390000", "142414.390000", "142416.390000", "142418.390000", "142420.390000", "142422.390000", "142424.390000", "142426.390000", "142428.390000", "142430.390000", "142432.390000", "142434.390000", "142436.390000", "142438.390000", "142440.390000", "142442.390000", "142444.390000", "142446.390000", "142448.390000", "142450.390000", "142452.390000", "142454.390000", "142456.390000", "142458.390000", "142500.390000", "142502.390000", "142504.390000", "142506.390000", "142508.390000", "142510.390000", "142512.390000", "142514.390000", "142516.390000", "142518.390000", "142520.390000", "142522.390000", "142524.390000", "142526.390000", "142528.390000", "142530.390000", "142532.390000", "142534.390000", "142536.390000", "142538.390000", "142540.390000", "142542.390000", "142544.390000", "142546.390000", "142548.390000", "142550.390000", "142552.390000", "142554.390000", "142556.390000", "142558.390000", "142600.390000", "142602.390000", "142604.390000", "142606.390000", "142608.390000", "142610.390000", "142612.390000", "142614.390000", "142616.390000", "142618.390000", "142620.390000", "142622.390000", "142624.390000", "142626.390000", "142628.390000", "142630.390000", "142632.390000", "142634.390000", "142636.390000", "142638.390000", "142640.390000", "142642.390000", "142644.390000", "142646.390000", "142648.390000", "142650.390000", "142652.390000", "142654.390000", "142656.390000", "142658.390000", "142700.390000", "142702.390000", "142704.390000", "142706.390000", "142708.390000", "142710.390000", "142712.390000", "142714.390000", "142716.390000", "142718.390000", "142720.390000", "142722.390000"],
      "ContentTime": ["141943.336000", "141944.825000", "141946.825000", "141948.827000", "141950.825000", "141952.825000", "141954.825000", "141956.825000", "141958.825000", "142000.825000", "142002.825000", "142004.826000", "142006.825000", "142008.825000", "142011.326000", "142012.825000", "142014.826000", "142016.825000", "142018.825000", "142020.826000", "142022.826000", "142024.825000", "142026.825000", "142028.825000", "142030.826000", "142032.826000", "142034.825000", "142036.825000", "142038.825000", "142040.826000", "142042.825000", "142044.825000", "142046.825000", "142048.826000", "142050.825000", "142052.825000", "142054.825000", "142056.825000", "142058.826000", "142100.825000", "142102.825000", "142104.825000", "142106.825000", "142108.825000", "142110.825000", "142112.825000", "142114.825000", "142116.825000", "142118.825000", "142120.825000", "142122.825000", "142124.825000", "142126.825000", "142128.825000", "142130.826000", "142132.826000", "142134.825000", "142136.825000", "142138.826000", "142140.826000", "142142.825000", "142144.825000", "142146.825000", "142148.825000", "142150.826000", "142152.826000", "142154.825000", "142156.826000", "142158.827000", "142200.825000", "142202.825000", "142204.825000", "142206.826000", "142208.825000", "142210.826000", "142212.825000", "142214.825000", "142216.825000", "142218.825000", "142220.825000", "142222.825000", "142224.826000", "142226.826000", "142228.825000", "142230.825000", "142232.826000", "142234.826000", "142236.825000", "142238.825000", "142240.826000", "142242.827000", "142244.825000", "142246.825000", "142248.825000", "142250.825000", "142252.825000", "142254.825000", "142256.825000", "142258.826000", "142300.826000", "142302.826000", "142304.827000", "142306.825000", "142308.825000", "142310.826000", "142312.826000", "142314.826000", "142316.825000", "142318.825000", "142320.826000", "142322.826000", "142324.825000", "142326.825000", "142328.825000", "142330.825000", "142332.826000", "142334.826000", "142336.826000", "142338.825000", "142340.826000", "142342.825000", "142344.825000", "142346.825000", "142348.826000", "142350.825000", "142352.827000", "142354.826000", "142356.825000", "142358.826000", "142400.826000", "142402.826000", "142404.825000", "142406.825000", "142409.325000", "142410.826000", "142412.826000", "142414.826000", "142416.825000", "142418.825000", "142420.825000", "142422.826000", "142424.826000", "142426.825000", "142428.826000", "142430.825000", "142432.826000", "142434.825000", "142436.826000", "142438.825000", "142440.825000", "142442.826000", "142444.826000", "142446.825000", "142448.826000", "142450.825000", "142452.825000", "142454.825000", "142456.826000", "142458.825000", "142500.825000", "142502.826000", "142504.825000", "142506.826000", "142508.825000", "142510.825000", "142512.826000", "142514.825000", "142516.825000", "142518.825000", "142520.827000", "142522.825000", "142524.825000", "142526.826000", "142528.826000", "142530.825000", "142532.825000", "142534.825000", "142536.825000", "142538.826000", "142540.825000", "142542.825000", "142544.825000", "142546.825000", "142548.825000", "142550.826000", "142552.826000", "142554.826000", "142556.825000", "142558.826000", "142600.825000", "142602.825000", "142604.825000", "142607.325000", "142608.826000", "142610.825000", "142612.827000", "142614.825000", "142616.825000", "142618.825000", "142620.825000", "142622.825000", "142624.825000", "142626.825000", "142628.825000", "142630.827000", "142632.825000", "142634.825000", "142636.825000", "142638.825000", "142640.826000", "142642.826000", "142644.825000", "142646.825000", "142648.826000", "142650.825000", "142652.826000", "142654.825000", "142656.825000", "142658.825000", "142700.825000", "142702.826000", "142704.827000", "142706.825000", "142708.825000", "142710.825000", "142712.826000", "142714.825000", "142716.826000", "142718.825000", "142720.825000", "142722.827000", "142724.673000"],
      "InstanceCreationTime": ["141943.336000", "141944.825000", "141946.825000", "141948.827000", "141950.825000", "141952.825000", "141954.825000", "141956.825000", "141958.825000", "142000.825000", "142002.825000", "142004.826000", "142006.825000", "142008.825000", "142011.326000", "142012.825000", "142014.826000", "142016.825000", "142018.825000", "142020.826000", "142022.826000", "142024.825000", "142026.825000", "142028.825000", "142030.826000", "142032.826000", "142034.825000", "142036.825000", "142038.825000", "142040.826000", "142042.825000", "142044.825000", "142046.825000", "142048.826000", "142050.825000", "142052.825000", "142054.825000", "142056.825000", "142058.826000", "142100.825000", "142102.825000", "142104.825000", "142106.825000", "142108.825000", "142110.825000", "142112.825000", "142114.825000", "142116.825000", "142118.825000", "142120.825000", "142122.825000", "142124.825000", "142126.825000", "142128.825000", "142130.826000", "142132.826000", "142134.825000", "142136.825000", "142138.826000", "142140.826000", "142142.825000", "142144.825000", "142146.825000", "142148.825000", "142150.826000", "142152.826000", "142154.825000", "142156.826000", "142158.827000", "142200.825000", "142202.825000", "142204.825000", "142206.826000", "142208.825000", "142210.826000", "142212.825000", "142214.825000", "142216.825000", "142218.825000", "142220.825000", "142222.825000", "142224.826000", "142226.826000", "142228.825000", "142230.825000", "142232.826000", "142234.826000", "142236.825000", "142238.825000", "142240.826000", "142242.827000", "142244.825000", "142246.825000", "142248.825000", "142250.825000", "142252.825000", "142254.825000", "142256.825000", "142258.826000", "142300.826000", "142302.826000", "142304.827000", "142306.825000", "142308.825000", "142310.826000", "142312.826000", "142314.826000", "142316.825000", "142318.825000", "142320.826000", "142322.826000", "142324.825000", "142326.825000", "142328.825000", "142330.825000", "142332.826000", "142334.826000", "142336.826000", "142338.825000", "142340.826000", "142342.825000", "142344.825000", "142346.825000", "142348.826000", "142350.825000", "142352.827000", "142354.826000", "142356.825000", "142358.826000", "142400.826000", "142402.826000", "142404.825000", "142406.825000", "142409.325000", "142410.826000", "142412.826000", "142414.826000", "142416.825000", "142418.825000", "142420.825000", "142422.826000", "142424.826000", "142426.825000", "142428.826000", "142430.825000", "142432.826000", "142434.825000", "142436.826000", "142438.825000", "142440.825000", "142442.826000", "142444.826000", "142446.825000", "142448.826000", "142450.825000", "142452.825000", "142454.825000", "142456.826000", "142458.825000", "142500.825000", "142502.826000", "142504.825000", "142506.826000", "142508.825000", "142510.825000", "142512.826000", "142514.825000", "142516.825000", "142518.825000", "142520.827000", "142522.825000", "142524.825000", "142526.826000", "142528.826000", "142530.825000", "142532.825000", "142534.825000", "142536.825000", "142538.826000", "142540.825000", "142542.825000", "142544.825000", "142546.825000", "142548.825000", "142550.826000", "142552.826000", "142554.826000", "142556.825000", "142558.826000", "142600.825000", "142602.825000", "142604.825000", "142607.325000", "142608.826000", "142610.825000", "142612.827000", "142614.825000", "142616.825000", "142618.825000", "142620.825000", "142622.825000", "142624.825000", "142626.825000", "142628.825000", "142630.827000", "142632.825000", "142634.825000", "142636.825000", "142638.825000", "142640.826000", "142642.826000", "142644.825000", "142646.825000", "142648.826000", "142650.825000", "142652.826000", "142654.825000", "142656.825000", "142658.825000", "142700.825000", "142702.826000", "142704.827000", "142706.825000", "142708.825000", "142710.825000", "142712.826000", "142714.825000", "142716.826000", "142718.825000", "142720.825000", "142722.827000", "142724.673000"],
      "InstanceNumber": [1, 2, 3, 4, 5, 6, 7, 8, 9, 10, 11, 12, 13, 14, 15, 16, 17, 18, 19, 20, 21, 22, 23, 24, 25, 26, 27, 28, 29, 30, 31, 32, 33, 34, 35, 36, 37, 38, 39, 40, 41, 42, 43, 44, 45, 46, 47, 48, 49, 50, 51, 52, 53, 54, 55, 56, 57, 58, 59, 60, 61, 62, 63, 64, 65, 66, 67, 68, 69, 70, 71, 72, 73, 74, 75, 76, 77, 78, 79, 80, 81, 82, 83, 84, 85, 86, 87, 88, 89, 90, 91, 92, 93, 94, 95, 96, 97, 98, 99, 100, 101, 102, 103, 104, 105, 106, 107, 108, 109, 110, 111, 112, 113, 114, 115, 116, 117, 118, 119, 120, 121, 122, 123, 124, 125, 126, 127, 128, 129, 130, 131, 132, 133, 134, 135, 136, 137, 138, 139, 140, 141, 142, 143, 144, 145, 146, 147, 148, 149, 150, 151, 152, 153, 154, 155, 156, 157, 158, 159, 160, 161, 162, 163, 164, 165, 166, 167, 168, 169, 170, 171, 172, 173, 174, 175, 176, 177, 178, 179, 180, 181, 182, 183, 184, 185, 186, 187, 188, 189, 190, 191, 192, 193, 194, 195, 196, 197, 198, 199, 200, 201, 202, 203, 204, 205, 206, 207, 208, 209, 210, 211, 212, 213, 214, 215, 216, 217, 218, 219, 220, 221, 222, 223, 224, 225, 226, 227, 228, 229, 230, 231, 232],
      "LargestImagePixelValue": [3788, 3747, 3753, 3747, 3748, 3740, 3751, 3707, 3681, 3711, 3720, 3742, 3750, 3735, 3726, 3747, 3697, 3698, 3692, 3705, 3702, 3707, 3706, 3704, 3685, 3716, 3705, 3642, 3703, 3671, 3694, 3699, 3673, 3668, 3699, 3773, 3727, 3734, 3723, 3653, 3640, 3668, 3713, 3642, 3681, 3653, 3678, 3693, 3643, 3704, 3655, 3663, 3645, 3612, 3647, 3656, 3625, 3619, 3624, 3675, 3644, 3662, 3680, 3670, 3666, 3652, 3637, 3650, 3647, 3660, 3691, 3652, 3707, 3705, 3718, 3721, 3685, 3698, 3711, 3781, 3812, 3768, 3731, 3743, 3768, 3806, 3772, 3762, 3823, 3794, 3790, 3758, 3769, 3760, 3797, 3773, 3748, 3734, 3768, 3694, 3782, 3739, 3766, 3778, 3715, 3757, 3726, 3744, 3727, 3725, 3720, 3656, 3734, 3675, 3693, 3717, 3735, 3716, 3707, 3690, 3674, 3751, 3734, 3715, 3671, 3727, 3710, 3718, 3733, 3693, 3667, 3723, 3693, 3699, 3705, 3700, 3698, 3714, 3683, 3652, 3668, 3657, 3681, 3674, 3710, 3664, 3700, 3696, 3707, 3689, 3708, 3690, 3693, 3680, 3705, 3696, 3673, 3811, 3742, 3777, 3778, 3788, 3820, 3831, 3834, 3796, 3767, 3762, 3820, 3825, 3815, 3771, 3778, 3791, 3766, 3781, 3760, 3796, 3751, 3757, 3734, 3692, 3704, 3709, 3704, 3685, 3729, 3648, 3665, 3745, 3689, 3757, 3737, 3703, 3776, 3743, 3726, 3726, 3704, 3684, 3756, 3751, 3802, 3812, 3883, 3841, 3799, 3734, 3783, 3719, 3724, 3769, 3753, 3696, 3740, 3729, 3753, 3784, 3756, 3747, 3785, 3752, 3787, 3742, 3805, 3787, 3792, 3774, 3829, 3730, 3670, 3743],
      "WindowCenter": [798.0, 797.0, 797.0, 797.0, 798.0, 799.0, 799.0, 798.0, 797.0, 797.0, 798.0, 798.0, 797.0, 797.0, 797.0, 799.0, 799.0, 799.0, 800.0, 800.0, 798.0, 798.0, 798.0, 798.0, 798.0, 799.0, 799.0, 799.0, 798.0, 797.0, 798.0, 798.0, 799.0, 798.0, 798.0, 798.0, 797.0, 797.0, 798.0, 799.0, 798.0, 797.0, 799.0, 798.0, 796.0, 795.0, 795.0, 796.0, 795.0, 796.0, 798.0, 798.0, 797.0, 796.0, 797.0, 798.0, 797.0, 795.0, 794.0, 795.0, 795.0, 796.0, 796.0, 795.0, 795.0, 796.0, 797.0, 797.0, 795.0, 795.0, 797.0, 797.0, 797.0, 796.0, 796.0, 796.0, 794.0, 793.0, 793.0, 794.0, 793.0, 794.0, 795.0, 796.0, 796.0, 795.0, 795.0, 794.0, 794.0, 794.0, 796.0, 796.0, 795.0, 794.0, 795.0, 796.0, 795.0, 794.0, 795.0, 796.0, 796.0, 796.0, 796.0, 796.0, 796.0, 795.0, 796.0, 797.0, 797.0, 796.0, 796.0, 795.0, 796.0, 796.0, 797.0, 797.0, 796.0, 795.0, 794.0, 794.0, 794.0, 795.0, 797.0, 795.0, 794.0, 794.0, 794.0, 795.0, 796.0, 796.0, 797.0, 797.0, 795.0, 795.0, 796.0, 796.0, 796.0, 796.0, 797.0, 798.0, 797.0, 795.0, 796.0, 797.0, 797.0, 796.0, 798.0, 798.0, 797.0, 795.0, 794.0, 795.0, 795.0, 796.0, 796.0, 795.0, 794.0, 793.0, 794.0, 794.0, 794.0, 793.0, 796.0, 797.0, 796.0, 795.0, 794.0, 794.0, 795.0, 795.0, 797.0, 796.0, 795.0, 794.0, 794.0, 795.0, 794.0, 795.0, 796.0, 796.0, 795.0, 794.0, 793.0, 794.0, 794.0, 794.0, 794.0, 795.0, 792.0, 794.0, 793.0, 795.0, 795.0, 796.0, 798.0, 798.0, 797.0, 797.0, 798.0, 797.0, 796.0, 795.0, 796.0, 797.0, 797.0, 795.0, 794.0, 794.0, 793.0, 793.0, 793.0, 793.0, 793.0, 791.0, 791.0, 792.0, 793.0, 794.0, 794.0, 793.0, 794.0, 793.0, 794.0, 795.0, 796.0, 797.0, 797.0, 796.0, 795.0, 794.0, 794.0, 794.0],
      "WindowWidth": [1781.0, 1776.0, 1777.0, 1777.0, 1779.0, 1782.0, 1782.0, 1778.0, 1775.0, 1779.0, 1781.0, 1779.0, 1777.0, 1777.0, 1777.0, 1782.0, 1784.0, 1784.0, 1785.0, 1785.0, 1781.0, 1779.0, 1779.0, 1781.0, 1781.0, 1782.0, 1784.0, 1782.0, 1778.0, 1777.0, 1781.0, 1781.0, 1781.0, 1780.0, 1780.0, 1780.0, 1777.0, 1778.0, 1779.0, 1781.0, 1779.0, 1778.0, 1782.0, 1779.0, 1773.0, 1769.0, 1770.0, 1772.0, 1771.0, 1775.0, 1778.0, 1781.0, 1777.0, 1773.0, 1776.0, 1779.0, 1776.0, 1771.0, 1768.0, 1769.0, 1770.0, 1773.0, 1772.0, 1769.0, 1770.0, 1775.0, 1777.0, 1775.0, 1771.0, 1771.0, 1775.0, 1777.0, 1778.0, 1773.0, 1775.0, 1773.0, 1767.0, 1763.0, 1764.0, 1767.0, 1765.0, 1767.0, 1770.0, 1773.0, 1773.0, 1772.0, 1770.0, 1767.0, 1767.0, 1769.0, 1774.0, 1772.0, 1769.0, 1767.0, 1769.0, 1772.0, 1770.0, 1767.0, 1770.0, 1772.0, 1772.0, 1772.0, 1775.0, 1775.0, 1772.0, 1772.0, 1773.0, 1775.0, 1776.0, 1774.0, 1772.0, 1768.0, 1772.0, 1772.0, 1775.0, 1774.0, 1771.0, 1768.0, 1766.0, 1766.0, 1766.0, 1772.0, 1775.0, 1771.0, 1765.0, 1766.0, 1767.0, 1770.0, 1772.0, 1773.0, 1775.0, 1775.0, 1771.0, 1771.0, 1774.0, 1773.0, 1772.0, 1772.0, 1777.0, 1778.0, 1774.0, 1771.0, 1772.0, 1775.0, 1775.0, 1773.0, 1778.0, 1780.0, 1774.0, 1769.0, 1767.0, 1768.0, 1770.0, 1772.0, 1773.0, 1771.0, 1765.0, 1765.0, 1765.0, 1766.0, 1767.0, 1765.0, 1773.0, 1778.0, 1773.0, 1770.0, 1767.0, 1767.0, 1770.0, 1771.0, 1775.0, 1772.0, 1769.0, 1767.0, 1767.0, 1768.0, 1767.0, 1770.0, 1773.0, 1773.0, 1768.0, 1765.0, 1763.0, 1765.0, 1766.0, 1767.0, 1767.0, 1768.0, 1760.0, 1765.0, 1764.0, 1769.0, 1770.0, 1773.0, 1779.0, 1779.0, 1776.0, 1776.0, 1777.0, 1774.0, 1772.0, 1769.0, 1772.0, 1776.0, 1775.0, 1770.0, 1767.0, 1764.0, 1763.0, 1761.0, 1763.0, 1764.0, 1762.0, 1758.0, 1758.0, 1761.0, 1765.0, 1767.0, 1766.0, 1765.0, 1765.0, 1764.0, 1767.0, 1770.0, 1773.0, 1774.0, 1774.0, 1773.0, 1771.0, 1767.0, 1764.0, 1765.0]
    },
    "slices": {}
  }
}