{
  "AcquisitionMatrixPE": 100,
  "AcquisitionNumber": 1,
  "AcquisitionTime": "14:11:10.995000",
  "BandwidthPerPixelPhaseEncode": 18.519,
  "BaseResolution": 100,
  "BodyPartExamined": "BRAIN",
  "ConsistencyInfo": "N4_VE11C_LATEST_20160120",
  "ConversionSoftware": "dcm2niix",
  "ConversionSoftwareVersion": "v1.0.20180622 GCC4.9.2",
  "DerivedVendorReportedEchoSpacing": 0.000539986,
  "DeviceSerialNumber": "166078",
  "DwellTime": 2.1e-06,
  "EchoTime": 0.034,
  "EchoTrainLength": 100,
  "EffectiveEchoSpacing": 0.000539986,
  "FlipAngle": 90,
  "ImageOrientationPatientDICOM": [1, -7.96831e-07, -1.43298e-05, 4.58172e-08, 0.99863, -0.0523331],
  "ImageType": [
    "ORIGINAL",
    "PRIMARY",
    "M",
    "ND",
    "MOSAIC"
],
  "InPlanePhaseEncodingDirectionDICOM": "COL",
  "InstitutionAddress": "Street_StreetNo_Bei_Jing_District_CN_ZIP",
  "InstitutionName": "BeiJing_Normal_University",
  "InstitutionalDepartmentName": "Department",
  "MRAcquisitionType": "2D",
  "MagneticFieldStrength": 3,
  "Manufacturer": "Siemens",
  "ManufacturersModelName": "Prisma",
  "Modality": "MR",
  "MultibandAccelerationFactor": 3,
  "PartialFourier": 1,
  "PatientPosition": "HFS",
  "PercentPhaseFOV": 100,
  "PhaseEncodingDirection": "j-",
  "PhaseEncodingSteps": 100,
  "PhaseResolution": 1,
  "PixelBandwidth": 2380,
  "ProcedureStepDescription": "BNU_P2018_64CH_Liu.Jia",
  "ProtocolName": "bold_100x100_s3_2x2x2_232",
  "PulseSequenceDetails": "%SiemensSeq%_ep2d_bold",
  "ReceiveCoilActiveElements": "HC1-7;NC1",
  "ReceiveCoilName": "HeadNeck_64",
  "ReconMatrixPE": 100,
  "RepetitionTime": 2,
  "SAR": 0.0756439,
  "ScanOptions": "FS",
  "ScanningSequence": "EP",
  "SequenceName": "_epfid2d1_100",
  "SequenceVariant": "SK",
  "SeriesDescription": "bold_100x100_s3_2x2x2_232",
  "SeriesNumber": 4,
  "ShimSetting": [-5449, -11520, -1259, 393, 25, -150, -71, 41],
  "SliceThickness": 2,
  "SliceTiming": [1.485, 0, 0.99, 0.0825, 1.0725, 0.165, 1.155, 0.2475, 1.2375, 0.33, 1.32, 0.4125, 1.4025, 0.5775, 1.5675, 0.66, 1.65, 0.7425, 1.7325, 0.825, 1.815, 0.9075, 1.8975, 0.495, 1.485, 0, 0.99, 0.0825, 1.0725, 0.165, 1.155, 0.2475, 1.2375, 0.33, 1.32, 0.4125, 1.4025, 0.5775, 1.5675, 0.66, 1.65, 0.7425, 1.7325, 0.825, 1.815, 0.9075, 1.8975, 0.495, 1.485, 0, 0.99, 0.0825, 1.0725, 0.165, 1.155, 0.2475, 1.2375, 0.33, 1.32, 0.4125, 1.4025, 0.5775, 1.5675, 0.66, 1.65, 0.7425, 1.7325, 0.825, 1.815, 0.9075, 1.8975, 0.495],
  "SoftwareVersions": "syngo_MR_E11",
  "SpacingBetweenSlices": 2,
  "StationName": "AWP166078",
  "TaskName": "motor",
  "TotalReadoutTime": 0.0534586,
  "TxRefAmp": 208.836,
  "dcmmeta_affine": [
    [-2.0, 9.163434100400991e-08, -2.8703700081678107e-05, 99.99455261230469],
    [1.5936619774947758e-06, 1.9972593784332275, -0.10466616600751877, -94.92518615722656],
    [-2.8659571398748085e-05, 0.10466616600751877, 1.9972593784332275, -65.17681884765625],
    [0.0, 0.0, 0.0, 1.0]
],
  "dcmmeta_reorient_transform": [
    [0.0, -1.0, 0.0, 99.0],
    [1.0, 0.0, 0.0, 0.0],
    [0.0, 0.0, 1.0, 0.0],
    [0.0, 0.0, 0.0, 1.0]
],
  "dcmmeta_shape": [100, 100, 72, 232],
  "dcmmeta_slice_dim": 2,
  "dcmmeta_version": 0.6,
  "global": {
    "const": {
      "AcquisitionMatrix": [100, 0, 0, 100],
      "AngioFlag": "N",
      "BitsAllocated": 16,
      "BitsStored": 12,
      "BodyPartExamined": "BRAIN",
      "Columns": 900,
      "EchoNumbers": 1,
      "EchoTime": 34.0,
      "EchoTrainLength": 100,
      "FlipAngle": 90.0,
      "HighBit": 11,
      "ImageOrientationPatient": [0.99999999989701, -7.96830971e-07, -1.43297859e-05, 4.581717e-08, 0.99862968527096, -0.0523330841401],
      "ImagePositionPatient": [-899.99460086991, -901.70659903752, -12.936937604497],
      "ImageType": [
        "ORIGINAL",
        "PRIMARY",
        "M",
        "ND",
        "MOSAIC"
],
      "ImagedNucleus": "1H",
      "ImagingFrequency": 123.257837,
      "InPlanePhaseEncodingDirection": "COL",
      "MRAcquisitionType": "2D",
      "MagneticFieldStrength": 3.0,
      "Manufacturer": "SIEMENS",
      "ManufacturerModelName": "Prisma",
      "Modality": "MR",
      "NumberOfAverages": 1.0,
      "NumberOfPhaseEncodingSteps": 100,
      "PercentPhaseFieldOfView": 100.0,
      "PercentSampling": 100.0,
      "PerformedProcedureStepStartTime": "135916.185000",
      "PhotometricInterpretation": "MONOCHROME2",
      "PixelBandwidth": 2380.0,
      "PixelRepresentation": 0,
      "PixelSpacing": [2.0, 2.0],
      "ProtocolName": "bold_100x100_s3_2x2x2_232",
      "RepetitionTime": 2000.0,
      "Rows": 900,
      "SAR": 0.0756438883744,
      "SamplesPerPixel": 1,
      "ScanOptions": "FS",
      "ScanningSequence": "EP",
      "SequenceName": "*epfid2d1_100",
      "SequenceVariant": "SK",
      "SeriesDescription": "bold_100x100_s3_2x2x2_232",
      "SeriesNumber": 4,
      "SeriesTime": "141113.638000",
      "SliceLocation": -60.121213826421,
      "SliceThickness": 2.0,
      "SmallestImagePixelValue": 0,
      "SoftwareVersions": "syngo MR E11",
      "SpacingBetweenSlices": 2.0000000116669,
      "SpecificCharacterSet": "ISO_IR 100",
      "StudyID": "1",
      "StudyTime": "135916.103000",
      "TransmitCoilName": "Body",
      "VariableFlipAngleFlag": "N",
      "WindowCenterWidthExplanation": "Algo1",
      "dBdt": 0.0},
    "slices": {}
  },
  "time": {
    "samples": {
      "AcquisitionNumber": [1, 2, 3, 4, 5, 6, 7, 8, 9, 10, 11, 12, 13, 14, 15, 16, 17, 18, 19, 20, 21, 22, 23, 24, 25, 26, 27, 28, 29, 30, 31, 32, 33, 34, 35, 36, 37, 38, 39, 40, 41, 42, 43, 44, 45, 46, 47, 48, 49, 50, 51, 52, 53, 54, 55, 56, 57, 58, 59, 60, 61, 62, 63, 64, 65, 66, 67, 68, 69, 70, 71, 72, 73, 74, 75, 76, 77, 78, 79, 80, 81, 82, 83, 84, 85, 86, 87, 88, 89, 90, 91, 92, 93, 94, 95, 96, 97, 98, 99, 100, 101, 102, 103, 104, 105, 106, 107, 108, 109, 110, 111, 112, 113, 114, 115, 116, 117, 118, 119, 120, 121, 122, 123, 124, 125, 126, 127, 128, 129, 130, 131, 132, 133, 134, 135, 136, 137, 138, 139, 140, 141, 142, 143, 144, 145, 146, 147, 148, 149, 150, 151, 152, 153, 154, 155, 156, 157, 158, 159, 160, 161, 162, 163, 164, 165, 166, 167, 168, 169, 170, 171, 172, 173, 174, 175, 176, 177, 178, 179, 180, 181, 182, 183, 184, 185, 186, 187, 188, 189, 190, 191, 192, 193, 194, 195, 196, 197, 198, 199, 200, 201, 202, 203, 204, 205, 206, 207, 208, 209, 210, 211, 212, 213, 214, 215, 216, 217, 218, 219, 220, 221, 222, 223, 224, 225, 226, 227, 228, 229, 230, 231, 232],
      "AcquisitionTime": ["141110.995000", "141112.995000", "141114.995000", "141116.995000", "141118.995000", "141120.995000", "141122.995000", "141124.995000", "141126.995000", "141128.995000", "141130.995000", "141132.995000", "141134.995000", "141136.995000", "141138.995000", "141140.995000", "141142.995000", "141144.995000", "141146.995000", "141148.995000", "141150.995000", "141152.995000", "141154.995000", "141156.995000", "141158.995000", "141200.995000", "141202.995000", "141204.995000", "141206.995000", "141208.995000", "141210.995000", "141212.995000", "141214.995000", "141216.995000", "141218.995000", "141220.995000", "141222.995000", "141224.995000", "141226.995000", "141228.995000", "141230.995000", "141232.995000", "141234.995000", "141236.995000", "141238.995000", "141240.995000", "141242.995000", "141244.995000", "141246.995000", "141248.995000", "141250.995000", "141252.995000", "141254.995000", "141256.995000", "141258.995000", "141300.995000", "141302.995000", "141304.995000", "141306.995000", "141308.995000", "141310.995000", "141312.995000", "141314.995000", "141316.995000", "141318.995000", "141320.995000", "141322.995000", "141324.995000", "141326.995000", "141328.995000", "141330.995000", "141332.995000", "141334.995000", "141336.995000", "141338.995000", "141340.995000", "141342.995000", "141344.995000", "141346.995000", "141348.995000", "141350.995000", "141352.995000", "141354.995000", "141356.995000", "141358.995000", "141400.995000", "141402.995000", "141404.995000", "141406.995000", "141408.995000", "141410.995000", "141412.995000", "141414.995000", "141416.995000", "141418.995000", "141420.995000", "141422.995000", "141424.995000", "141426.995000", "141428.995000", "141430.995000", "141432.995000", "141434.995000", "141436.995000", "141438.995000", "141440.995000", "141442.995000", "141444.995000", "141446.995000", "141448.995000", "141450.995000", "141452.995000", "141454.995000", "141456.995000", "141458.995000", "141500.995000", "141502.995000", "141504.995000", "141506.995000", "141508.995000", "141510.995000", "141512.995000", "141514.995000", "141516.995000", "141518.995000", "141520.995000", "141522.995000", "141524.995000", "141526.995000", "141528.995000", "141530.995000", "141532.995000", "141534.995000", "141536.995000", "141538.995000", "141540.995000", "141542.995000", "141544.995000", "141546.995000", "141548.995000", "141550.995000", "141552.995000", "141554.995000", "141556.995000", "141558.995000", "141600.995000", "141602.995000", "141604.995000", "141606.995000", "141608.995000", "141610.995000", "141612.995000", "141614.995000", "141616.995000", "141618.995000", "141620.995000", "141622.995000", "141624.995000", "141626.995000", "141628.995000", "141630.995000", "141632.995000", "141634.995000", "141636.995000", "141638.995000", "141640.995000", "141642.995000", "141644.995000", "141646.995000", "141648.995000", "141650.995000", "141652.995000", "141654.995000", "141656.995000", "141658.995000", "141700.995000", "141702.995000", "141704.995000", "141706.995000", "141708.995000", "141710.995000", "141712.995000", "141714.995000", "141716.995000", "141718.995000", "141720.995000", "141722.995000", "141724.995000", "141726.995000", "141728.995000", "141730.995000", "141732.995000", "141734.995000", "141736.995000", "141738.995000", "141740.995000", "141742.995000", "141744.995000", "141746.995000", "141748.995000", "141750.995000", "141752.995000", "141754.995000", "141756.995000", "141758.995000", "141800.995000", "141802.995000", "141804.995000", "141806.995000", "141808.995000", "141810.995000", "141812.995000", "141814.995000", "141816.995000", "141818.995000", "141820.995000", "141822.995000", "141824.995000", "141826.995000", "141828.995000", "141830.995000", "141832.995000", "141834.995000", "141836.995000", "141838.995000", "141840.995000", "141842.995000", "141844.995000", "141846.995000", "141848.995000", "141850.995000", "141852.995000"],
      "ContentTime": ["141113.641000", "141115.137000", "141117.137000", "141119.137000", "141121.138000", "141123.138000", "141125.638000", "141127.638000", "141129.137000", "141131.137000", "141133.137000", "141135.137000", "141137.137000", "141139.138000", "141141.139000", "141143.138000", "141145.637000", "141147.138000", "141149.137000", "141151.137000", "141153.637000", "141155.137000", "141157.638000", "141159.138000", "141201.138000", "141203.137000", "141205.137000", "141207.137000", "141209.137000", "141211.637000", "141213.638000", "141215.138000", "141217.638000", "141219.638000", "141221.137000", "141223.637000", "141225.137000", "141227.137000", "141229.137000", "141231.139000", "141233.138000", "141235.138000", "141237.638000", "141239.637000", "141241.138000", "141243.137000", "141245.637000", "141247.637000", "141249.138000", "141251.638000", "141253.138000", "141255.637000", "141257.137000", "141259.137000", "141301.137000", "141303.137000", "141305.138000", "141307.138000", "141309.638000", "141311.638000", "141313.637000", "141315.137000", "141317.637000", "141319.637000", "141321.638000", "141323.138000", "141325.138000", "141327.638000", "141329.139000", "141331.637000", "141333.637000", "141335.637000", "141337.138000", "141339.137000", "141341.138000", "141343.638000", "141345.139000", "141347.138000", "141349.137000", "141351.637000", "141353.137000", "141355.137000", "141357.138000", "141359.638000", "141401.138000", "141403.138000", "141405.638000", "141407.137000", "141409.137000", "141411.137000", "141413.137000", "141415.137000", "141417.138000", "141419.138000", "141421.138000", "141423.638000", "141425.137000", "141427.637000", "141429.137000", "141431.137000", "141433.138000", "141435.138000", "141437.138000", "141439.139000", "141441.137000", "141443.137000", "141445.137000", "141447.137000", "141449.637000", "141451.138000", "141453.638000", "141455.138000", "141457.138000", "141459.138000", "141501.137000", "141503.137000", "141505.138000", "141507.137000", "141509.138000", "141511.638000", "141513.138000", "141515.638000", "141517.637000", "141519.137000", "141521.638000", "141523.137000", "141525.137000", "141527.138000", "141529.638000", "141531.638000", "141533.138000", "141535.137000", "141537.137000", "141539.137000", "141541.638000", "141543.139000", "141545.138000", "141547.138000", "141549.138000", "141551.138000", "141553.138000", "141555.138000", "141557.638000", "141559.137000", "141601.139000", "141603.638000", "141605.138000", "141607.638000", "141609.137000", "141611.637000", "141613.637000", "141615.137000", "141617.137000", "141619.639000", "141621.638000", "141623.138000", "141625.638000", "141627.637000", "141629.637000", "141631.137000", "141633.638000", "141635.138000", "141637.138000", "141639.138000", "141641.138000", "141643.137000", "141645.137000", "141647.137000", "141649.137000", "141651.637000", "141653.138000", "141655.638000", "141657.638000", "141659.638000", "141701.638000", "141703.137000", "141705.137000", "141707.138000", "141709.637000", "141711.639000", "141713.138000", "141715.638000", "141717.638000", "141719.138000", "141721.137000", "141723.637000", "141725.138000", "141727.137000", "141729.138000", "141731.138000", "141733.138000", "141735.138000", "141737.137000", "141739.138000", "141741.137000", "141743.138000", "141745.138000", "141747.639000", "141749.138000", "141751.638000", "141753.137000", "141755.638000", "141757.637000", "141759.638000", "141801.637000", "141803.139000", "141805.638000", "141807.139000", "141809.138000", "141811.145000", "141813.138000", "141815.638000", "141817.137000", "141819.137000", "141821.138000", "141823.138000", "141825.139000", "141827.639000", "141829.138000", "141831.137000", "141833.138000", "141835.138000", "141837.137000", "141839.138000", "141841.139000", "141843.138000", "141845.637000", "141847.638000", "141849.137000", "141851.138000", "141853.137000", "141855.098000"],
      "InstanceCreationTime": ["141113.641000", "141115.137000", "141117.137000", "141119.137000", "141121.138000", "141123.138000", "141125.638000", "141127.638000", "141129.137000", "141131.137000", "141133.137000", "141135.137000", "141137.137000", "141139.138000", "141141.139000", "141143.138000", "141145.637000", "141147.138000", "141149.137000", "141151.137000", "141153.637000", "141155.137000", "141157.638000", "141159.138000", "141201.138000", "141203.137000", "141205.137000", "141207.137000", "141209.137000", "141211.637000", "141213.638000", "141215.138000", "141217.638000", "141219.638000", "141221.137000", "141223.637000", "141225.137000", "141227.137000", "141229.137000", "141231.139000", "141233.138000", "141235.138000", "141237.638000", "141239.637000", "141241.138000", "141243.137000", "141245.637000", "141247.637000", "141249.138000", "141251.638000", "141253.138000", "141255.637000", "141257.137000", "141259.137000", "141301.137000", "141303.137000", "141305.138000", "141307.138000", "141309.638000", "141311.638000", "141313.637000", "141315.137000", "141317.637000", "141319.637000", "141321.638000", "141323.138000", "141325.138000", "141327.638000", "141329.139000", "141331.637000", "141333.637000", "141335.637000", "141337.138000", "141339.137000", "141341.138000", "141343.638000", "141345.139000", "141347.138000", "141349.137000", "141351.637000", "141353.137000", "141355.137000", "141357.138000", "141359.638000", "141401.138000", "141403.138000", "141405.638000", "141407.137000", "141409.137000", "141411.137000", "141413.137000", "141415.137000", "141417.138000", "141419.138000", "141421.138000", "141423.638000", "141425.137000", "141427.637000", "141429.137000", "141431.137000", "141433.138000", "141435.138000", "141437.138000", "141439.139000", "141441.137000", "141443.137000", "141445.137000", "141447.137000", "141449.637000", "141451.138000", "141453.638000", "141455.138000", "141457.138000", "141459.138000", "141501.137000", "141503.137000", "141505.138000", "141507.137000", "141509.138000", "141511.638000", "141513.138000", "141515.638000", "141517.637000", "141519.137000", "141521.638000", "141523.137000", "141525.137000", "141527.138000", "141529.638000", "141531.638000", "141533.138000", "141535.137000", "141537.137000", "141539.137000", "141541.638000", "141543.139000", "141545.138000", "141547.138000", "141549.138000", "141551.138000", "141553.138000", "141555.138000", "141557.638000", "141559.137000", "141601.139000", "141603.638000", "141605.138000", "141607.638000", "141609.137000", "141611.637000", "141613.637000", "141615.137000", "141617.137000", "141619.639000", "141621.638000", "141623.138000", "141625.638000", "141627.637000", "141629.637000", "141631.137000", "141633.638000", "141635.138000", "141637.138000", "141639.138000", "141641.138000", "141643.137000", "141645.137000", "141647.137000", "141649.137000", "141651.637000", "141653.138000", "141655.638000", "141657.638000", "141659.638000", "141701.638000", "141703.137000", "141705.137000", "141707.138000", "141709.637000", "141711.639000", "141713.138000", "141715.638000", "141717.638000", "141719.138000", "141721.137000", "141723.637000", "141725.138000", "141727.137000", "141729.138000", "141731.138000", "141733.138000", "141735.138000", "141737.137000", "141739.138000", "141741.137000", "141743.138000", "141745.138000", "141747.639000", "141749.138000", "141751.638000", "141753.137000", "141755.638000", "141757.637000", "141759.638000", "141801.637000", "141803.139000", "141805.638000", "141807.139000", "141809.138000", "141811.145000", "141813.138000", "141815.638000", "141817.137000", "141819.137000", "141821.138000", "141823.138000", "141825.139000", "141827.639000", "141829.138000", "141831.137000", "141833.138000", "141835.138000", "141837.137000", "141839.138000", "141841.139000", "141843.138000", "141845.637000", "141847.638000", "141849.137000", "141851.138000", "141853.137000", "141855.098000"],
      "InstanceNumber": [1, 2, 3, 4, 5, 6, 7, 8, 9, 10, 11, 12, 13, 14, 15, 16, 17, 18, 19, 20, 21, 22, 23, 24, 25, 26, 27, 28, 29, 30, 31, 32, 33, 34, 35, 36, 37, 38, 39, 40, 41, 42, 43, 44, 45, 46, 47, 48, 49, 50, 51, 52, 53, 54, 55, 56, 57, 58, 59, 60, 61, 62, 63, 64, 65, 66, 67, 68, 69, 70, 71, 72, 73, 74, 75, 76, 77, 78, 79, 80, 81, 82, 83, 84, 85, 86, 87, 88, 89, 90, 91, 92, 93, 94, 95, 96, 97, 98, 99, 100, 101, 102, 103, 104, 105, 106, 107, 108, 109, 110, 111, 112, 113, 114, 115, 116, 117, 118, 119, 120, 121, 122, 123, 124, 125, 126, 127, 128, 129, 130, 131, 132, 133, 134, 135, 136, 137, 138, 139, 140, 141, 142, 143, 144, 145, 146, 147, 148, 149, 150, 151, 152, 153, 154, 155, 156, 157, 158, 159, 160, 161, 162, 163, 164, 165, 166, 167, 168, 169, 170, 171, 172, 173, 174, 175, 176, 177, 178, 179, 180, 181, 182, 183, 184, 185, 186, 187, 188, 189, 190, 191, 192, 193, 194, 195, 196, 197, 198, 199, 200, 201, 202, 203, 204, 205, 206, 207, 208, 209, 210, 211, 212, 213, 214, 215, 216, 217, 218, 219, 220, 221, 222, 223, 224, 225, 226, 227, 228, 229, 230, 231, 232],
      "LargestImagePixelValue": [3962, 3855, 3785, 3800, 3763, 3810, 3773, 3797, 3815, 3790, 3786, 3772, 3751, 3740, 3822, 3780, 3796, 3790, 3767, 3766, 3791, 3781, 3759, 3779, 3789, 3799, 3799, 3774, 3777, 3766, 3766, 3811, 3782, 3804, 3795, 3794, 3810, 3798, 3820, 3795, 3765, 3754, 3824, 3780, 3779, 3735, 3750, 3746, 3767, 3789, 3792, 3778, 3750, 3730, 3785, 3745, 3754, 3761, 3759, 3763, 3742, 3784, 3743, 3748, 3737, 3748, 3738, 3755, 3747, 3805, 3760, 3779, 3738, 3706, 3719, 3743, 3669, 3692, 3732, 3688, 3690, 3750, 3707, 3680, 3698, 3763, 3674, 3751, 3706, 3751, 3746, 3751, 3725, 3808, 3715, 3805, 3823, 3798, 3786, 3790, 3803, 3799, 3803, 3771, 3800, 3835, 3809, 3803, 3794, 3818, 3803, 3850, 3814, 3866, 3837, 3815, 3841, 3844, 3812, 3827, 3828, 3902, 3846, 3819, 3884, 3828, 3829, 3840, 3818, 3802, 3852, 3849, 3814, 3801, 3849, 3821, 3809, 3854, 3857, 3768, 3764, 3858, 3885, 3907, 3754, 3768, 3769, 3857, 3864, 3836, 3867, 3857, 3853, 3803, 3831, 3794, 3826, 3849, 3819, 3825, 3844, 3838, 3869, 3884, 3824, 3844, 3824, 3853, 3802, 3850, 3815, 3823, 3815, 3864, 3843, 3792, 3832, 3829, 3856, 3870, 3843, 3855, 3810, 3890, 3877, 3896, 3848, 3881, 3830, 3856, 3867, 3827, 3820, 3799, 3817, 3801, 3825, 3814, 3739, 3832, 3835, 3745, 3686, 3729, 3649, 3639, 3674, 3677, 3715, 3710, 3657, 3687, 3652, 3692, 3672, 3667, 3698, 3791, 3743, 3716, 3751, 3847, 3825, 3788, 3818, 3814, 3832, 3762, 3818, 3792, 3770, 3763],
      "WindowCenter": [797.0, 797.0, 795.0, 794.0, 793.0, 793.0, 794.0, 794.0, 794.0, 795.0, 795.0, 795.0, 793.0, 792.0, 792.0, 792.0, 792.0, 793.0, 794.0, 795.0, 794.0, 792.0, 793.0, 793.0, 793.0, 793.0, 794.0, 794.0, 792.0, 792.0, 791.0, 792.0, 792.0, 793.0, 793.0, 792.0, 792.0, 792.0, 794.0, 794.0, 794.0, 794.0, 795.0, 794.0, 793.0, 792.0, 793.0, 794.0, 794.0, 794.0, 796.0, 797.0, 796.0, 793.0, 791.0, 791.0, 791.0, 792.0, 793.0, 793.0, 792.0, 793.0, 793.0, 793.0, 794.0, 793.0, 793.0, 792.0, 792.0, 793.0, 793.0, 794.0, 793.0, 793.0, 795.0, 795.0, 792.0, 791.0, 791.0, 792.0, 793.0, 794.0, 796.0, 796.0, 794.0, 792.0, 791.0, 791.0, 791.0, 791.0, 791.0, 791.0, 789.0, 791.0, 790.0, 793.0, 792.0, 792.0, 794.0, 794.0, 793.0, 793.0, 793.0, 792.0, 792.0, 793.0, 794.0, 792.0, 791.0, 791.0, 792.0, 793.0, 794.0, 794.0, 795.0, 794.0, 793.0, 792.0, 791.0, 791.0, 792.0, 792.0, 792.0, 792.0, 792.0, 792.0, 793.0, 793.0, 793.0, 793.0, 796.0, 796.0, 795.0, 793.0, 791.0, 791.0, 791.0, 793.0, 793.0, 795.0, 792.0, 792.0, 793.0, 795.0, 792.0, 792.0, 793.0, 793.0, 792.0, 791.0, 792.0, 793.0, 793.0, 792.0, 793.0, 793.0, 791.0, 791.0, 791.0, 791.0, 790.0, 789.0, 790.0, 791.0, 791.0, 792.0, 792.0, 794.0, 793.0, 793.0, 793.0, 793.0, 793.0, 793.0, 792.0, 792.0, 793.0, 792.0, 793.0, 794.0, 793.0, 793.0, 793.0, 793.0, 792.0, 792.0, 793.0, 794.0, 793.0, 793.0, 793.0, 794.0, 795.0, 796.0, 796.0, 796.0, 795.0, 794.0, 793.0, 794.0, 796.0, 796.0, 798.0, 798.0, 796.0, 794.0, 793.0, 794.0, 794.0, 794.0, 794.0, 795.0, 795.0, 795.0, 794.0, 795.0, 794.0, 796.0, 796.0, 796.0, 794.0, 793.0, 794.0, 794.0, 794.0, 795.0, 796.0, 796.0, 796.0, 795.0, 795.0, 794.0],
      "WindowWidth": [1779.0, 1777.0, 1772.0, 1768.0, 1764.0, 1765.0, 1766.0, 1769.0, 1769.0, 1770.0, 1772.0, 1772.0, 1764.0, 1760.0, 1762.0, 1762.0, 1762.0, 1764.0, 1768.0, 1769.0, 1766.0, 1763.0, 1763.0, 1766.0, 1763.0, 1765.0, 1768.0, 1767.0, 1763.0, 1760.0, 1759.0, 1762.0, 1761.0, 1764.0, 1765.0, 1761.0, 1761.0, 1762.0, 1767.0, 1767.0, 1768.0, 1769.0, 1770.0, 1766.0, 1763.0, 1762.0, 1764.0, 1766.0, 1766.0, 1767.0, 1776.0, 1777.0, 1772.0, 1764.0, 1759.0, 1757.0, 1759.0, 1762.0, 1765.0, 1763.0, 1763.0, 1765.0, 1763.0, 1764.0, 1766.0, 1763.0, 1762.0, 1760.0, 1760.0, 1763.0, 1765.0, 1766.0, 1765.0, 1765.0, 1771.0, 1770.0, 1761.0, 1758.0, 1757.0, 1759.0, 1763.0, 1768.0, 1773.0, 1772.0, 1765.0, 1759.0, 1756.0, 1758.0, 1757.0, 1758.0, 1757.0, 1757.0, 1751.0, 1758.0, 1756.0, 1764.0, 1762.0, 1762.0, 1766.0, 1766.0, 1765.0, 1766.0, 1763.0, 1761.0, 1760.0, 1764.0, 1767.0, 1763.0, 1760.0, 1760.0, 1761.0, 1765.0, 1766.0, 1768.0, 1770.0, 1768.0, 1763.0, 1760.0, 1758.0, 1759.0, 1760.0, 1762.0, 1763.0, 1762.0, 1761.0, 1761.0, 1764.0, 1765.0, 1766.0, 1766.0, 1773.0, 1775.0, 1770.0, 1762.0, 1759.0, 1756.0, 1756.0, 1763.0, 1766.0, 1769.0, 1762.0, 1763.0, 1765.0, 1771.0, 1762.0, 1761.0, 1764.0, 1765.0, 1762.0, 1759.0, 1761.0, 1764.0, 1763.0, 1761.0, 1764.0, 1763.0, 1759.0, 1757.0, 1757.0, 1757.0, 1755.0, 1753.0, 1754.0, 1758.0, 1759.0, 1762.0, 1762.0, 1765.0, 1764.0, 1765.0, 1764.0, 1764.0, 1764.0, 1764.0, 1762.0, 1760.0, 1762.0, 1760.0, 1764.0, 1766.0, 1765.0, 1765.0, 1763.0, 1764.0, 1762.0, 1762.0, 1765.0, 1766.0, 1764.0, 1764.0, 1765.0, 1768.0, 1770.0, 1774.0, 1776.0, 1773.0, 1771.0, 1768.0, 1765.0, 1768.0, 1772.0, 1773.0, 1778.0, 1779.0, 1773.0, 1767.0, 1765.0, 1765.0, 1767.0, 1767.0, 1768.0, 1771.0, 1770.0, 1769.0, 1768.0, 1770.0, 1769.0, 1774.0, 1775.0, 1772.0, 1766.0, 1766.0, 1768.0, 1766.0, 1767.0, 1770.0, 1773.0, 1773.0, 1772.0, 1771.0, 1770.0, 1768.0]
    },
    "slices": {}
  }
}