{
  "AcquisitionMatrixPE": 100,
  "AcquisitionNumber": 1,
  "AcquisitionTime": "14:31:15.292500",
  "BandwidthPerPixelPhaseEncode": 18.519,
  "BaseResolution": 100,
  "BodyPartExamined": "BRAIN",
  "ConsistencyInfo": "N4_VE11C_LATEST_20160120",
  "ConversionSoftware": "dcm2niix",
  "ConversionSoftwareVersion": "v1.0.20180622 GCC4.9.2",
  "DerivedVendorReportedEchoSpacing": 0.000539986,
  "DeviceSerialNumber": "166078",
  "DwellTime": 2.1e-06,
  "EchoTime": 0.034,
  "EchoTrainLength": 100,
  "EffectiveEchoSpacing": 0.000539986,
  "FlipAngle": 90,
  "ImageOrientationPatientDICOM": [1, -7.96831e-07, -1.43298e-05, 4.58172e-08, 0.99863, -0.0523331],
  "ImageType": [
    "ORIGINAL",
    "PRIMARY",
    "M",
    "ND",
    "MOSAIC"
],
  "InPlanePhaseEncodingDirectionDICOM": "COL",
  "InstitutionAddress": "Street_StreetNo_Bei_Jing_District_CN_ZIP",
  "InstitutionName": "BeiJing_Normal_University",
  "InstitutionalDepartmentName": "Department",
  "MRAcquisitionType": "2D",
  "MagneticFieldStrength": 3,
  "Manufacturer": "Siemens",
  "ManufacturersModelName": "Prisma",
  "Modality": "MR",
  "MultibandAccelerationFactor": 3,
  "PartialFourier": 1,
  "PatientPosition": "HFS",
  "PercentPhaseFOV": 100,
  "PhaseEncodingDirection": "j-",
  "PhaseEncodingSteps": 100,
  "PhaseResolution": 1,
  "PixelBandwidth": 2380,
  "ProcedureStepDescription": "BNU_P2018_64CH_Liu.Jia",
  "ProtocolName": "bold_100x100_s3_2x2x2_232",
  "PulseSequenceDetails": "%SiemensSeq%_ep2d_bold",
  "ReceiveCoilActiveElements": "HC1-7;NC1",
  "ReceiveCoilName": "HeadNeck_64",
  "ReconMatrixPE": 100,
  "RepetitionTime": 2,
  "SAR": 0.0756439,
  "ScanOptions": "FS",
  "ScanningSequence": "EP",
  "SequenceName": "_epfid2d1_100",
  "SequenceVariant": "SK",
  "SeriesDescription": "bold_100x100_s3_2x2x2_232",
  "SeriesNumber": 8,
  "ShimSetting": [-5449, -11520, -1259, 393, 25, -150, -71, 41],
  "SliceThickness": 2,
  "SliceTiming": [1.4825, 0, 0.99, 0.0825, 1.0725, 0.165, 1.155, 0.2475, 1.2375, 0.33, 1.3175, 0.4125, 1.4, 0.5775, 1.565, 0.66, 1.6475, 0.7425, 1.73, 0.825, 1.8125, 0.9075, 1.895, 0.495, 1.4825, 0, 0.99, 0.0825, 1.0725, 0.165, 1.155, 0.2475, 1.2375, 0.33, 1.3175, 0.4125, 1.4, 0.5775, 1.565, 0.66, 1.6475, 0.7425, 1.73, 0.825, 1.8125, 0.9075, 1.895, 0.495, 1.4825, 0, 0.99, 0.0825, 1.0725, 0.165, 1.155, 0.2475, 1.2375, 0.33, 1.3175, 0.4125, 1.4, 0.5775, 1.565, 0.66, 1.6475, 0.7425, 1.73, 0.825, 1.8125, 0.9075, 1.895, 0.495],
  "SoftwareVersions": "syngo_MR_E11",
  "SpacingBetweenSlices": 2,
  "StationName": "AWP166078",
  "TaskName": "motor",
  "TotalReadoutTime": 0.0534586,
  "TxRefAmp": 208.836,
  "dcmmeta_affine": [
    [-2.0, 9.163434100400991e-08, -2.8703700081678107e-05, 99.99455261230469],
    [1.5936619774947758e-06, 1.9972593784332275, -0.10466616600751877, -94.92518615722656],
    [-2.8659571398748085e-05, 0.10466616600751877, 1.9972593784332275, -65.17681884765625],
    [0.0, 0.0, 0.0, 1.0]
],
  "dcmmeta_reorient_transform": [
    [0.0, -1.0, 0.0, 99.0],
    [1.0, 0.0, 0.0, 0.0],
    [0.0, 0.0, 1.0, 0.0],
    [0.0, 0.0, 0.0, 1.0]
],
  "dcmmeta_shape": [100, 100, 72, 232],
  "dcmmeta_slice_dim": 2,
  "dcmmeta_version": 0.6,
  "global": {
    "const": {
      "AcquisitionMatrix": [100, 0, 0, 100],
      "AngioFlag": "N",
      "BitsAllocated": 16,
      "BitsStored": 12,
      "BodyPartExamined": "BRAIN",
      "Columns": 900,
      "EchoNumbers": 1,
      "EchoTime": 34.0,
      "EchoTrainLength": 100,
      "FlipAngle": 90.0,
      "HighBit": 11,
      "ImageOrientationPatient": [0.99999999989701, -7.96830971e-07, -1.43297859e-05, 4.581717e-08, 0.99862968527096, -0.0523330841401],
      "ImagePositionPatient": [-899.99460086991, -901.70659903752, -12.936937604497],
      "ImageType": [
        "ORIGINAL",
        "PRIMARY",
        "M",
        "ND",
        "MOSAIC"
],
      "ImagedNucleus": "1H",
      "ImagingFrequency": 123.257839,
      "InPlanePhaseEncodingDirection": "COL",
      "MRAcquisitionType": "2D",
      "MagneticFieldStrength": 3.0,
      "Manufacturer": "SIEMENS",
      "ManufacturerModelName": "Prisma",
      "Modality": "MR",
      "NumberOfAverages": 1.0,
      "NumberOfPhaseEncodingSteps": 100,
      "PercentPhaseFieldOfView": 100.0,
      "PercentSampling": 100.0,
      "PerformedProcedureStepStartTime": "135916.185000",
      "PhotometricInterpretation": "MONOCHROME2",
      "PixelBandwidth": 2380.0,
      "PixelRepresentation": 0,
      "PixelSpacing": [2.0, 2.0],
      "ProtocolName": "bold_100x100_s3_2x2x2_232",
      "RepetitionTime": 2000.0,
      "Rows": 900,
      "SAR": 0.0756438883744,
      "SamplesPerPixel": 1,
      "ScanOptions": "FS",
      "ScanningSequence": "EP",
      "SequenceName": "*epfid2d1_100",
      "SequenceVariant": "SK",
      "SeriesDescription": "bold_100x100_s3_2x2x2_232",
      "SeriesNumber": 8,
      "SeriesTime": "143117.411000",
      "SliceLocation": -60.121213826421,
      "SliceThickness": 2.0,
      "SmallestImagePixelValue": 0,
      "SoftwareVersions": "syngo MR E11",
      "SpacingBetweenSlices": 2.0000000116669,
      "SpecificCharacterSet": "ISO_IR 100",
      "StudyID": "1",
      "StudyTime": "135916.103000",
      "TransmitCoilName": "Body",
      "VariableFlipAngleFlag": "N",
      "WindowCenterWidthExplanation": "Algo1",
      "dBdt": 0.0},
    "slices": {}
  },
  "time": {
    "samples": {
      "AcquisitionNumber": [1, 2, 3, 4, 5, 6, 7, 8, 9, 10, 11, 12, 13, 14, 15, 16, 17, 18, 19, 20, 21, 22, 23, 24, 25, 26, 27, 28, 29, 30, 31, 32, 33, 34, 35, 36, 37, 38, 39, 40, 41, 42, 43, 44, 45, 46, 47, 48, 49, 50, 51, 52, 53, 54, 55, 56, 57, 58, 59, 60, 61, 62, 63, 64, 65, 66, 67, 68, 69, 70, 71, 72, 73, 74, 75, 76, 77, 78, 79, 80, 81, 82, 83, 84, 85, 86, 87, 88, 89, 90, 91, 92, 93, 94, 95, 96, 97, 98, 99, 100, 101, 102, 103, 104, 105, 106, 107, 108, 109, 110, 111, 112, 113, 114, 115, 116, 117, 118, 119, 120, 121, 122, 123, 124, 125, 126, 127, 128, 129, 130, 131, 132, 133, 134, 135, 136, 137, 138, 139, 140, 141, 142, 143, 144, 145, 146, 147, 148, 149, 150, 151, 152, 153, 154, 155, 156, 157, 158, 159, 160, 161, 162, 163, 164, 165, 166, 167, 168, 169, 170, 171, 172, 173, 174, 175, 176, 177, 178, 179, 180, 181, 182, 183, 184, 185, 186, 187, 188, 189, 190, 191, 192, 193, 194, 195, 196, 197, 198, 199, 200, 201, 202, 203, 204, 205, 206, 207, 208, 209, 210, 211, 212, 213, 214, 215, 216, 217, 218, 219, 220, 221, 222, 223, 224, 225, 226, 227, 228, 229, 230, 231, 232],
      "AcquisitionTime": ["143115.292500", "143117.292500", "143119.292500", "143121.292500", "143123.292500", "143125.292500", "143127.292500", "143129.292500", "143131.292500", "143133.292500", "143135.292500", "143137.292500", "143139.292500", "143141.292500", "143143.292500", "143145.292500", "143147.292500", "143149.292500", "143151.292500", "143153.292500", "143155.292500", "143157.292500", "143159.292500", "143201.292500", "143203.292500", "143205.292500", "143207.292500", "143209.292500", "143211.292500", "143213.292500", "143215.292500", "143217.292500", "143219.292500", "143221.292500", "143223.292500", "143225.292500", "143227.292500", "143229.292500", "143231.292500", "143233.292500", "143235.292500", "143237.292500", "143239.292500", "143241.292500", "143243.292500", "143245.292500", "143247.292500", "143249.292500", "143251.292500", "143253.292500", "143255.292500", "143257.292500", "143259.292500", "143301.292500", "143303.292500", "143305.292500", "143307.292500", "143309.292500", "143311.292500", "143313.292500", "143315.292500", "143317.292500", "143319.292500", "143321.292500", "143323.292500", "143325.292500", "143327.292500", "143329.292500", "143331.292500", "143333.292500", "143335.292500", "143337.292500", "143339.292500", "143341.292500", "143343.292500", "143345.292500", "143347.292500", "143349.292500", "143351.292500", "143353.292500", "143355.292500", "143357.292500", "143359.292500", "143401.292500", "143403.292500", "143405.292500", "143407.292500", "143409.292500", "143411.292500", "143413.292500", "143415.292500", "143417.292500", "143419.292500", "143421.292500", "143423.292500", "143425.292500", "143427.292500", "143429.292500", "143431.292500", "143433.292500", "143435.292500", "143437.292500", "143439.292500", "143441.292500", "143443.292500", "143445.292500", "143447.292500", "143449.292500", "143451.292500", "143453.292500", "143455.292500", "143457.292500", "143459.292500", "143501.292500", "143503.292500", "143505.292500", "143507.292500", "143509.292500", "143511.292500", "143513.292500", "143515.292500", "143517.292500", "143519.292500", "143521.292500", "143523.292500", "143525.292500", "143527.292500", "143529.292500", "143531.292500", "143533.292500", "143535.292500", "143537.292500", "143539.292500", "143541.292500", "143543.292500", "143545.292500", "143547.292500", "143549.292500", "143551.292500", "143553.292500", "143555.292500", "143557.292500", "143559.292500", "143601.292500", "143603.292500", "143605.292500", "143607.292500", "143609.292500", "143611.292500", "143613.292500", "143615.292500", "143617.292500", "143619.292500", "143621.292500", "143623.292500", "143625.292500", "143627.292500", "143629.292500", "143631.292500", "143633.292500", "143635.292500", "143637.292500", "143639.292500", "143641.292500", "143643.292500", "143645.292500", "143647.292500", "143649.292500", "143651.292500", "143653.292500", "143655.292500", "143657.292500", "143659.292500", "143701.292500", "143703.292500", "143705.292500", "143707.292500", "143709.292500", "143711.292500", "143713.292500", "143715.292500", "143717.292500", "143719.292500", "143721.292500", "143723.292500", "143725.292500", "143727.292500", "143729.292500", "143731.292500", "143733.292500", "143735.292500", "143737.292500", "143739.292500", "143741.292500", "143743.292500", "143745.292500", "143747.292500", "143749.292500", "143751.292500", "143753.292500", "143755.292500", "143757.292500", "143759.292500", "143801.292500", "143803.292500", "143805.292500", "143807.292500", "143809.292500", "143811.292500", "143813.292500", "143815.292500", "143817.292500", "143819.292500", "143821.292500", "143823.292500", "143825.292500", "143827.292500", "143829.292500", "143831.292500", "143833.292500", "143835.292500", "143837.292500", "143839.292500", "143841.292500", "143843.292500", "143845.292500", "143847.292500", "143849.292500", "143851.292500", "143853.292500", "143855.292500", "143857.292500"],
      "ContentTime": ["143117.415000", "143118.910000", "143120.909000", "143122.909000", "143124.909000", "143126.910000", "143128.910000", "143130.911000", "143132.910000", "143134.910000", "143136.909000", "143138.909000", "143140.909000", "143142.909000", "143144.910000", "143146.910000", "143148.910000", "143150.910000", "143152.910000", "143154.909000", "143156.909000", "143158.909000", "143200.910000", "143202.910000", "143204.910000", "143206.910000", "143208.910000", "143210.909000", "143212.909000", "143214.909000", "143216.909000", "143218.909000", "143220.910000", "143222.910000", "143224.910000", "143226.910000", "143228.910000", "143230.909000", "143232.909000", "143234.909000", "143236.911000", "143238.910000", "143240.910000", "143242.910000", "143244.910000", "143246.910000", "143248.909000", "143250.909000", "143252.910000", "143254.911000", "143256.910000", "143258.910000", "143300.911000", "143302.909000", "143304.909000", "143306.909000", "143308.909000", "143310.910000", "143312.910000", "143314.911000", "143316.910000", "143318.910000", "143320.909000", "143322.909000", "143324.909000", "143326.909000", "143328.910000", "143330.910000", "143332.910000", "143334.910000", "143336.910000", "143338.909000", "143340.910000", "143342.909000", "143344.909000", "143346.910000", "143348.911000", "143350.911000", "143352.910000", "143354.910000", "143356.909000", "143358.909000", "143400.910000", "143402.909000", "143404.910000", "143406.910000", "143408.910000", "143410.911000", "143412.910000", "143414.909000", "143416.910000", "143418.909000", "143420.909000", "143422.910000", "143424.910000", "143426.911000", "143428.910000", "143430.909000", "143432.910000", "143434.909000", "143436.909000", "143438.909000", "143440.910000", "143442.910000", "143444.911000", "143446.910000", "143448.909000", "143450.909000", "143452.909000", "143454.910000", "143456.911000", "143458.910000", "143500.910000", "143502.911000", "143504.910000", "143506.909000", "143508.910000", "143510.909000", "143512.909000", "143514.910000", "143516.910000", "143518.911000", "143520.911000", "143522.909000", "143524.909000", "143526.910000", "143528.909000", "143530.910000", "143532.910000", "143534.910000", "143536.910000", "143538.910000", "143540.909000", "143542.909000", "143544.909000", "143546.909000", "143548.909000", "143550.910000", "143552.911000", "143554.910000", "143556.910000", "143558.909000", "143600.909000", "143602.909000", "143604.910000", "143606.910000", "143608.910000", "143610.910000", "143612.911000", "143614.911000", "143616.909000", "143618.909000", "143620.909000", "143622.910000", "143624.922000", "143626.910000", "143628.910000", "143630.910000", "143632.909000", "143634.909000", "143636.910000", "143638.909000", "143640.909000", "143642.910000", "143644.911000", "143646.910000", "143648.910000", "143650.909000", "143652.909000", "143654.910000", "143656.909000", "143658.909000", "143700.910000", "143702.910000", "143704.910000", "143706.910000", "143708.910000", "143710.909000", "143712.909000", "143714.910000", "143716.910000", "143718.910000", "143720.910000", "143722.910000", "143724.910000", "143726.909000", "143728.910000", "143730.909000", "143732.909000", "143734.911000", "143736.910000", "143738.910000", "143740.910000", "143742.909000", "143744.909000", "143746.909000", "143748.909000", "143750.909000", "143752.911000", "143754.911000", "143756.910000", "143758.910000", "143800.909000", "143802.909000", "143804.909000", "143806.910000", "143808.911000", "143810.910000", "143812.910000", "143814.911000", "143816.910000", "143818.909000", "143820.909000", "143822.910000", "143824.909000", "143826.910000", "143828.910000", "143830.910000", "143832.910000", "143834.911000", "143836.909000", "143838.909000", "143840.910000", "143842.909000", "143844.910000", "143846.910000", "143848.910000", "143850.910000", "143852.909000", "143854.909000", "143856.910000", "143858.652000"],
      "InstanceCreationTime": ["143117.415000", "143118.910000", "143120.909000", "143122.909000", "143124.909000", "143126.910000", "143128.910000", "143130.911000", "143132.910000", "143134.910000", "143136.909000", "143138.909000", "143140.909000", "143142.909000", "143144.910000", "143146.910000", "143148.910000", "143150.910000", "143152.910000", "143154.909000", "143156.909000", "143158.909000", "143200.910000", "143202.910000", "143204.910000", "143206.910000", "143208.910000", "143210.909000", "143212.909000", "143214.909000", "143216.909000", "143218.909000", "143220.910000", "143222.910000", "143224.910000", "143226.910000", "143228.910000", "143230.909000", "143232.909000", "143234.909000", "143236.911000", "143238.910000", "143240.910000", "143242.910000", "143244.910000", "143246.910000", "143248.909000", "143250.909000", "143252.910000", "143254.911000", "143256.910000", "143258.910000", "143300.911000", "143302.909000", "143304.909000", "143306.909000", "143308.909000", "143310.910000", "143312.910000", "143314.911000", "143316.910000", "143318.910000", "143320.909000", "143322.909000", "143324.909000", "143326.909000", "143328.910000", "143330.910000", "143332.910000", "143334.910000", "143336.910000", "143338.909000", "143340.910000", "143342.909000", "143344.909000", "143346.910000", "143348.911000", "143350.911000", "143352.910000", "143354.910000", "143356.909000", "143358.909000", "143400.910000", "143402.909000", "143404.910000", "143406.910000", "143408.910000", "143410.911000", "143412.910000", "143414.909000", "143416.910000", "143418.909000", "143420.909000", "143422.910000", "143424.910000", "143426.911000", "143428.910000", "143430.909000", "143432.910000", "143434.909000", "143436.909000", "143438.909000", "143440.910000", "143442.910000", "143444.911000", "143446.910000", "143448.909000", "143450.909000", "143452.909000", "143454.910000", "143456.911000", "143458.910000", "143500.910000", "143502.911000", "143504.910000", "143506.909000", "143508.910000", "143510.909000", "143512.909000", "143514.910000", "143516.910000", "143518.911000", "143520.911000", "143522.909000", "143524.909000", "143526.910000", "143528.909000", "143530.910000", "143532.910000", "143534.910000", "143536.910000", "143538.910000", "143540.909000", "143542.909000", "143544.909000", "143546.909000", "143548.909000", "143550.910000", "143552.911000", "143554.910000", "143556.910000", "143558.909000", "143600.909000", "143602.909000", "143604.910000", "143606.910000", "143608.910000", "143610.910000", "143612.911000", "143614.911000", "143616.909000", "143618.909000", "143620.909000", "143622.910000", "143624.922000", "143626.910000", "143628.910000", "143630.910000", "143632.909000", "143634.909000", "143636.910000", "143638.909000", "143640.909000", "143642.910000", "143644.911000", "143646.910000", "143648.910000", "143650.909000", "143652.909000", "143654.910000", "143656.909000", "143658.909000", "143700.910000", "143702.910000", "143704.910000", "143706.910000", "143708.910000", "143710.909000", "143712.909000", "143714.910000", "143716.910000", "143718.910000", "143720.910000", "143722.910000", "143724.910000", "143726.909000", "143728.910000", "143730.909000", "143732.909000", "143734.911000", "143736.910000", "143738.910000", "143740.910000", "143742.909000", "143744.909000", "143746.909000", "143748.909000", "143750.909000", "143752.911000", "143754.911000", "143756.910000", "143758.910000", "143800.909000", "143802.909000", "143804.909000", "143806.910000", "143808.911000", "143810.910000", "143812.910000", "143814.911000", "143816.910000", "143818.909000", "143820.909000", "143822.910000", "143824.909000", "143826.910000", "143828.910000", "143830.910000", "143832.910000", "143834.911000", "143836.909000", "143838.909000", "143840.910000", "143842.909000", "143844.910000", "143846.910000", "143848.910000", "143850.910000", "143852.909000", "143854.909000", "143856.910000", "143858.652000"],
      "InstanceNumber": [1, 2, 3, 4, 5, 6, 7, 8, 9, 10, 11, 12, 13, 14, 15, 16, 17, 18, 19, 20, 21, 22, 23, 24, 25, 26, 27, 28, 29, 30, 31, 32, 33, 34, 35, 36, 37, 38, 39, 40, 41, 42, 43, 44, 45, 46, 47, 48, 49, 50, 51, 52, 53, 54, 55, 56, 57, 58, 59, 60, 61, 62, 63, 64, 65, 66, 67, 68, 69, 70, 71, 72, 73, 74, 75, 76, 77, 78, 79, 80, 81, 82, 83, 84, 85, 86, 87, 88, 89, 90, 91, 92, 93, 94, 95, 96, 97, 98, 99, 100, 101, 102, 103, 104, 105, 106, 107, 108, 109, 110, 111, 112, 113, 114, 115, 116, 117, 118, 119, 120, 121, 122, 123, 124, 125, 126, 127, 128, 129, 130, 131, 132, 133, 134, 135, 136, 137, 138, 139, 140, 141, 142, 143, 144, 145, 146, 147, 148, 149, 150, 151, 152, 153, 154, 155, 156, 157, 158, 159, 160, 161, 162, 163, 164, 165, 166, 167, 168, 169, 170, 171, 172, 173, 174, 175, 176, 177, 178, 179, 180, 181, 182, 183, 184, 185, 186, 187, 188, 189, 190, 191, 192, 193, 194, 195, 196, 197, 198, 199, 200, 201, 202, 203, 204, 205, 206, 207, 208, 209, 210, 211, 212, 213, 214, 215, 216, 217, 218, 219, 220, 221, 222, 223, 224, 225, 226, 227, 228, 229, 230, 231, 232],
      "LargestImagePixelValue": [3808, 3748, 3690, 3732, 3727, 3710, 3731, 3705, 3671, 3706, 3730, 3764, 3787, 3861, 3786, 3790, 3762, 3749, 3817, 3759, 3738, 3835, 3737, 3796, 3791, 3746, 3790, 3902, 3811, 3813, 3798, 3789, 3782, 3844, 3816, 3799, 3756, 3798, 3765, 3793, 3724, 3807, 3810, 3779, 3795, 3745, 3835, 3839, 3841, 3772, 3830, 3788, 3762, 3764, 3762, 3742, 3753, 3746, 3756, 3722, 3725, 3738, 3718, 3762, 3722, 3733, 3751, 3780, 3780, 3820, 3804, 3783, 3787, 3789, 3764, 3768, 3784, 3746, 3737, 3787, 3769, 3775, 3792, 3751, 3772, 3767, 3785, 3814, 3789, 3773, 3792, 3780, 3776, 3785, 3764, 3776, 3747, 3747, 3788, 3719, 3687, 3752, 3787, 3704, 3660, 3801, 3765, 3717, 3823, 3801, 3867, 3880, 3858, 3793, 3916, 3799, 3837, 3769, 3810, 3746, 3748, 3833, 3800, 3788, 3811, 3824, 3808, 3777, 3820, 3769, 3784, 3770, 3791, 3811, 3768, 3761, 3790, 3803, 3866, 3760, 3758, 3777, 3801, 3715, 3765, 3753, 3789, 3761, 3801, 3804, 3811, 3788, 3850, 3761, 3731, 3734, 3732, 3749, 3769, 3741, 3758, 3724, 3752, 3717, 3722, 3691, 3685, 3681, 3737, 3725, 3807, 3724, 3714, 3730, 3826, 3741, 3766, 3850, 3797, 3752, 3709, 3765, 3763, 3733, 3768, 3729, 3762, 3833, 3810, 3813, 3820, 3748, 3770, 3793, 3795, 3813, 3768, 3791, 3764, 3735, 3745, 3676, 3683, 3730, 3723, 3712, 3747, 3726, 3708, 3765, 3753, 3789, 3731, 3765, 3795, 3755, 3734, 3715, 3754, 3771, 3769, 3763, 3720, 3716, 3690, 3756, 3707, 3687, 3719, 3730, 3691, 3711],
      "WindowCenter": [799.0, 796.0, 795.0, 796.0, 796.0, 796.0, 796.0, 795.0, 795.0, 796.0, 798.0, 799.0, 798.0, 798.0, 798.0, 797.0, 797.0, 799.0, 800.0, 798.0, 796.0, 795.0, 795.0, 796.0, 795.0, 795.0, 796.0, 797.0, 796.0, 796.0, 796.0, 796.0, 796.0, 797.0, 797.0, 796.0, 795.0, 795.0, 795.0, 795.0, 794.0, 794.0, 795.0, 796.0, 796.0, 796.0, 798.0, 799.0, 799.0, 800.0, 801.0, 800.0, 798.0, 797.0, 797.0, 796.0, 797.0, 798.0, 799.0, 797.0, 796.0, 795.0, 794.0, 793.0, 794.0, 796.0, 797.0, 797.0, 797.0, 796.0, 796.0, 796.0, 797.0, 797.0, 798.0, 798.0, 797.0, 796.0, 796.0, 797.0, 797.0, 797.0, 798.0, 798.0, 797.0, 796.0, 797.0, 797.0, 798.0, 798.0, 799.0, 799.0, 798.0, 797.0, 797.0, 797.0, 797.0, 797.0, 799.0, 799.0, 798.0, 798.0, 798.0, 797.0, 796.0, 796.0, 796.0, 796.0, 795.0, 795.0, 795.0, 795.0, 796.0, 796.0, 798.0, 796.0, 796.0, 796.0, 798.0, 797.0, 797.0, 798.0, 797.0, 797.0, 798.0, 798.0, 797.0, 796.0, 796.0, 796.0, 797.0, 798.0, 797.0, 797.0, 797.0, 797.0, 798.0, 799.0, 800.0, 798.0, 797.0, 797.0, 798.0, 798.0, 799.0, 798.0, 798.0, 798.0, 799.0, 798.0, 798.0, 798.0, 800.0, 800.0, 800.0, 800.0, 799.0, 798.0, 798.0, 798.0, 798.0, 798.0, 799.0, 799.0, 799.0, 798.0, 798.0, 798.0, 798.0, 798.0, 799.0, 799.0, 799.0, 798.0, 799.0, 798.0, 798.0, 799.0, 799.0, 799.0, 799.0, 798.0, 798.0, 799.0, 798.0, 797.0, 798.0, 799.0, 799.0, 798.0, 798.0, 797.0, 796.0, 796.0, 798.0, 799.0, 799.0, 799.0, 799.0, 799.0, 798.0, 798.0, 798.0, 799.0, 799.0, 798.0, 799.0, 799.0, 799.0, 800.0, 800.0, 799.0, 798.0, 797.0, 799.0, 799.0, 799.0, 799.0, 800.0, 801.0, 801.0, 800.0, 799.0, 799.0, 799.0, 800.0, 799.0, 799.0, 800.0, 800.0, 800.0, 800.0],
      "WindowWidth": [1780.0, 1773.0, 1769.0, 1771.0, 1773.0, 1772.0, 1770.0, 1768.0, 1767.0, 1771.0, 1778.0, 1781.0, 1779.0, 1780.0, 1778.0, 1776.0, 1776.0, 1781.0, 1784.0, 1778.0, 1771.0, 1770.0, 1769.0, 1772.0, 1770.0, 1769.0, 1773.0, 1775.0, 1773.0, 1771.0, 1771.0, 1772.0, 1774.0, 1775.0, 1775.0, 1772.0, 1769.0, 1770.0, 1770.0, 1769.0, 1766.0, 1768.0, 1771.0, 1773.0, 1772.0, 1773.0, 1780.0, 1782.0, 1783.0, 1784.0, 1788.0, 1783.0, 1778.0, 1774.0, 1775.0, 1773.0, 1775.0, 1778.0, 1782.0, 1775.0, 1771.0, 1768.0, 1765.0, 1763.0, 1765.0, 1771.0, 1775.0, 1775.0, 1774.0, 1772.0, 1773.0, 1773.0, 1775.0, 1775.0, 1778.0, 1779.0, 1776.0, 1772.0, 1772.0, 1774.0, 1774.0, 1776.0, 1779.0, 1777.0, 1774.0, 1772.0, 1773.0, 1776.0, 1777.0, 1778.0, 1782.0, 1780.0, 1777.0, 1775.0, 1774.0, 1774.0, 1773.0, 1775.0, 1781.0, 1782.0, 1778.0, 1778.0, 1778.0, 1775.0, 1772.0, 1773.0, 1772.0, 1772.0, 1770.0, 1767.0, 1770.0, 1769.0, 1771.0, 1774.0, 1777.0, 1771.0, 1772.0, 1773.0, 1776.0, 1775.0, 1774.0, 1776.0, 1775.0, 1775.0, 1777.0, 1777.0, 1774.0, 1772.0, 1771.0, 1771.0, 1775.0, 1777.0, 1776.0, 1775.0, 1774.0, 1775.0, 1778.0, 1780.0, 1783.0, 1778.0, 1774.0, 1776.0, 1778.0, 1779.0, 1780.0, 1778.0, 1778.0, 1779.0, 1780.0, 1778.0, 1777.0, 1778.0, 1783.0, 1783.0, 1783.0, 1785.0, 1782.0, 1778.0, 1778.0, 1778.0, 1779.0, 1778.0, 1780.0, 1782.0, 1781.0, 1776.0, 1777.0, 1778.0, 1779.0, 1778.0, 1782.0, 1780.0, 1779.0, 1779.0, 1780.0, 1778.0, 1779.0, 1781.0, 1780.0, 1780.0, 1779.0, 1779.0, 1779.0, 1780.0, 1778.0, 1775.0, 1778.0, 1781.0, 1780.0, 1777.0, 1778.0, 1775.0, 1771.0, 1772.0, 1777.0, 1781.0, 1780.0, 1780.0, 1778.0, 1778.0, 1777.0, 1776.0, 1777.0, 1780.0, 1779.0, 1778.0, 1779.0, 1781.0, 1781.0, 1782.0, 1784.0, 1782.0, 1777.0, 1774.0, 1780.0, 1780.0, 1781.0, 1781.0, 1786.0, 1788.0, 1786.0, 1785.0, 1781.0, 1779.0, 1779.0, 1783.0, 1780.0, 1780.0, 1782.0, 1782.0, 1782.0, 1784.0]
    },
    "slices": {}
  }
}