{
  "AcquisitionMatrixPE": 100,
  "AcquisitionNumber": 1,
  "AcquisitionTime": "14:02:32.620000",
  "BandwidthPerPixelPhaseEncode": 18.519,
  "BaseResolution": 100,
  "BodyPartExamined": "BRAIN",
  "ConsistencyInfo": "N4_VE11C_LATEST_20160120",
  "ConversionSoftware": "dcm2niix",
  "ConversionSoftwareVersion": "v1.0.20180622 GCC4.9.2",
  "DerivedVendorReportedEchoSpacing": 0.000539986,
  "DeviceSerialNumber": "166078",
  "DwellTime": 2.1e-06,
  "EchoTime": 0.034,
  "EchoTrainLength": 100,
  "EffectiveEchoSpacing": 0.000539986,
  "FlipAngle": 90,
  "ImageOrientationPatientDICOM": [1, -7.96831e-07, -1.43298e-05, 4.58172e-08, 0.99863, -0.0523331],
  "ImageType": [
    "ORIGINAL",
    "PRIMARY",
    "M",
    "ND",
    "MOSAIC"
],
  "InPlanePhaseEncodingDirectionDICOM": "COL",
  "InstitutionAddress": "Street_StreetNo_Bei_Jing_District_CN_ZIP",
  "InstitutionName": "BeiJing_Normal_University",
  "InstitutionalDepartmentName": "Department",
  "MRAcquisitionType": "2D",
  "MagneticFieldStrength": 3,
  "Manufacturer": "Siemens",
  "ManufacturersModelName": "Prisma",
  "Modality": "MR",
  "MultibandAccelerationFactor": 3,
  "PartialFourier": 1,
  "PatientPosition": "HFS",
  "PercentPhaseFOV": 100,
  "PhaseEncodingDirection": "j-",
  "PhaseEncodingSteps": 100,
  "PhaseResolution": 1,
  "PixelBandwidth": 2380,
  "ProcedureStepDescription": "BNU_P2018_64CH_Liu.Jia",
  "ProtocolName": "bold_100x100_s3_2x2x2_232",
  "PulseSequenceDetails": "%SiemensSeq%_ep2d_bold",
  "ReceiveCoilActiveElements": "HC1-7;NC1",
  "ReceiveCoilName": "HeadNeck_64",
  "ReconMatrixPE": 100,
  "RepetitionTime": 2,
  "SAR": 0.0756439,
  "ScanOptions": "FS",
  "ScanningSequence": "EP",
  "SequenceName": "_epfid2d1_100",
  "SequenceVariant": "SK",
  "SeriesDescription": "bold_100x100_s3_2x2x2_232",
  "SeriesNumber": 3,
  "ShimSetting": [-5449, -11520, -1259, 393, 25, -150, -71, 41],
  "SliceThickness": 2,
  "SliceTiming": [1.485, 0, 0.99, 0.0825, 1.0725, 0.165, 1.155, 0.2475, 1.2375, 0.33, 1.32, 0.4125, 1.4025, 0.5775, 1.5675, 0.66, 1.65, 0.7425, 1.7325, 0.825, 1.815, 0.9075, 1.8975, 0.495, 1.485, 0, 0.99, 0.0825, 1.0725, 0.165, 1.155, 0.2475, 1.2375, 0.33, 1.32, 0.4125, 1.4025, 0.5775, 1.5675, 0.66, 1.65, 0.7425, 1.7325, 0.825, 1.815, 0.9075, 1.8975, 0.495, 1.485, 0, 0.99, 0.0825, 1.0725, 0.165, 1.155, 0.2475, 1.2375, 0.33, 1.32, 0.4125, 1.4025, 0.5775, 1.5675, 0.66, 1.65, 0.7425, 1.7325, 0.825, 1.815, 0.9075, 1.8975, 0.495],
  "SoftwareVersions": "syngo_MR_E11",
  "SpacingBetweenSlices": 2,
  "StationName": "AWP166078",
  "TaskName": "motor",
  "TotalReadoutTime": 0.0534586,
  "TxRefAmp": 208.836,
  "dcmmeta_affine": [
    [-2.0, 9.163434100400991e-08, -2.8703700081678107e-05, 99.99455261230469],
    [1.5936619774947758e-06, 1.9972593784332275, -0.10466616600751877, -94.92518615722656],
    [-2.8659571398748085e-05, 0.10466616600751877, 1.9972593784332275, -65.17681884765625],
    [0.0, 0.0, 0.0, 1.0]
],
  "dcmmeta_reorient_transform": [
    [0.0, -1.0, 0.0, 99.0],
    [1.0, 0.0, 0.0, 0.0],
    [0.0, 0.0, 1.0, 0.0],
    [0.0, 0.0, 0.0, 1.0]
],
  "dcmmeta_shape": [100, 100, 72, 232],
  "dcmmeta_slice_dim": 2,
  "dcmmeta_version": 0.6,
  "global": {
    "const": {
      "AcquisitionMatrix": [100, 0, 0, 100],
      "AngioFlag": "N",
      "BitsAllocated": 16,
      "BitsStored": 12,
      "BodyPartExamined": "BRAIN",
      "Columns": 900,
      "EchoNumbers": 1,
      "EchoTime": 34.0,
      "EchoTrainLength": 100,
      "FlipAngle": 90.0,
      "HighBit": 11,
      "ImageOrientationPatient": [0.99999999989701, -7.96830971e-07, -1.43297859e-05, 4.581717e-08, 0.99862968527096, -0.0523330841401],
      "ImagePositionPatient": [-899.99460086991, -901.70659903752, -12.936937604497],
      "ImageType": [
        "ORIGINAL",
        "PRIMARY",
        "M",
        "ND",
        "MOSAIC"
],
      "ImagedNucleus": "1H",
      "ImagingFrequency": 123.25783,
      "InPlanePhaseEncodingDirection": "COL",
      "MRAcquisitionType": "2D",
      "MagneticFieldStrength": 3.0,
      "Manufacturer": "SIEMENS",
      "ManufacturerModelName": "Prisma",
      "Modality": "MR",
      "NumberOfAverages": 1.0,
      "NumberOfPhaseEncodingSteps": 100,
      "PercentPhaseFieldOfView": 100.0,
      "PercentSampling": 100.0,
      "PerformedProcedureStepStartTime": "135916.185000",
      "PhotometricInterpretation": "MONOCHROME2",
      "PixelBandwidth": 2380.0,
      "PixelRepresentation": 0,
      "PixelSpacing": [2.0, 2.0],
      "ProtocolName": "bold_100x100_s3_2x2x2_232",
      "RepetitionTime": 2000.0,
      "Rows": 900,
      "SAR": 0.0756438883744,
      "SamplesPerPixel": 1,
      "ScanOptions": "FS",
      "ScanningSequence": "EP",
      "SequenceName": "*epfid2d1_100",
      "SequenceVariant": "SK",
      "SeriesDescription": "bold_100x100_s3_2x2x2_232",
      "SeriesNumber": 3,
      "SeriesTime": "140234.963000",
      "SliceLocation": -60.121213826421,
      "SliceThickness": 2.0,
      "SmallestImagePixelValue": 0,
      "SoftwareVersions": "syngo MR E11",
      "SpacingBetweenSlices": 2.0000000116669,
      "SpecificCharacterSet": "ISO_IR 100",
      "StudyID": "1",
      "StudyTime": "135916.103000",
      "TransmitCoilName": "Body",
      "VariableFlipAngleFlag": "N",
      "WindowCenterWidthExplanation": "Algo1",
      "dBdt": 0.0},
    "slices": {}
  },
  "time": {
    "samples": {
      "AcquisitionNumber": [1, 2, 3, 4, 5, 6, 7, 8, 9, 10, 11, 12, 13, 14, 15, 16, 17, 18, 19, 20, 21, 22, 23, 24, 25, 26, 27, 28, 29, 30, 31, 32, 33, 34, 35, 36, 37, 38, 39, 40, 41, 42, 43, 44, 45, 46, 47, 48, 49, 50, 51, 52, 53, 54, 55, 56, 57, 58, 59, 60, 61, 62, 63, 64, 65, 66, 67, 68, 69, 70, 71, 72, 73, 74, 75, 76, 77, 78, 79, 80, 81, 82, 83, 84, 85, 86, 87, 88, 89, 90, 91, 92, 93, 94, 95, 96, 97, 98, 99, 100, 101, 102, 103, 104, 105, 106, 107, 108, 109, 110, 111, 112, 113, 114, 115, 116, 117, 118, 119, 120, 121, 122, 123, 124, 125, 126, 127, 128, 129, 130, 131, 132, 133, 134, 135, 136, 137, 138, 139, 140, 141, 142, 143, 144, 145, 146, 147, 148, 149, 150, 151, 152, 153, 154, 155, 156, 157, 158, 159, 160, 161, 162, 163, 164, 165, 166, 167, 168, 169, 170, 171, 172, 173, 174, 175, 176, 177, 178, 179, 180, 181, 182, 183, 184, 185, 186, 187, 188, 189, 190, 191, 192, 193, 194, 195, 196, 197, 198, 199, 200, 201, 202, 203, 204, 205, 206, 207, 208, 209, 210, 211, 212, 213, 214, 215, 216, 217, 218, 219, 220, 221, 222, 223, 224, 225, 226, 227, 228, 229, 230, 231, 232],
      "AcquisitionTime": ["140232.620000", "140234.620000", "140236.620000", "140238.620000", "140240.620000", "140242.620000", "140244.620000", "140246.620000", "140248.620000", "140250.620000", "140252.620000", "140254.620000", "140256.620000", "140258.620000", "140300.620000", "140302.620000", "140304.620000", "140306.620000", "140308.620000", "140310.620000", "140312.620000", "140314.620000", "140316.620000", "140318.620000", "140320.620000", "140322.620000", "140324.620000", "140326.620000", "140328.620000", "140330.620000", "140332.620000", "140334.620000", "140336.620000", "140338.620000", "140340.620000", "140342.620000", "140344.620000", "140346.620000", "140348.620000", "140350.620000", "140352.620000", "140354.620000", "140356.620000", "140358.620000", "140400.620000", "140402.620000", "140404.620000", "140406.620000", "140408.620000", "140410.620000", "140412.620000", "140414.620000", "140416.620000", "140418.620000", "140420.620000", "140422.620000", "140424.620000", "140426.620000", "140428.620000", "140430.620000", "140432.620000", "140434.620000", "140436.620000", "140438.620000", "140440.620000", "140442.620000", "140444.620000", "140446.620000", "140448.620000", "140450.620000", "140452.620000", "140454.620000", "140456.620000", "140458.620000", "140500.620000", "140502.620000", "140504.620000", "140506.620000", "140508.620000", "140510.620000", "140512.620000", "140514.620000", "140516.620000", "140518.620000", "140520.620000", "140522.620000", "140524.620000", "140526.620000", "140528.620000", "140530.620000", "140532.620000", "140534.620000", "140536.620000", "140538.620000", "140540.620000", "140542.620000", "140544.620000", "140546.620000", "140548.620000", "140550.620000", "140552.620000", "140554.620000", "140556.620000", "140558.620000", "140600.620000", "140602.620000", "140604.620000", "140606.620000", "140608.620000", "140610.620000", "140612.620000", "140614.620000", "140616.620000", "140618.620000", "140620.620000", "140622.620000", "140624.620000", "140626.620000", "140628.620000", "140630.620000", "140632.620000", "140634.620000", "140636.620000", "140638.620000", "140640.620000", "140642.620000", "140644.620000", "140646.620000", "140648.620000", "140650.620000", "140652.620000", "140654.620000", "140656.620000", "140658.620000", "140700.620000", "140702.620000", "140704.620000", "140706.620000", "140708.620000", "140710.620000", "140712.620000", "140714.620000", "140716.620000", "140718.620000", "140720.620000", "140722.620000", "140724.620000", "140726.620000", "140728.620000", "140730.620000", "140732.620000", "140734.620000", "140736.620000", "140738.620000", "140740.620000", "140742.620000", "140744.620000", "140746.620000", "140748.620000", "140750.620000", "140752.620000", "140754.620000", "140756.620000", "140758.620000", "140800.620000", "140802.620000", "140804.620000", "140806.620000", "140808.620000", "140810.620000", "140812.620000", "140814.620000", "140816.620000", "140818.620000", "140820.620000", "140822.620000", "140824.620000", "140826.620000", "140828.620000", "140830.620000", "140832.620000", "140834.620000", "140836.620000", "140838.620000", "140840.620000", "140842.620000", "140844.620000", "140846.620000", "140848.620000", "140850.620000", "140852.620000", "140854.620000", "140856.620000", "140858.620000", "140900.620000", "140902.620000", "140904.620000", "140906.620000", "140908.620000", "140910.620000", "140912.620000", "140914.620000", "140916.620000", "140918.620000", "140920.620000", "140922.620000", "140924.620000", "140926.620000", "140928.620000", "140930.620000", "140932.620000", "140934.620000", "140936.620000", "140938.620000", "140940.620000", "140942.620000", "140944.620000", "140946.620000", "140948.620000", "140950.620000", "140952.620000", "140954.620000", "140956.620000", "140958.620000", "141000.620000", "141002.620000", "141004.620000", "141006.620000", "141008.620000", "141010.620000", "141012.620000", "141014.620000"],
      "ContentTime": ["140234.967000", "140236.463000", "140238.462000", "140240.462000", "140242.462000", "140244.463000", "140246.462000", "140248.463000", "140250.463000", "140252.463000", "140254.463000", "140256.462000", "140258.463000", "140300.463000", "140302.462000", "140304.462000", "140306.462000", "140308.462000", "140310.462000", "140312.462000", "140314.462000", "140316.462000", "140318.463000", "140320.463000", "140322.462000", "140324.462000", "140326.462000", "140328.464000", "140330.462000", "140332.462000", "140334.463000", "140336.462000", "140338.462000", "140340.463000", "140342.462000", "140344.462000", "140346.464000", "140348.462000", "140350.462000", "140352.462000", "140354.462000", "140356.462000", "140358.463000", "140400.462000", "140402.462000", "140404.463000", "140406.463000", "140408.463000", "140410.463000", "140412.462000", "140414.462000", "140416.462000", "140418.462000", "140420.462000", "140422.462000", "140424.462000", "140426.462000", "140428.463000", "140430.462000", "140432.462000", "140434.462000", "140436.462000", "140438.463000", "140440.462000", "140442.462000", "140444.462000", "140446.463000", "140448.462000", "140450.462000", "140452.463000", "140454.462000", "140456.464000", "140458.462000", "140500.462000", "140502.462000", "140504.462000", "140506.462000", "140508.462000", "140510.462000", "140512.462000", "140514.463000", "140516.462000", "140518.462000", "140520.462000", "140522.462000", "140524.462000", "140526.463000", "140528.462000", "140530.462000", "140532.462000", "140534.462000", "140536.462000", "140538.462000", "140540.462000", "140542.462000", "140544.462000", "140546.463000", "140548.463000", "140550.462000", "140552.462000", "140554.463000", "140556.462000", "140558.462000", "140600.463000", "140602.463000", "140604.463000", "140606.463000", "140608.463000", "140610.463000", "140612.462000", "140614.462000", "140616.462000", "140618.463000", "140620.463000", "140622.462000", "140624.463000", "140626.462000", "140628.462000", "140630.462000", "140632.462000", "140634.463000", "140636.462000", "140638.463000", "140640.463000", "140642.462000", "140644.462000", "140646.462000", "140648.463000", "140650.462000", "140652.462000", "140654.463000", "140656.462000", "140658.463000", "140700.463000", "140702.463000", "140704.462000", "140706.462000", "140708.463000", "140710.462000", "140712.462000", "140714.463000", "140716.463000", "140718.462000", "140720.462000", "140722.462000", "140724.463000", "140726.463000", "140728.463000", "140730.463000", "140732.463000", "140734.463000", "140736.463000", "140738.462000", "140740.462000", "140742.462000", "140744.462000", "140746.463000", "140748.462000", "140750.463000", "140752.462000", "140754.462000", "140756.462000", "140758.463000", "140800.462000", "140802.463000", "140804.463000", "140806.462000", "140808.463000", "140810.462000", "140812.463000", "140814.463000", "140816.462000", "140818.463000", "140820.462000", "140822.462000", "140824.462000", "140826.463000", "140828.463000", "140830.463000", "140832.462000", "140834.463000", "140836.462000", "140838.463000", "140840.462000", "140842.463000", "140844.464000", "140846.462000", "140848.474000", "140850.463000", "140852.462000", "140854.463000", "140856.463000", "140858.462000", "140900.462000", "140902.462000", "140904.463000", "140906.462000", "140908.462000", "140910.462000", "140912.463000", "140914.463000", "140916.463000", "140918.483000", "140920.463000", "140922.463000", "140924.462000", "140926.462000", "140928.463000", "140930.463000", "140932.462000", "140934.463000", "140936.463000", "140938.462000", "140940.463000", "140942.463000", "140944.462000", "140946.462000", "140948.463000", "140950.463000", "140952.462000", "140954.463000", "140956.462000", "140958.462000", "141000.462000", "141002.463000", "141004.463000", "141006.462000", "141008.462000", "141010.462000", "141012.463000", "141014.462000", "141016.066000"],
      "InstanceCreationTime": ["140234.967000", "140236.463000", "140238.462000", "140240.462000", "140242.462000", "140244.463000", "140246.462000", "140248.463000", "140250.463000", "140252.463000", "140254.463000", "140256.462000", "140258.463000", "140300.463000", "140302.462000", "140304.462000", "140306.462000", "140308.462000", "140310.462000", "140312.462000", "140314.462000", "140316.462000", "140318.463000", "140320.463000", "140322.462000", "140324.462000", "140326.462000", "140328.464000", "140330.462000", "140332.462000", "140334.463000", "140336.462000", "140338.462000", "140340.463000", "140342.462000", "140344.462000", "140346.464000", "140348.462000", "140350.462000", "140352.462000", "140354.462000", "140356.462000", "140358.463000", "140400.462000", "140402.462000", "140404.463000", "140406.463000", "140408.463000", "140410.463000", "140412.462000", "140414.462000", "140416.462000", "140418.462000", "140420.462000", "140422.462000", "140424.462000", "140426.462000", "140428.463000", "140430.462000", "140432.462000", "140434.462000", "140436.462000", "140438.463000", "140440.462000", "140442.462000", "140444.462000", "140446.463000", "140448.462000", "140450.462000", "140452.463000", "140454.462000", "140456.464000", "140458.462000", "140500.462000", "140502.462000", "140504.462000", "140506.462000", "140508.462000", "140510.462000", "140512.462000", "140514.463000", "140516.462000", "140518.462000", "140520.462000", "140522.462000", "140524.462000", "140526.463000", "140528.462000", "140530.462000", "140532.462000", "140534.462000", "140536.462000", "140538.462000", "140540.462000", "140542.462000", "140544.462000", "140546.463000", "140548.463000", "140550.462000", "140552.462000", "140554.463000", "140556.462000", "140558.462000", "140600.463000", "140602.463000", "140604.463000", "140606.463000", "140608.463000", "140610.463000", "140612.462000", "140614.462000", "140616.462000", "140618.463000", "140620.463000", "140622.462000", "140624.463000", "140626.462000", "140628.462000", "140630.462000", "140632.462000", "140634.463000", "140636.462000", "140638.463000", "140640.463000", "140642.462000", "140644.462000", "140646.462000", "140648.463000", "140650.462000", "140652.462000", "140654.463000", "140656.462000", "140658.463000", "140700.463000", "140702.463000", "140704.462000", "140706.462000", "140708.463000", "140710.462000", "140712.462000", "140714.463000", "140716.463000", "140718.462000", "140720.462000", "140722.462000", "140724.463000", "140726.463000", "140728.463000", "140730.463000", "140732.463000", "140734.463000", "140736.463000", "140738.462000", "140740.462000", "140742.462000", "140744.462000", "140746.463000", "140748.462000", "140750.463000", "140752.462000", "140754.462000", "140756.462000", "140758.463000", "140800.462000", "140802.463000", "140804.463000", "140806.462000", "140808.463000", "140810.462000", "140812.463000", "140814.463000", "140816.462000", "140818.463000", "140820.462000", "140822.462000", "140824.462000", "140826.463000", "140828.463000", "140830.463000", "140832.462000", "140834.463000", "140836.462000", "140838.463000", "140840.462000", "140842.463000", "140844.464000", "140846.462000", "140848.474000", "140850.463000", "140852.462000", "140854.463000", "140856.463000", "140858.462000", "140900.462000", "140902.462000", "140904.463000", "140906.462000", "140908.462000", "140910.462000", "140912.463000", "140914.463000", "140916.463000", "140918.483000", "140920.463000", "140922.463000", "140924.462000", "140926.462000", "140928.463000", "140930.463000", "140932.462000", "140934.463000", "140936.463000", "140938.462000", "140940.463000", "140942.463000", "140944.462000", "140946.462000", "140948.463000", "140950.463000", "140952.462000", "140954.463000", "140956.462000", "140958.462000", "141000.462000", "141002.463000", "141004.463000", "141006.462000", "141008.462000", "141010.462000", "141012.463000", "141014.462000", "141016.066000"],
      "InstanceNumber": [1, 2, 3, 4, 5, 6, 7, 8, 9, 10, 11, 12, 13, 14, 15, 16, 17, 18, 19, 20, 21, 22, 23, 24, 25, 26, 27, 28, 29, 30, 31, 32, 33, 34, 35, 36, 37, 38, 39, 40, 41, 42, 43, 44, 45, 46, 47, 48, 49, 50, 51, 52, 53, 54, 55, 56, 57, 58, 59, 60, 61, 62, 63, 64, 65, 66, 67, 68, 69, 70, 71, 72, 73, 74, 75, 76, 77, 78, 79, 80, 81, 82, 83, 84, 85, 86, 87, 88, 89, 90, 91, 92, 93, 94, 95, 96, 97, 98, 99, 100, 101, 102, 103, 104, 105, 106, 107, 108, 109, 110, 111, 112, 113, 114, 115, 116, 117, 118, 119, 120, 121, 122, 123, 124, 125, 126, 127, 128, 129, 130, 131, 132, 133, 134, 135, 136, 137, 138, 139, 140, 141, 142, 143, 144, 145, 146, 147, 148, 149, 150, 151, 152, 153, 154, 155, 156, 157, 158, 159, 160, 161, 162, 163, 164, 165, 166, 167, 168, 169, 170, 171, 172, 173, 174, 175, 176, 177, 178, 179, 180, 181, 182, 183, 184, 185, 186, 187, 188, 189, 190, 191, 192, 193, 194, 195, 196, 197, 198, 199, 200, 201, 202, 203, 204, 205, 206, 207, 208, 209, 210, 211, 212, 213, 214, 215, 216, 217, 218, 219, 220, 221, 222, 223, 224, 225, 226, 227, 228, 229, 230, 231, 232],
      "LargestImagePixelValue": [3966, 3845, 3834, 3813, 3800, 3805, 3822, 3813, 3788, 3806, 3790, 3776, 3748, 3778, 3731, 3787, 3829, 3764, 3797, 3852, 3770, 3786, 3785, 3802, 3786, 3781, 3813, 3800, 3766, 3848, 3823, 3822, 3752, 3776, 3807, 3690, 3804, 3783, 3788, 3756, 3756, 3763, 3728, 3714, 3730, 3778, 3800, 3746, 3787, 3770, 3776, 3759, 3796, 3794, 3776, 3794, 3804, 3808, 3816, 3823, 3832, 3785, 3774, 3782, 3782, 3752, 3768, 3756, 3713, 3760, 3782, 3798, 3796, 3756, 3744, 3757, 3761, 3745, 3722, 3781, 3759, 3763, 3776, 3770, 3744, 3777, 3775, 3791, 3788, 3736, 3775, 3769, 3734, 3755, 3749, 3706, 3715, 3801, 3786, 3766, 3776, 3802, 3805, 3787, 3832, 3760, 3714, 3784, 3771, 3723, 3786, 3803, 3700, 3714, 3791, 3801, 3827, 3842, 3799, 3808, 3816, 3724, 3941, 3700, 3555, 3668, 3717, 3925, 3798, 3756, 3759, 3854, 3810, 3831, 3827, 3837, 3830, 3815, 3793, 3819, 3769, 3830, 3817, 3813, 3773, 3807, 3809, 3832, 3844, 3854, 3832, 3827, 3783, 3821, 3842, 3867, 3871, 3826, 3834, 3854, 3852, 3852, 3839, 3833, 3811, 3833, 3836, 3832, 3817, 3823, 3837, 3817, 3822, 3812, 3874, 3864, 3835, 3830, 3845, 3826, 3871, 3795, 3825, 3828, 3804, 3799, 3768, 3793, 3779, 3758, 3667, 3709, 3754, 3747, 3768, 3745, 3740, 3714, 3739, 3708, 3708, 3720, 3750, 3732, 3733, 3709, 3786, 3757, 3794, 3797, 3752, 3743, 3779, 3776, 3785, 3803, 3791, 3806, 3761, 3747, 3713, 3713, 3728, 3715, 3705, 3714, 3714, 3712, 3769, 3744, 3742, 3770],
      "WindowCenter": [799.0, 797.0, 796.0, 797.0, 797.0, 797.0, 797.0, 798.0, 798.0, 799.0, 800.0, 800.0, 799.0, 798.0, 797.0, 797.0, 797.0, 798.0, 799.0, 798.0, 797.0, 798.0, 798.0, 798.0, 798.0, 798.0, 799.0, 798.0, 798.0, 799.0, 799.0, 799.0, 799.0, 799.0, 800.0, 800.0, 800.0, 798.0, 797.0, 797.0, 796.0, 795.0, 796.0, 796.0, 795.0, 794.0, 793.0, 794.0, 793.0, 793.0, 795.0, 795.0, 795.0, 795.0, 795.0, 795.0, 795.0, 795.0, 796.0, 797.0, 796.0, 796.0, 795.0, 795.0, 794.0, 795.0, 795.0, 795.0, 794.0, 794.0, 795.0, 795.0, 796.0, 796.0, 797.0, 797.0, 794.0, 793.0, 794.0, 795.0, 795.0, 796.0, 796.0, 795.0, 794.0, 795.0, 796.0, 796.0, 796.0, 796.0, 798.0, 798.0, 796.0, 795.0, 794.0, 793.0, 793.0, 794.0, 796.0, 796.0, 795.0, 794.0, 794.0, 794.0, 795.0, 795.0, 794.0, 792.0, 793.0, 791.0, 790.0, 792.0, 794.0, 794.0, 794.0, 794.0, 794.0, 794.0, 794.0, 794.0, 793.0, 792.0, 797.0, 790.0, 792.0, 790.0, 791.0, 792.0, 791.0, 792.0, 795.0, 796.0, 794.0, 793.0, 792.0, 792.0, 794.0, 795.0, 795.0, 796.0, 795.0, 794.0, 793.0, 793.0, 792.0, 791.0, 793.0, 793.0, 793.0, 793.0, 794.0, 794.0, 793.0, 795.0, 796.0, 796.0, 794.0, 793.0, 793.0, 794.0, 794.0, 795.0, 795.0, 794.0, 793.0, 793.0, 794.0, 795.0, 795.0, 796.0, 796.0, 795.0, 794.0, 792.0, 793.0, 793.0, 793.0, 792.0, 792.0, 792.0, 793.0, 793.0, 794.0, 794.0, 794.0, 795.0, 795.0, 795.0, 793.0, 790.0, 788.0, 789.0, 791.0, 790.0, 790.0, 791.0, 792.0, 792.0, 791.0, 790.0, 790.0, 790.0, 791.0, 791.0, 790.0, 790.0, 791.0, 793.0, 794.0, 794.0, 793.0, 793.0, 792.0, 792.0, 792.0, 792.0, 792.0, 791.0, 792.0, 792.0, 791.0, 790.0, 789.0, 790.0, 790.0, 790.0, 790.0, 790.0, 789.0, 789.0, 790.0, 791.0],
      "WindowWidth": [1786.0, 1780.0, 1777.0, 1778.0, 1779.0, 1777.0, 1779.0, 1781.0, 1782.0, 1785.0, 1789.0, 1788.0, 1785.0, 1783.0, 1779.0, 1778.0, 1780.0, 1782.0, 1785.0, 1783.0, 1780.0, 1781.0, 1782.0, 1783.0, 1781.0, 1781.0, 1784.0, 1783.0, 1783.0, 1784.0, 1785.0, 1785.0, 1785.0, 1786.0, 1789.0, 1788.0, 1787.0, 1782.0, 1780.0, 1779.0, 1777.0, 1774.0, 1775.0, 1775.0, 1772.0, 1768.0, 1766.0, 1767.0, 1766.0, 1766.0, 1771.0, 1772.0, 1772.0, 1771.0, 1771.0, 1772.0, 1772.0, 1774.0, 1777.0, 1777.0, 1776.0, 1774.0, 1773.0, 1771.0, 1770.0, 1771.0, 1773.0, 1773.0, 1769.0, 1768.0, 1771.0, 1773.0, 1775.0, 1775.0, 1779.0, 1776.0, 1768.0, 1765.0, 1767.0, 1770.0, 1772.0, 1773.0, 1774.0, 1772.0, 1769.0, 1771.0, 1774.0, 1774.0, 1773.0, 1775.0, 1780.0, 1780.0, 1775.0, 1769.0, 1767.0, 1762.0, 1763.0, 1767.0, 1774.0, 1773.0, 1770.0, 1767.0, 1767.0, 1767.0, 1770.0, 1771.0, 1766.0, 1761.0, 1764.0, 1759.0, 1756.0, 1761.0, 1767.0, 1766.0, 1767.0, 1767.0, 1767.0, 1769.0, 1767.0, 1766.0, 1765.0, 1761.0, 1779.0, 1756.0, 1762.0, 1754.0, 1760.0, 1762.0, 1758.0, 1762.0, 1770.0, 1773.0, 1767.0, 1763.0, 1760.0, 1762.0, 1766.0, 1768.0, 1771.0, 1773.0, 1768.0, 1767.0, 1764.0, 1762.0, 1760.0, 1759.0, 1763.0, 1766.0, 1764.0, 1766.0, 1767.0, 1768.0, 1764.0, 1769.0, 1774.0, 1772.0, 1767.0, 1763.0, 1763.0, 1766.0, 1767.0, 1769.0, 1769.0, 1766.0, 1762.0, 1763.0, 1767.0, 1769.0, 1769.0, 1771.0, 1774.0, 1770.0, 1766.0, 1761.0, 1763.0, 1764.0, 1762.0, 1760.0, 1762.0, 1762.0, 1763.0, 1763.0, 1765.0, 1767.0, 1768.0, 1768.0, 1770.0, 1768.0, 1762.0, 1755.0, 1746.0, 1750.0, 1756.0, 1752.0, 1754.0, 1757.0, 1760.0, 1758.0, 1755.0, 1753.0, 1753.0, 1755.0, 1758.0, 1756.0, 1753.0, 1752.0, 1757.0, 1762.0, 1767.0, 1765.0, 1762.0, 1761.0, 1760.0, 1759.0, 1761.0, 1760.0, 1759.0, 1758.0, 1761.0, 1760.0, 1756.0, 1752.0, 1751.0, 1752.0, 1752.0, 1754.0, 1754.0, 1752.0, 1750.0, 1750.0, 1753.0, 1757.0]
    },
    "slices": {}
  }
}