{
  "AcquisitionMatrixPE": 100,
  "AcquisitionNumber": 1,
  "AcquisitionTime": "14:39:41.382500",
  "BandwidthPerPixelPhaseEncode": 18.519,
  "BaseResolution": 100,
  "BodyPartExamined": "BRAIN",
  "ConsistencyInfo": "N4_VE11C_LATEST_20160120",
  "ConversionSoftware": "dcm2niix",
  "ConversionSoftwareVersion": "v1.0.20180622 GCC4.9.2",
  "DerivedVendorReportedEchoSpacing": 0.000539986,
  "DeviceSerialNumber": "166078",
  "DwellTime": 2.1e-06,
  "EchoTime": 0.034,
  "EchoTrainLength": 100,
  "EffectiveEchoSpacing": 0.000539986,
  "FlipAngle": 90,
  "ImageOrientationPatientDICOM": [1, -7.96831e-07, -1.43298e-05, 4.58172e-08, 0.99863, -0.0523331],
  "ImageType": [
    "ORIGINAL",
    "PRIMARY",
    "M",
    "ND",
    "MOSAIC"
],
  "InPlanePhaseEncodingDirectionDICOM": "COL",
  "InstitutionAddress": "Street_StreetNo_Bei_Jing_District_CN_ZIP",
  "InstitutionName": "BeiJing_Normal_University",
  "InstitutionalDepartmentName": "Department",
  "MRAcquisitionType": "2D",
  "MagneticFieldStrength": 3,
  "Manufacturer": "Siemens",
  "ManufacturersModelName": "Prisma",
  "Modality": "MR",
  "MultibandAccelerationFactor": 3,
  "PartialFourier": 1,
  "PatientPosition": "HFS",
  "PercentPhaseFOV": 100,
  "PhaseEncodingDirection": "j-",
  "PhaseEncodingSteps": 100,
  "PhaseResolution": 1,
  "PixelBandwidth": 2380,
  "ProcedureStepDescription": "BNU_P2018_64CH_Liu.Jia",
  "ProtocolName": "bold_100x100_s3_2x2x2_232",
  "PulseSequenceDetails": "%SiemensSeq%_ep2d_bold",
  "ReceiveCoilActiveElements": "HC1-7;NC1",
  "ReceiveCoilName": "HeadNeck_64",
  "ReconMatrixPE": 100,
  "RepetitionTime": 2,
  "SAR": 0.0756439,
  "ScanOptions": "FS",
  "ScanningSequence": "EP",
  "SequenceName": "_epfid2d1_100",
  "SequenceVariant": "SK",
  "SeriesDescription": "bold_100x100_s3_2x2x2_232",
  "SeriesNumber": 9,
  "ShimSetting": [-5449, -11520, -1259, 393, 25, -150, -71, 41],
  "SliceThickness": 2,
  "SliceTiming": [1.485, 0, 0.99, 0.0825, 1.0725, 0.165, 1.155, 0.2475, 1.2375, 0.33, 1.32, 0.4125, 1.4025, 0.5775, 1.5675, 0.66, 1.65, 0.7425, 1.7325, 0.825, 1.815, 0.9075, 1.8975, 0.495, 1.485, 0, 0.99, 0.0825, 1.0725, 0.165, 1.155, 0.2475, 1.2375, 0.33, 1.32, 0.4125, 1.4025, 0.5775, 1.5675, 0.66, 1.65, 0.7425, 1.7325, 0.825, 1.815, 0.9075, 1.8975, 0.495, 1.485, 0, 0.99, 0.0825, 1.0725, 0.165, 1.155, 0.2475, 1.2375, 0.33, 1.32, 0.4125, 1.4025, 0.5775, 1.5675, 0.66, 1.65, 0.7425, 1.7325, 0.825, 1.815, 0.9075, 1.8975, 0.495],
  "SoftwareVersions": "syngo_MR_E11",
  "SpacingBetweenSlices": 2,
  "StationName": "AWP166078",
  "TaskName": "motor",
  "TotalReadoutTime": 0.0534586,
  "TxRefAmp": 208.836,
  "dcmmeta_affine": [
    [-2.0, 9.163434100400991e-08, -2.8703700081678107e-05, 99.99455261230469],
    [1.5936619774947758e-06, 1.9972593784332275, -0.10466616600751877, -94.92518615722656],
    [-2.8659571398748085e-05, 0.10466616600751877, 1.9972593784332275, -65.17681884765625],
    [0.0, 0.0, 0.0, 1.0]
],
  "dcmmeta_reorient_transform": [
    [0.0, -1.0, 0.0, 99.0],
    [1.0, 0.0, 0.0, 0.0],
    [0.0, 0.0, 1.0, 0.0],
    [0.0, 0.0, 0.0, 1.0]
],
  "dcmmeta_shape": [100, 100, 72, 232],
  "dcmmeta_slice_dim": 2,
  "dcmmeta_version": 0.6,
  "global": {
    "const": {
      "AcquisitionMatrix": [100, 0, 0, 100],
      "AngioFlag": "N",
      "BitsAllocated": 16,
      "BitsStored": 12,
      "BodyPartExamined": "BRAIN",
      "Columns": 900,
      "EchoNumbers": 1,
      "EchoTime": 34.0,
      "EchoTrainLength": 100,
      "FlipAngle": 90.0,
      "HighBit": 11,
      "ImageOrientationPatient": [0.99999999989701, -7.96830971e-07, -1.43297859e-05, 4.581717e-08, 0.99862968527096, -0.0523330841401],
      "ImagePositionPatient": [-899.99460086991, -901.70659903752, -12.936937604497],
      "ImageType": [
        "ORIGINAL",
        "PRIMARY",
        "M",
        "ND",
        "MOSAIC"
],
      "ImagedNucleus": "1H",
      "ImagingFrequency": 123.257844,
      "InPlanePhaseEncodingDirection": "COL",
      "MRAcquisitionType": "2D",
      "MagneticFieldStrength": 3.0,
      "Manufacturer": "SIEMENS",
      "ManufacturerModelName": "Prisma",
      "Modality": "MR",
      "NumberOfAverages": 1.0,
      "NumberOfPhaseEncodingSteps": 100,
      "PercentPhaseFieldOfView": 100.0,
      "PercentSampling": 100.0,
      "PerformedProcedureStepStartTime": "135916.185000",
      "PhotometricInterpretation": "MONOCHROME2",
      "PixelBandwidth": 2380.0,
      "PixelRepresentation": 0,
      "PixelSpacing": [2.0, 2.0],
      "ProtocolName": "bold_100x100_s3_2x2x2_232",
      "RepetitionTime": 2000.0,
      "Rows": 900,
      "SAR": 0.0756438883744,
      "SamplesPerPixel": 1,
      "ScanOptions": "FS",
      "ScanningSequence": "EP",
      "SequenceName": "*epfid2d1_100",
      "SequenceVariant": "SK",
      "SeriesDescription": "bold_100x100_s3_2x2x2_232",
      "SeriesNumber": 9,
      "SeriesTime": "143943.824000",
      "SliceLocation": -60.121213826421,
      "SliceThickness": 2.0,
      "SmallestImagePixelValue": 0,
      "SoftwareVersions": "syngo MR E11",
      "SpacingBetweenSlices": 2.0000000116669,
      "SpecificCharacterSet": "ISO_IR 100",
      "StudyID": "1",
      "StudyTime": "135916.103000",
      "TransmitCoilName": "Body",
      "VariableFlipAngleFlag": "N",
      "WindowCenterWidthExplanation": "Algo1",
      "dBdt": 0.0},
    "slices": {}
  },
  "time": {
    "samples": {
      "AcquisitionNumber": [1, 2, 3, 4, 5, 6, 7, 8, 9, 10, 11, 12, 13, 14, 15, 16, 17, 18, 19, 20, 21, 22, 23, 24, 25, 26, 27, 28, 29, 30, 31, 32, 33, 34, 35, 36, 37, 38, 39, 40, 41, 42, 43, 44, 45, 46, 47, 48, 49, 50, 51, 52, 53, 54, 55, 56, 57, 58, 59, 60, 61, 62, 63, 64, 65, 66, 67, 68, 69, 70, 71, 72, 73, 74, 75, 76, 77, 78, 79, 80, 81, 82, 83, 84, 85, 86, 87, 88, 89, 90, 91, 92, 93, 94, 95, 96, 97, 98, 99, 100, 101, 102, 103, 104, 105, 106, 107, 108, 109, 110, 111, 112, 113, 114, 115, 116, 117, 118, 119, 120, 121, 122, 123, 124, 125, 126, 127, 128, 129, 130, 131, 132, 133, 134, 135, 136, 137, 138, 139, 140, 141, 142, 143, 144, 145, 146, 147, 148, 149, 150, 151, 152, 153, 154, 155, 156, 157, 158, 159, 160, 161, 162, 163, 164, 165, 166, 167, 168, 169, 170, 171, 172, 173, 174, 175, 176, 177, 178, 179, 180, 181, 182, 183, 184, 185, 186, 187, 188, 189, 190, 191, 192, 193, 194, 195, 196, 197, 198, 199, 200, 201, 202, 203, 204, 205, 206, 207, 208, 209, 210, 211, 212, 213, 214, 215, 216, 217, 218, 219, 220, 221, 222, 223, 224, 225, 226, 227, 228, 229, 230, 231, 232],
      "AcquisitionTime": ["143941.382500", "143943.382500", "143945.382500", "143947.382500", "143949.382500", "143951.382500", "143953.382500", "143955.382500", "143957.382500", "143959.382500", "144001.382500", "144003.382500", "144005.382500", "144007.382500", "144009.382500", "144011.382500", "144013.382500", "144015.382500", "144017.382500", "144019.382500", "144021.382500", "144023.382500", "144025.382500", "144027.382500", "144029.382500", "144031.382500", "144033.382500", "144035.382500", "144037.382500", "144039.382500", "144041.382500", "144043.382500", "144045.382500", "144047.382500", "144049.382500", "144051.382500", "144053.382500", "144055.382500", "144057.382500", "144059.382500", "144101.382500", "144103.382500", "144105.382500", "144107.382500", "144109.382500", "144111.382500", "144113.382500", "144115.382500", "144117.382500", "144119.382500", "144121.382500", "144123.382500", "144125.382500", "144127.382500", "144129.382500", "144131.382500", "144133.382500", "144135.382500", "144137.382500", "144139.382500", "144141.382500", "144143.382500", "144145.382500", "144147.382500", "144149.382500", "144151.382500", "144153.382500", "144155.382500", "144157.382500", "144159.382500", "144201.382500", "144203.382500", "144205.382500", "144207.382500", "144209.382500", "144211.382500", "144213.382500", "144215.382500", "144217.382500", "144219.382500", "144221.382500", "144223.382500", "144225.382500", "144227.382500", "144229.382500", "144231.382500", "144233.382500", "144235.382500", "144237.382500", "144239.382500", "144241.382500", "144243.382500", "144245.382500", "144247.382500", "144249.382500", "144251.382500", "144253.382500", "144255.382500", "144257.382500", "144259.382500", "144301.382500", "144303.382500", "144305.382500", "144307.382500", "144309.382500", "144311.382500", "144313.382500", "144315.382500", "144317.382500", "144319.382500", "144321.382500", "144323.382500", "144325.382500", "144327.382500", "144329.382500", "144331.382500", "144333.382500", "144335.382500", "144337.382500", "144339.382500", "144341.382500", "144343.382500", "144345.382500", "144347.382500", "144349.382500", "144351.382500", "144353.382500", "144355.382500", "144357.382500", "144359.382500", "144401.382500", "144403.382500", "144405.382500", "144407.382500", "144409.382500", "144411.382500", "144413.382500", "144415.382500", "144417.382500", "144419.382500", "144421.382500", "144423.382500", "144425.382500", "144427.382500", "144429.382500", "144431.382500", "144433.382500", "144435.382500", "144437.382500", "144439.382500", "144441.382500", "144443.382500", "144445.382500", "144447.382500", "144449.382500", "144451.382500", "144453.382500", "144455.382500", "144457.382500", "144459.382500", "144501.382500", "144503.382500", "144505.382500", "144507.382500", "144509.382500", "144511.382500", "144513.382500", "144515.382500", "144517.382500", "144519.382500", "144521.382500", "144523.382500", "144525.382500", "144527.382500", "144529.382500", "144531.382500", "144533.382500", "144535.382500", "144537.382500", "144539.382500", "144541.382500", "144543.382500", "144545.382500", "144547.382500", "144549.382500", "144551.382500", "144553.382500", "144555.382500", "144557.382500", "144559.382500", "144601.382500", "144603.382500", "144605.382500", "144607.382500", "144609.382500", "144611.382500", "144613.382500", "144615.382500", "144617.382500", "144619.382500", "144621.382500", "144623.382500", "144625.382500", "144627.382500", "144629.382500", "144631.382500", "144633.382500", "144635.382500", "144637.382500", "144639.382500", "144641.382500", "144643.382500", "144645.382500", "144647.382500", "144649.382500", "144651.382500", "144653.382500", "144655.382500", "144657.382500", "144659.382500", "144701.382500", "144703.382500", "144705.382500", "144707.382500", "144709.382500", "144711.382500", "144713.382500", "144715.382500", "144717.382500", "144719.382500", "144721.382500", "144723.382500"],
      "ContentTime": ["143943.827000", "143945.323000", "143947.323000", "143949.324000", "143951.323000", "143953.322000", "143955.323000", "143957.324000", "143959.323000", "144001.323000", "144003.323000", "144005.323000", "144007.323000", "144009.323000", "144011.324000", "144013.323000", "144015.323000", "144017.324000", "144019.323000", "144021.323000", "144023.323000", "144025.323000", "144027.324000", "144029.323000", "144031.323000", "144033.323000", "144035.324000", "144037.324000", "144039.323000", "144041.323000", "144043.323000", "144045.324000", "144047.323000", "144049.323000", "144051.324000", "144053.323000", "144055.323000", "144057.323000", "144059.324000", "144101.324000", "144103.322000", "144105.323000", "144107.323000", "144109.323000", "144111.324000", "144113.324000", "144115.323000", "144117.323000", "144119.323000", "144121.323000", "144123.323000", "144125.323000", "144127.323000", "144129.324000", "144131.323000", "144133.324000", "144135.323000", "144137.323000", "144139.323000", "144141.323000", "144143.324000", "144145.323000", "144147.323000", "144149.324000", "144151.323000", "144153.323000", "144155.324000", "144157.323000", "144159.323000", "144201.323000", "144203.324000", "144205.323000", "144207.323000", "144209.323000", "144211.323000", "144213.322000", "144215.324000", "144217.323000", "144219.324000", "144221.323000", "144223.324000", "144225.324000", "144227.323000", "144229.323000", "144231.323000", "144233.323000", "144235.323000", "144237.323000", "144239.323000", "144241.323000", "144243.323000", "144245.323000", "144247.324000", "144249.323000", "144251.323000", "144253.323000", "144255.323000", "144257.323000", "144259.323000", "144301.323000", "144303.323000", "144305.324000", "144307.323000", "144309.323000", "144311.323000", "144313.323000", "144315.323000", "144317.323000", "144319.324000", "144321.324000", "144323.323000", "144325.323000", "144327.323000", "144329.324000", "144331.323000", "144333.323000", "144335.323000", "144337.324000", "144339.323000", "144341.323000", "144343.324000", "144345.324000", "144347.323000", "144349.323000", "144351.323000", "144353.324000", "144355.323000", "144357.323000", "144359.323000", "144401.324000", "144403.324000", "144405.323000", "144407.323000", "144409.323000", "144411.323000", "144413.323000", "144415.323000", "144417.323000", "144419.323000", "144421.323000", "144423.323000", "144425.323000", "144427.323000", "144429.323000", "144431.324000", "144433.322000", "144435.323000", "144437.323000", "144439.323000", "144441.324000", "144443.323000", "144445.323000", "144447.324000", "144449.323000", "144451.323000", "144453.324000", "144455.323000", "144457.323000", "144459.323000", "144501.324000", "144503.323000", "144505.323000", "144507.324000", "144509.323000", "144511.324000", "144513.323000", "144515.324000", "144517.323000", "144519.323000", "144521.324000", "144523.324000", "144525.324000", "144527.323000", "144529.324000", "144531.323000", "144533.323000", "144535.324000", "144537.323000", "144539.323000", "144541.324000", "144543.323000", "144545.323000", "144547.323000", "144549.324000", "144551.324000", "144553.324000", "144555.323000", "144557.342000", "144559.323000", "144601.324000", "144603.324000", "144605.324000", "144607.323000", "144609.323000", "144611.324000", "144613.323000", "144615.324000", "144617.324000", "144619.324000", "144621.324000", "144623.324000", "144625.323000", "144627.324000", "144629.324000", "144631.323000", "144633.323000", "144635.323000", "144637.323000", "144639.824000", "144641.323000", "144643.324000", "144645.324000", "144647.323000", "144649.323000", "144651.323000", "144653.323000", "144655.324000", "144657.323000", "144659.323000", "144701.324000", "144703.323000", "144705.323000", "144707.323000", "144709.323000", "144711.324000", "144713.324000", "144715.323000", "144717.324000", "144719.323000", "144721.323000", "144723.323000", "144725.164000"],
      "InstanceCreationTime": ["143943.827000", "143945.323000", "143947.323000", "143949.324000", "143951.323000", "143953.322000", "143955.323000", "143957.324000", "143959.323000", "144001.323000", "144003.323000", "144005.323000", "144007.323000", "144009.323000", "144011.324000", "144013.323000", "144015.323000", "144017.324000", "144019.323000", "144021.323000", "144023.323000", "144025.323000", "144027.324000", "144029.323000", "144031.323000", "144033.323000", "144035.324000", "144037.324000", "144039.323000", "144041.323000", "144043.323000", "144045.324000", "144047.323000", "144049.323000", "144051.324000", "144053.323000", "144055.323000", "144057.323000", "144059.324000", "144101.324000", "144103.322000", "144105.323000", "144107.323000", "144109.323000", "144111.324000", "144113.324000", "144115.323000", "144117.323000", "144119.323000", "144121.323000", "144123.323000", "144125.323000", "144127.323000", "144129.324000", "144131.323000", "144133.324000", "144135.323000", "144137.323000", "144139.323000", "144141.323000", "144143.324000", "144145.323000", "144147.323000", "144149.324000", "144151.323000", "144153.323000", "144155.324000", "144157.323000", "144159.323000", "144201.323000", "144203.324000", "144205.323000", "144207.323000", "144209.323000", "144211.323000", "144213.322000", "144215.324000", "144217.323000", "144219.324000", "144221.323000", "144223.324000", "144225.324000", "144227.323000", "144229.323000", "144231.323000", "144233.323000", "144235.323000", "144237.323000", "144239.323000", "144241.323000", "144243.323000", "144245.323000", "144247.324000", "144249.323000", "144251.323000", "144253.323000", "144255.323000", "144257.323000", "144259.323000", "144301.323000", "144303.323000", "144305.324000", "144307.323000", "144309.323000", "144311.323000", "144313.323000", "144315.323000", "144317.323000", "144319.324000", "144321.324000", "144323.323000", "144325.323000", "144327.323000", "144329.324000", "144331.323000", "144333.323000", "144335.323000", "144337.324000", "144339.323000", "144341.323000", "144343.324000", "144345.324000", "144347.323000", "144349.323000", "144351.323000", "144353.324000", "144355.323000", "144357.323000", "144359.323000", "144401.324000", "144403.324000", "144405.323000", "144407.323000", "144409.323000", "144411.323000", "144413.323000", "144415.323000", "144417.323000", "144419.323000", "144421.323000", "144423.323000", "144425.323000", "144427.323000", "144429.323000", "144431.324000", "144433.322000", "144435.323000", "144437.323000", "144439.323000", "144441.324000", "144443.323000", "144445.323000", "144447.324000", "144449.323000", "144451.323000", "144453.324000", "144455.323000", "144457.323000", "144459.323000", "144501.324000", "144503.323000", "144505.323000", "144507.324000", "144509.323000", "144511.324000", "144513.323000", "144515.324000", "144517.323000", "144519.323000", "144521.324000", "144523.324000", "144525.324000", "144527.323000", "144529.324000", "144531.323000", "144533.323000", "144535.324000", "144537.323000", "144539.323000", "144541.324000", "144543.323000", "144545.323000", "144547.323000", "144549.324000", "144551.324000", "144553.324000", "144555.323000", "144557.342000", "144559.323000", "144601.324000", "144603.324000", "144605.324000", "144607.323000", "144609.323000", "144611.324000", "144613.323000", "144615.324000", "144617.324000", "144619.324000", "144621.324000", "144623.324000", "144625.323000", "144627.324000", "144629.324000", "144631.323000", "144633.323000", "144635.323000", "144637.323000", "144639.824000", "144641.323000", "144643.324000", "144645.324000", "144647.323000", "144649.323000", "144651.323000", "144653.323000", "144655.324000", "144657.323000", "144659.323000", "144701.324000", "144703.323000", "144705.323000", "144707.323000", "144709.323000", "144711.324000", "144713.324000", "144715.323000", "144717.324000", "144719.323000", "144721.323000", "144723.323000", "144725.164000"],
      "InstanceNumber": [1, 2, 3, 4, 5, 6, 7, 8, 9, 10, 11, 12, 13, 14, 15, 16, 17, 18, 19, 20, 21, 22, 23, 24, 25, 26, 27, 28, 29, 30, 31, 32, 33, 34, 35, 36, 37, 38, 39, 40, 41, 42, 43, 44, 45, 46, 47, 48, 49, 50, 51, 52, 53, 54, 55, 56, 57, 58, 59, 60, 61, 62, 63, 64, 65, 66, 67, 68, 69, 70, 71, 72, 73, 74, 75, 76, 77, 78, 79, 80, 81, 82, 83, 84, 85, 86, 87, 88, 89, 90, 91, 92, 93, 94, 95, 96, 97, 98, 99, 100, 101, 102, 103, 104, 105, 106, 107, 108, 109, 110, 111, 112, 113, 114, 115, 116, 117, 118, 119, 120, 121, 122, 123, 124, 125, 126, 127, 128, 129, 130, 131, 132, 133, 134, 135, 136, 137, 138, 139, 140, 141, 142, 143, 144, 145, 146, 147, 148, 149, 150, 151, 152, 153, 154, 155, 156, 157, 158, 159, 160, 161, 162, 163, 164, 165, 166, 167, 168, 169, 170, 171, 172, 173, 174, 175, 176, 177, 178, 179, 180, 181, 182, 183, 184, 185, 186, 187, 188, 189, 190, 191, 192, 193, 194, 195, 196, 197, 198, 199, 200, 201, 202, 203, 204, 205, 206, 207, 208, 209, 210, 211, 212, 213, 214, 215, 216, 217, 218, 219, 220, 221, 222, 223, 224, 225, 226, 227, 228, 229, 230, 231, 232],
      "LargestImagePixelValue": [3962, 3913, 3885, 3857, 3868, 3851, 3811, 3881, 3822, 3847, 3881, 3884, 3856, 3823, 3906, 3849, 3833, 3964, 3879, 3894, 3841, 3769, 3709, 3626, 3801, 3656, 3667, 3698, 3650, 3700, 3732, 3691, 3702, 3686, 3759, 3676, 3718, 3688, 3654, 3638, 3663, 3724, 3688, 3667, 3658, 3676, 3785, 3704, 3731, 3696, 3690, 3741, 3799, 3684, 3680, 3692, 3694, 3685, 3753, 3653, 3623, 3705, 3669, 3616, 3613, 3646, 3643, 3634, 3667, 3682, 3667, 3680, 3663, 3657, 3607, 3630, 3653, 3677, 3637, 3640, 3627, 3684, 3658, 3690, 3680, 3671, 3659, 3693, 3648, 3692, 3656, 3749, 3741, 3742, 3696, 3785, 3808, 3670, 3682, 3841, 3645, 3866, 3738, 3837, 3752, 3738, 3739, 3751, 3758, 3692, 3755, 3741, 3719, 3661, 3753, 3731, 3740, 3740, 3693, 3684, 3760, 3727, 3771, 3723, 3756, 3772, 3743, 3745, 3756, 3736, 3772, 3809, 3735, 3744, 3740, 3820, 3796, 3748, 3796, 3721, 3740, 3766, 3718, 3756, 3761, 3775, 3760, 3749, 3798, 3777, 3778, 3775, 3860, 3779, 3730, 3690, 3737, 3745, 3755, 3723, 3720, 3766, 3804, 3737, 3731, 3722, 3752, 3749, 3699, 3706, 3679, 3680, 3670, 3688, 3704, 3694, 3704, 3709, 3738, 3716, 3704, 3746, 3754, 3728, 3722, 3718, 3776, 3773, 3779, 3764, 3819, 3783, 3809, 3711, 3737, 3755, 3707, 3720, 3656, 3677, 3676, 3657, 3676, 3646, 3694, 3718, 3689, 3703, 3692, 3712, 3711, 3705, 3733, 3706, 3807, 3739, 3814, 3710, 3707, 3701, 3738, 3675, 3693, 3718, 3682, 3715, 3704, 3680, 3688, 3702, 3691, 3700],
      "WindowCenter": [803.0, 803.0, 803.0, 802.0, 801.0, 801.0, 801.0, 802.0, 803.0, 803.0, 804.0, 804.0, 803.0, 802.0, 802.0, 801.0, 800.0, 802.0, 801.0, 803.0, 800.0, 798.0, 798.0, 798.0, 800.0, 799.0, 799.0, 799.0, 798.0, 798.0, 800.0, 800.0, 800.0, 801.0, 801.0, 801.0, 799.0, 798.0, 798.0, 798.0, 799.0, 800.0, 800.0, 799.0, 798.0, 798.0, 799.0, 799.0, 799.0, 799.0, 802.0, 802.0, 801.0, 799.0, 798.0, 798.0, 799.0, 801.0, 801.0, 800.0, 799.0, 799.0, 799.0, 798.0, 798.0, 798.0, 799.0, 800.0, 799.0, 799.0, 799.0, 800.0, 799.0, 798.0, 798.0, 797.0, 797.0, 798.0, 799.0, 799.0, 799.0, 799.0, 799.0, 800.0, 799.0, 799.0, 799.0, 800.0, 799.0, 800.0, 801.0, 801.0, 800.0, 800.0, 799.0, 800.0, 800.0, 799.0, 798.0, 796.0, 795.0, 796.0, 794.0, 797.0, 796.0, 797.0, 798.0, 798.0, 798.0, 798.0, 798.0, 797.0, 796.0, 795.0, 797.0, 797.0, 797.0, 796.0, 796.0, 795.0, 796.0, 797.0, 798.0, 797.0, 797.0, 797.0, 797.0, 797.0, 797.0, 798.0, 798.0, 797.0, 796.0, 795.0, 795.0, 796.0, 796.0, 796.0, 798.0, 799.0, 798.0, 797.0, 796.0, 796.0, 796.0, 796.0, 797.0, 797.0, 797.0, 796.0, 796.0, 796.0, 797.0, 797.0, 798.0, 797.0, 797.0, 796.0, 797.0, 797.0, 796.0, 797.0, 799.0, 799.0, 798.0, 796.0, 796.0, 796.0, 797.0, 797.0, 797.0, 796.0, 795.0, 795.0, 795.0, 795.0, 795.0, 795.0, 796.0, 797.0, 797.0, 797.0, 796.0, 795.0, 797.0, 798.0, 798.0, 797.0, 795.0, 795.0, 796.0, 798.0, 799.0, 799.0, 798.0, 798.0, 798.0, 797.0, 795.0, 794.0, 793.0, 794.0, 795.0, 794.0, 794.0, 794.0, 794.0, 795.0, 796.0, 798.0, 796.0, 797.0, 793.0, 794.0, 792.0, 795.0, 796.0, 797.0, 797.0, 797.0, 797.0, 796.0, 797.0, 797.0, 796.0, 795.0, 795.0, 795.0, 795.0, 795.0, 795.0, 795.0],
      "WindowWidth": [1797.0, 1795.0, 1794.0, 1793.0, 1789.0, 1789.0, 1789.0, 1794.0, 1794.0, 1796.0, 1799.0, 1798.0, 1793.0, 1790.0, 1792.0, 1790.0, 1787.0, 1792.0, 1789.0, 1797.0, 1786.0, 1779.0, 1777.0, 1778.0, 1784.0, 1780.0, 1781.0, 1781.0, 1778.0, 1778.0, 1783.0, 1785.0, 1785.0, 1786.0, 1788.0, 1785.0, 1782.0, 1777.0, 1776.0, 1778.0, 1780.0, 1783.0, 1785.0, 1781.0, 1776.0, 1777.0, 1783.0, 1782.0, 1781.0, 1783.0, 1791.0, 1793.0, 1789.0, 1782.0, 1779.0, 1778.0, 1782.0, 1786.0, 1788.0, 1783.0, 1779.0, 1780.0, 1779.0, 1777.0, 1776.0, 1777.0, 1781.0, 1782.0, 1781.0, 1780.0, 1780.0, 1783.0, 1781.0, 1778.0, 1775.0, 1775.0, 1775.0, 1776.0, 1779.0, 1781.0, 1780.0, 1782.0, 1782.0, 1784.0, 1782.0, 1779.0, 1780.0, 1783.0, 1782.0, 1783.0, 1786.0, 1788.0, 1785.0, 1783.0, 1781.0, 1784.0, 1785.0, 1781.0, 1779.0, 1771.0, 1770.0, 1772.0, 1767.0, 1775.0, 1771.0, 1773.0, 1778.0, 1779.0, 1779.0, 1777.0, 1777.0, 1775.0, 1771.0, 1770.0, 1774.0, 1775.0, 1773.0, 1772.0, 1770.0, 1768.0, 1771.0, 1775.0, 1778.0, 1776.0, 1775.0, 1776.0, 1775.0, 1775.0, 1775.0, 1776.0, 1777.0, 1775.0, 1771.0, 1768.0, 1770.0, 1773.0, 1772.0, 1771.0, 1777.0, 1779.0, 1778.0, 1776.0, 1771.0, 1773.0, 1771.0, 1772.0, 1775.0, 1774.0, 1774.0, 1772.0, 1771.0, 1771.0, 1775.0, 1776.0, 1776.0, 1773.0, 1772.0, 1770.0, 1773.0, 1773.0, 1772.0, 1775.0, 1781.0, 1779.0, 1776.0, 1772.0, 1770.0, 1770.0, 1773.0, 1774.0, 1774.0, 1770.0, 1767.0, 1767.0, 1768.0, 1766.0, 1766.0, 1767.0, 1771.0, 1773.0, 1775.0, 1774.0, 1772.0, 1769.0, 1773.0, 1775.0, 1778.0, 1773.0, 1768.0, 1768.0, 1771.0, 1776.0, 1780.0, 1779.0, 1777.0, 1777.0, 1776.0, 1775.0, 1768.0, 1763.0, 1762.0, 1765.0, 1766.0, 1764.0, 1763.0, 1765.0, 1766.0, 1768.0, 1771.0, 1776.0, 1772.0, 1775.0, 1763.0, 1764.0, 1760.0, 1768.0, 1772.0, 1773.0, 1773.0, 1772.0, 1774.0, 1772.0, 1773.0, 1773.0, 1769.0, 1769.0, 1769.0, 1769.0, 1768.0, 1768.0, 1768.0, 1769.0]
    },
    "slices": {}
  }
}