{
  "AcquisitionMatrixPE": 100,
  "AcquisitionNumber": 1,
  "AcquisitionTime": "12:27:50.380000",
  "BandwidthPerPixelPhaseEncode": 18.519,
  "BaseResolution": 100,
  "BodyPartExamined": "BRAIN",
  "ConsistencyInfo": "N4_VE11C_LATEST_20160120",
  "ConversionSoftware": "dcm2niix",
  "ConversionSoftwareVersion": "v1.0.20180622 GCC4.9.2",
  "DerivedVendorReportedEchoSpacing": 0.000539986,
  "DeviceSerialNumber": "166078",
  "DwellTime": 2.1e-06,
  "EchoTime": 0.034,
  "EchoTrainLength": 100,
  "EffectiveEchoSpacing": 0.000539986,
  "FlipAngle": 90,
  "ImageOrientationPatientDICOM": [1, 0, 0, 0, 0.977416, -0.211325],
  "ImageType": [
    "ORIGINAL",
    "PRIMARY",
    "M",
    "ND",
    "MOSAIC"
],
  "InPlanePhaseEncodingDirectionDICOM": "COL",
  "InstitutionAddress": "Street_StreetNo_Bei_Jing_District_CN_ZIP",
  "InstitutionName": "BeiJing_Normal_University",
  "InstitutionalDepartmentName": "Department",
  "MRAcquisitionType": "2D",
  "MagneticFieldStrength": 3,
  "Manufacturer": "Siemens",
  "ManufacturersModelName": "Prisma",
  "Modality": "MR",
  "MultibandAccelerationFactor": 3,
  "PartialFourier": 1,
  "PatientPosition": "HFS",
  "PercentPhaseFOV": 100,
  "PhaseEncodingDirection": "j-",
  "PhaseEncodingSteps": 100,
  "PhaseResolution": 1,
  "PixelBandwidth": 2380,
  "ProcedureStepDescription": "BNU_P2018_64CH_Liu.Jia",
  "ProtocolName": "bold_100x100_s3_2x2x2_232",
  "PulseSequenceDetails": "%SiemensSeq%_ep2d_bold",
  "ReceiveCoilActiveElements": "HC1-7;NC1",
  "ReceiveCoilName": "HeadNeck_64",
  "ReconMatrixPE": 100,
  "RepetitionTime": 2,
  "SAR": 0.0552517,
  "ScanOptions": "FS",
  "ScanningSequence": "EP",
  "SequenceName": "_epfid2d1_100",
  "SequenceVariant": "SK",
  "SeriesDescription": "bold_100x100_s3_2x2x2_232",
  "SeriesNumber": 11,
  "ShimSetting": [-5451, -11525, -1283, 498, -3, -270, -35, -10],
  "SliceThickness": 2,
  "SliceTiming": [1.485, 0, 0.99, 0.0825, 1.0725, 0.165, 1.155, 0.2475, 1.2375, 0.33, 1.32, 0.4125, 1.4025, 0.5775, 1.5675, 0.66, 1.65, 0.7425, 1.7325, 0.825, 1.815, 0.9075, 1.8975, 0.495, 1.485, 0, 0.99, 0.0825, 1.0725, 0.165, 1.155, 0.2475, 1.2375, 0.33, 1.32, 0.4125, 1.4025, 0.5775, 1.5675, 0.66, 1.65, 0.7425, 1.7325, 0.825, 1.815, 0.9075, 1.8975, 0.495, 1.485, 0, 0.99, 0.0825, 1.0725, 0.165, 1.155, 0.2475, 1.2375, 0.33, 1.32, 0.4125, 1.4025, 0.5775, 1.5675, 0.66, 1.65, 0.7425, 1.7325, 0.825, 1.815, 0.9075, 1.8975, 0.495],
  "SoftwareVersions": "syngo_MR_E11",
  "SpacingBetweenSlices": 2,
  "StationName": "AWP166078",
  "TaskName": "motor",
  "TotalReadoutTime": 0.0534586,
  "TxRefAmp": 212.816,
  "dcmmeta_affine": [
    [-2.0, 0.0, 0.0, 101.34939575195312],
    [0.0, 1.954831838607788, -0.4226495921611786, -78.18510437011719],
    [0.0, 0.4226495623588562, 1.954831838607788, -90.72322845458984],
    [0.0, 0.0, 0.0, 1.0]
],
  "dcmmeta_reorient_transform": [
    [0.0, -1.0, 0.0, 99.0],
    [1.0, 0.0, 0.0, 0.0],
    [0.0, 0.0, 1.0, 0.0],
    [0.0, 0.0, 0.0, 1.0]
],
  "dcmmeta_shape": [100, 100, 72, 232],
  "dcmmeta_slice_dim": 2,
  "dcmmeta_version": 0.6,
  "global": {
    "const": {
      "AcquisitionMatrix": [100, 0, 0, 100],
      "AngioFlag": "N",
      "BitsAllocated": 16,
      "BitsStored": 12,
      "BodyPartExamined": "BRAIN",
      "Columns": 900,
      "EchoNumbers": 1,
      "EchoTime": 34.0,
      "EchoTrainLength": 100,
      "FlipAngle": 90.0,
      "HighBit": 11,
      "ImageOrientationPatient": [1.0, 0.0, 0.0, 0.0, 0.97741589648343, -0.2113247862923],
      "ImagePositionPatient": [-901.34939754009, -897.27595707312, 120.17891044627],
      "ImageType": [
        "ORIGINAL",
        "PRIMARY",
        "M",
        "ND",
        "MOSAIC"
],
      "ImagedNucleus": "1H",
      "ImagingFrequency": 123.257822,
      "InPlanePhaseEncodingDirection": "COL",
      "MRAcquisitionType": "2D",
      "MagneticFieldStrength": 3.0,
      "Manufacturer": "SIEMENS",
      "ManufacturerModelName": "Prisma",
      "Modality": "MR",
      "NumberOfAverages": 1.0,
      "NumberOfPhaseEncodingSteps": 100,
      "PercentPhaseFieldOfView": 100.0,
      "PercentSampling": 100.0,
      "PerformedProcedureStepStartTime": "113230.891000",
      "PhotometricInterpretation": "MONOCHROME2",
      "PixelBandwidth": 2380.0,
      "PixelRepresentation": 0,
      "PixelSpacing": [2.0, 2.0],
      "ProtocolName": "bold_100x100_s3_2x2x2_232",
      "RepetitionTime": 2000.0,
      "Rows": 900,
      "SAR": 0.05525168080893,
      "SamplesPerPixel": 1,
      "ScanOptions": "FS",
      "ScanningSequence": "EP",
      "SequenceName": "*epfid2d1_100",
      "SequenceVariant": "SK",
      "SeriesDescription": "bold_100x100_s3_2x2x2_232",
      "SeriesNumber": 11,
      "SeriesTime": "122752.543000",
      "SliceLocation": -72.151872381451,
      "SliceThickness": 2.0,
      "SmallestImagePixelValue": 0,
      "SoftwareVersions": "syngo MR E11",
      "SpacingBetweenSlices": 2.000000043957,
      "SpecificCharacterSet": "ISO_IR 100",
      "StudyID": "1",
      "StudyTime": "113230.841000",
      "TransmitCoilName": "Body",
      "VariableFlipAngleFlag": "N",
      "WindowCenterWidthExplanation": "Algo1",
      "dBdt": 0.0},
    "slices": {}
  },
  "time": {
    "samples": {
      "AcquisitionNumber": [1, 2, 3, 4, 5, 6, 7, 8, 9, 10, 11, 12, 13, 14, 15, 16, 17, 18, 19, 20, 21, 22, 23, 24, 25, 26, 27, 28, 29, 30, 31, 32, 33, 34, 35, 36, 37, 38, 39, 40, 41, 42, 43, 44, 45, 46, 47, 48, 49, 50, 51, 52, 53, 54, 55, 56, 57, 58, 59, 60, 61, 62, 63, 64, 65, 66, 67, 68, 69, 70, 71, 72, 73, 74, 75, 76, 77, 78, 79, 80, 81, 82, 83, 84, 85, 86, 87, 88, 89, 90, 91, 92, 93, 94, 95, 96, 97, 98, 99, 100, 101, 102, 103, 104, 105, 106, 107, 108, 109, 110, 111, 112, 113, 114, 115, 116, 117, 118, 119, 120, 121, 122, 123, 124, 125, 126, 127, 128, 129, 130, 131, 132, 133, 134, 135, 136, 137, 138, 139, 140, 141, 142, 143, 144, 145, 146, 147, 148, 149, 150, 151, 152, 153, 154, 155, 156, 157, 158, 159, 160, 161, 162, 163, 164, 165, 166, 167, 168, 169, 170, 171, 172, 173, 174, 175, 176, 177, 178, 179, 180, 181, 182, 183, 184, 185, 186, 187, 188, 189, 190, 191, 192, 193, 194, 195, 196, 197, 198, 199, 200, 201, 202, 203, 204, 205, 206, 207, 208, 209, 210, 211, 212, 213, 214, 215, 216, 217, 218, 219, 220, 221, 222, 223, 224, 225, 226, 227, 228, 229, 230, 231, 232],
      "AcquisitionTime": ["122750.380000", "122752.380000", "122754.380000", "122756.380000", "122758.380000", "122800.380000", "122802.380000", "122804.380000", "122806.380000", "122808.380000", "122810.380000", "122812.380000", "122814.380000", "122816.380000", "122818.380000", "122820.380000", "122822.380000", "122824.380000", "122826.380000", "122828.380000", "122830.380000", "122832.380000", "122834.380000", "122836.380000", "122838.380000", "122840.380000", "122842.380000", "122844.380000", "122846.380000", "122848.380000", "122850.380000", "122852.380000", "122854.380000", "122856.380000", "122858.380000", "122900.380000", "122902.380000", "122904.380000", "122906.380000", "122908.380000", "122910.380000", "122912.380000", "122914.380000", "122916.380000", "122918.380000", "122920.380000", "122922.380000", "122924.380000", "122926.380000", "122928.380000", "122930.380000", "122932.380000", "122934.380000", "122936.380000", "122938.380000", "122940.380000", "122942.380000", "122944.380000", "122946.380000", "122948.380000", "122950.380000", "122952.380000", "122954.380000", "122956.380000", "122958.380000", "123000.380000", "123002.380000", "123004.380000", "123006.380000", "123008.380000", "123010.380000", "123012.380000", "123014.380000", "123016.380000", "123018.380000", "123020.380000", "123022.380000", "123024.380000", "123026.380000", "123028.380000", "123030.380000", "123032.380000", "123034.380000", "123036.380000", "123038.380000", "123040.380000", "123042.380000", "123044.380000", "123046.380000", "123048.380000", "123050.380000", "123052.380000", "123054.380000", "123056.380000", "123058.380000", "123100.380000", "123102.380000", "123104.380000", "123106.380000", "123108.380000", "123110.380000", "123112.380000", "123114.380000", "123116.380000", "123118.380000", "123120.380000", "123122.380000", "123124.380000", "123126.380000", "123128.380000", "123130.380000", "123132.380000", "123134.380000", "123136.380000", "123138.380000", "123140.380000", "123142.380000", "123144.380000", "123146.380000", "123148.380000", "123150.380000", "123152.380000", "123154.380000", "123156.380000", "123158.380000", "123200.380000", "123202.380000", "123204.380000", "123206.380000", "123208.380000", "123210.380000", "123212.380000", "123214.380000", "123216.380000", "123218.380000", "123220.380000", "123222.380000", "123224.380000", "123226.380000", "123228.380000", "123230.380000", "123232.380000", "123234.380000", "123236.380000", "123238.380000", "123240.380000", "123242.380000", "123244.380000", "123246.380000", "123248.380000", "123250.380000", "123252.380000", "123254.380000", "123256.380000", "123258.380000", "123300.380000", "123302.380000", "123304.380000", "123306.380000", "123308.380000", "123310.380000", "123312.380000", "123314.380000", "123316.380000", "123318.380000", "123320.380000", "123322.380000", "123324.380000", "123326.380000", "123328.380000", "123330.380000", "123332.380000", "123334.380000", "123336.380000", "123338.380000", "123340.380000", "123342.380000", "123344.380000", "123346.380000", "123348.380000", "123350.380000", "123352.380000", "123354.380000", "123356.380000", "123358.380000", "123400.380000", "123402.380000", "123404.380000", "123406.380000", "123408.380000", "123410.380000", "123412.380000", "123414.380000", "123416.380000", "123418.380000", "123420.380000", "123422.380000", "123424.380000", "123426.380000", "123428.380000", "123430.380000", "123432.380000", "123434.380000", "123436.380000", "123438.380000", "123440.380000", "123442.380000", "123444.380000", "123446.380000", "123448.380000", "123450.380000", "123452.380000", "123454.380000", "123456.380000", "123458.380000", "123500.380000", "123502.380000", "123504.380000", "123506.380000", "123508.380000", "123510.380000", "123512.380000", "123514.380000", "123516.380000", "123518.380000", "123520.380000", "123522.380000", "123524.380000", "123526.380000", "123528.380000", "123530.380000", "123532.380000"],
      "ContentTime": ["122752.547000", "122754.042000", "122756.042000", "122758.042000", "122800.042000", "122802.042000", "122804.043000", "122806.042000", "122808.042000", "122810.042000", "122812.042000", "122814.042000", "122816.042000", "122818.043000", "122820.042000", "122822.043000", "122824.041000", "122826.042000", "122828.042000", "122830.043000", "122832.042000", "122834.042000", "122836.042000", "122838.042000", "122840.042000", "122842.042000", "122844.042000", "122846.042000", "122848.043000", "122850.042000", "122852.042000", "122854.042000", "122856.043000", "122858.042000", "122900.042000", "122902.043000", "122904.042000", "122906.043000", "122908.042000", "122910.042000", "122912.042000", "122914.042000", "122916.042000", "122918.042000", "122920.042000", "122922.042000", "122924.043000", "122926.043000", "122928.042000", "122930.043000", "122932.042000", "122934.041000", "122936.042000", "122938.042000", "122940.042000", "122942.042000", "122944.043000", "122946.042000", "122948.043000", "122950.043000", "122952.042000", "122954.043000", "122956.042000", "122958.043000", "123000.043000", "123002.042000", "123004.043000", "123006.042000", "123008.042000", "123010.043000", "123012.043000", "123014.043000", "123016.042000", "123018.042000", "123020.042000", "123022.042000", "123024.042000", "123026.042000", "123028.043000", "123030.042000", "123032.043000", "123034.042000", "123036.042000", "123038.042000", "123040.042000", "123042.042000", "123044.041000", "123046.042000", "123048.042000", "123050.042000", "123052.042000", "123054.042000", "123056.043000", "123058.042000", "123100.042000", "123102.043000", "123104.042000", "123106.042000", "123108.043000", "123110.043000", "123112.042000", "123114.042000", "123116.042000", "123118.043000", "123120.043000", "123122.042000", "123124.042000", "123126.043000", "123128.043000", "123130.042000", "123132.043000", "123134.042000", "123136.042000", "123138.043000", "123140.042000", "123142.042000", "123144.042000", "123146.042000", "123148.043000", "123150.043000", "123152.042000", "123154.042000", "123156.042000", "123158.042000", "123200.042000", "123202.042000", "123204.043000", "123206.042000", "123208.043000", "123210.042000", "123212.042000", "123214.042000", "123216.066000", "123218.042000", "123220.042000", "123222.043000", "123224.043000", "123226.043000", "123228.042000", "123230.042000", "123232.042000", "123234.042000", "123236.042000", "123238.042000", "123240.042000", "123242.042000", "123244.042000", "123246.042000", "123248.042000", "123250.043000", "123252.042000", "123254.042000", "123256.043000", "123258.043000", "123300.043000", "123302.043000", "123304.041000", "123306.042000", "123308.042000", "123310.042000", "123312.043000", "123314.042000", "123316.042000", "123318.042000", "123320.043000", "123322.043000", "123324.042000", "123326.042000", "123328.043000", "123330.042000", "123332.042000", "123334.042000", "123336.042000", "123338.042000", "123340.043000", "123342.043000", "123344.043000", "123346.042000", "123348.043000", "123350.043000", "123352.042000", "123354.043000", "123356.042000", "123358.042000", "123400.042000", "123402.042000", "123404.042000", "123406.043000", "123408.042000", "123410.042000", "123412.043000", "123414.043000", "123416.042000", "123418.042000", "123420.043000", "123422.042000", "123424.042000", "123426.043000", "123428.042000", "123430.042000", "123432.042000", "123434.043000", "123436.042000", "123438.043000", "123440.042000", "123442.042000", "123444.042000", "123446.042000", "123448.043000", "123450.043000", "123452.042000", "123454.043000", "123456.042000", "123458.043000", "123500.042000", "123502.042000", "123504.042000", "123506.042000", "123508.043000", "123510.042000", "123512.042000", "123514.042000", "123516.042000", "123518.042000", "123520.043000", "123522.043000", "123524.043000", "123526.043000", "123528.042000", "123530.042000", "123532.043000", "123533.753000"],
      "InstanceCreationTime": ["122752.547000", "122754.042000", "122756.042000", "122758.042000", "122800.042000", "122802.042000", "122804.043000", "122806.042000", "122808.042000", "122810.042000", "122812.042000", "122814.042000", "122816.042000", "122818.043000", "122820.042000", "122822.043000", "122824.041000", "122826.042000", "122828.042000", "122830.043000", "122832.042000", "122834.042000", "122836.042000", "122838.042000", "122840.042000", "122842.042000", "122844.042000", "122846.042000", "122848.043000", "122850.042000", "122852.042000", "122854.042000", "122856.043000", "122858.042000", "122900.042000", "122902.043000", "122904.042000", "122906.043000", "122908.042000", "122910.042000", "122912.042000", "122914.042000", "122916.042000", "122918.042000", "122920.042000", "122922.042000", "122924.043000", "122926.043000", "122928.042000", "122930.043000", "122932.042000", "122934.041000", "122936.042000", "122938.042000", "122940.042000", "122942.042000", "122944.043000", "122946.042000", "122948.043000", "122950.043000", "122952.042000", "122954.043000", "122956.042000", "122958.043000", "123000.043000", "123002.042000", "123004.043000", "123006.042000", "123008.042000", "123010.043000", "123012.043000", "123014.043000", "123016.042000", "123018.042000", "123020.042000", "123022.042000", "123024.042000", "123026.042000", "123028.043000", "123030.042000", "123032.043000", "123034.042000", "123036.042000", "123038.042000", "123040.042000", "123042.042000", "123044.041000", "123046.042000", "123048.042000", "123050.042000", "123052.042000", "123054.042000", "123056.043000", "123058.042000", "123100.042000", "123102.043000", "123104.042000", "123106.042000", "123108.043000", "123110.043000", "123112.042000", "123114.042000", "123116.042000", "123118.043000", "123120.043000", "123122.042000", "123124.042000", "123126.043000", "123128.043000", "123130.042000", "123132.043000", "123134.042000", "123136.042000", "123138.043000", "123140.042000", "123142.042000", "123144.042000", "123146.042000", "123148.043000", "123150.043000", "123152.042000", "123154.042000", "123156.042000", "123158.042000", "123200.042000", "123202.042000", "123204.043000", "123206.042000", "123208.043000", "123210.042000", "123212.042000", "123214.042000", "123216.066000", "123218.042000", "123220.042000", "123222.043000", "123224.043000", "123226.043000", "123228.042000", "123230.042000", "123232.042000", "123234.042000", "123236.042000", "123238.042000", "123240.042000", "123242.042000", "123244.042000", "123246.042000", "123248.042000", "123250.043000", "123252.042000", "123254.042000", "123256.043000", "123258.043000", "123300.043000", "123302.043000", "123304.041000", "123306.042000", "123308.042000", "123310.042000", "123312.043000", "123314.042000", "123316.042000", "123318.042000", "123320.043000", "123322.043000", "123324.042000", "123326.042000", "123328.043000", "123330.042000", "123332.042000", "123334.042000", "123336.042000", "123338.042000", "123340.043000", "123342.043000", "123344.043000", "123346.042000", "123348.043000", "123350.043000", "123352.042000", "123354.043000", "123356.042000", "123358.042000", "123400.042000", "123402.042000", "123404.042000", "123406.043000", "123408.042000", "123410.042000", "123412.043000", "123414.043000", "123416.042000", "123418.042000", "123420.043000", "123422.042000", "123424.042000", "123426.043000", "123428.042000", "123430.042000", "123432.042000", "123434.043000", "123436.042000", "123438.043000", "123440.042000", "123442.042000", "123444.042000", "123446.042000", "123448.043000", "123450.043000", "123452.042000", "123454.043000", "123456.042000", "123458.043000", "123500.042000", "123502.042000", "123504.042000", "123506.042000", "123508.043000", "123510.042000", "123512.042000", "123514.042000", "123516.042000", "123518.042000", "123520.043000", "123522.043000", "123524.043000", "123526.043000", "123528.042000", "123530.042000", "123532.043000", "123533.753000"],
      "InstanceNumber": [1, 2, 3, 4, 5, 6, 7, 8, 9, 10, 11, 12, 13, 14, 15, 16, 17, 18, 19, 20, 21, 22, 23, 24, 25, 26, 27, 28, 29, 30, 31, 32, 33, 34, 35, 36, 37, 38, 39, 40, 41, 42, 43, 44, 45, 46, 47, 48, 49, 50, 51, 52, 53, 54, 55, 56, 57, 58, 59, 60, 61, 62, 63, 64, 65, 66, 67, 68, 69, 70, 71, 72, 73, 74, 75, 76, 77, 78, 79, 80, 81, 82, 83, 84, 85, 86, 87, 88, 89, 90, 91, 92, 93, 94, 95, 96, 97, 98, 99, 100, 101, 102, 103, 104, 105, 106, 107, 108, 109, 110, 111, 112, 113, 114, 115, 116, 117, 118, 119, 120, 121, 122, 123, 124, 125, 126, 127, 128, 129, 130, 131, 132, 133, 134, 135, 136, 137, 138, 139, 140, 141, 142, 143, 144, 145, 146, 147, 148, 149, 150, 151, 152, 153, 154, 155, 156, 157, 158, 159, 160, 161, 162, 163, 164, 165, 166, 167, 168, 169, 170, 171, 172, 173, 174, 175, 176, 177, 178, 179, 180, 181, 182, 183, 184, 185, 186, 187, 188, 189, 190, 191, 192, 193, 194, 195, 196, 197, 198, 199, 200, 201, 202, 203, 204, 205, 206, 207, 208, 209, 210, 211, 212, 213, 214, 215, 216, 217, 218, 219, 220, 221, 222, 223, 224, 225, 226, 227, 228, 229, 230, 231, 232],
      "LargestImagePixelValue": [3106, 3019, 2994, 3000, 3017, 3013, 3023, 3021, 3028, 3015, 2968, 2949, 3013, 3004, 3025, 3000, 3022, 2996, 3030, 2996, 3005, 3001, 3000, 3019, 3022, 2982, 2959, 2958, 3012, 2939, 2993, 3002, 2990, 3010, 2993, 2904, 3015, 3002, 2993, 3120, 3043, 2992, 2969, 2983, 2942, 2948, 2930, 2913, 2882, 2910, 2901, 2942, 2930, 2866, 2939, 2909, 2910, 2923, 2906, 2895, 2912, 2912, 2888, 2873, 2901, 2919, 2906, 2883, 2885, 2874, 2871, 2882, 2912, 2870, 2880, 2871, 2867, 2869, 2861, 2842, 2883, 3075, 2881, 2895, 2882, 2847, 2916, 2912, 2936, 2928, 2934, 2932, 2932, 2931, 2918, 2939, 2947, 2948, 2972, 2928, 2922, 2961, 2936, 2914, 2967, 2978, 2987, 2902, 2909, 2875, 2894, 2875, 2873, 2881, 2894, 2889, 2901, 2919, 2917, 2931, 2938, 2951, 3000, 2864, 2890, 2915, 2901, 2896, 2941, 2912, 2875, 2865, 2904, 2940, 2935, 2894, 2908, 2931, 2924, 2924, 2972, 2966, 2936, 2942, 2953, 2955, 2954, 2932, 2959, 2949, 2941, 2917, 2965, 2951, 2924, 2935, 2940, 2947, 2947, 2920, 2939, 2954, 2964, 2952, 2952, 2938, 2924, 2945, 2974, 2926, 2913, 2956, 2929, 2965, 2946, 2945, 2938, 2942, 2926, 2922, 2928, 2928, 2941, 2918, 2948, 2940, 2923, 2925, 2917, 2922, 2900, 2998, 2976, 3070, 3037, 3004, 3055, 3010, 2951, 3078, 3018, 2959, 2853, 2860, 2872, 2884, 2851, 2810, 2874, 2824, 2836, 2806, 2842, 2811, 3066, 2810, 2827, 2778, 2842, 2825, 2914, 2840, 2802, 2802, 2898, 2852, 2791, 2801, 2819, 2773, 2780, 2776],
      "WindowCenter": [743.0, 741.0, 741.0, 740.0, 740.0, 740.0, 740.0, 741.0, 741.0, 740.0, 741.0, 741.0, 741.0, 738.0, 739.0, 739.0, 740.0, 741.0, 742.0, 742.0, 741.0, 741.0, 741.0, 740.0, 740.0, 739.0, 740.0, 741.0, 743.0, 740.0, 739.0, 738.0, 738.0, 737.0, 738.0, 735.0, 738.0, 738.0, 736.0, 741.0, 737.0, 738.0, 738.0, 739.0, 739.0, 739.0, 740.0, 740.0, 740.0, 740.0, 740.0, 740.0, 740.0, 739.0, 740.0, 739.0, 739.0, 739.0, 738.0, 738.0, 738.0, 737.0, 736.0, 736.0, 737.0, 736.0, 737.0, 736.0, 735.0, 735.0, 735.0, 735.0, 736.0, 737.0, 738.0, 738.0, 739.0, 738.0, 737.0, 737.0, 736.0, 739.0, 738.0, 739.0, 739.0, 738.0, 740.0, 738.0, 739.0, 738.0, 738.0, 738.0, 737.0, 738.0, 738.0, 737.0, 738.0, 737.0, 737.0, 737.0, 737.0, 737.0, 737.0, 735.0, 735.0, 734.0, 734.0, 734.0, 733.0, 733.0, 737.0, 736.0, 736.0, 736.0, 736.0, 736.0, 737.0, 737.0, 737.0, 737.0, 738.0, 739.0, 736.0, 736.0, 736.0, 737.0, 736.0, 733.0, 736.0, 735.0, 735.0, 735.0, 734.0, 736.0, 735.0, 735.0, 736.0, 737.0, 737.0, 737.0, 738.0, 738.0, 738.0, 740.0, 740.0, 738.0, 738.0, 739.0, 740.0, 739.0, 739.0, 738.0, 738.0, 736.0, 737.0, 737.0, 738.0, 738.0, 738.0, 739.0, 739.0, 739.0, 738.0, 738.0, 738.0, 738.0, 739.0, 739.0, 740.0, 741.0, 739.0, 739.0, 738.0, 739.0, 737.0, 737.0, 738.0, 738.0, 739.0, 739.0, 738.0, 738.0, 738.0, 738.0, 738.0, 739.0, 741.0, 740.0, 739.0, 739.0, 738.0, 740.0, 741.0, 742.0, 740.0, 743.0, 743.0, 739.0, 737.0, 739.0, 741.0, 739.0, 738.0, 738.0, 739.0, 738.0, 738.0, 735.0, 736.0, 736.0, 736.0, 734.0, 734.0, 734.0, 736.0, 734.0, 735.0, 735.0, 737.0, 737.0, 739.0, 738.0, 738.0, 737.0, 737.0, 735.0, 733.0, 732.0, 731.0, 730.0, 730.0, 729.0],
      "WindowWidth": [1599.0, 1594.0, 1593.0, 1592.0, 1592.0, 1592.0, 1592.0, 1594.0, 1594.0, 1593.0, 1596.0, 1596.0, 1593.0, 1587.0, 1588.0, 1589.0, 1593.0, 1595.0, 1598.0, 1596.0, 1595.0, 1596.0, 1595.0, 1593.0, 1592.0, 1591.0, 1592.0, 1595.0, 1600.0, 1593.0, 1589.0, 1586.0, 1587.0, 1584.0, 1587.0, 1581.0, 1587.0, 1586.0, 1581.0, 1594.0, 1586.0, 1588.0, 1586.0, 1589.0, 1589.0, 1590.0, 1593.0, 1593.0, 1593.0, 1592.0, 1592.0, 1593.0, 1594.0, 1591.0, 1592.0, 1590.0, 1589.0, 1589.0, 1587.0, 1588.0, 1588.0, 1585.0, 1583.0, 1581.0, 1583.0, 1583.0, 1584.0, 1583.0, 1581.0, 1579.0, 1580.0, 1580.0, 1583.0, 1584.0, 1588.0, 1589.0, 1589.0, 1587.0, 1586.0, 1585.0, 1583.0, 1591.0, 1589.0, 1591.0, 1591.0, 1588.0, 1592.0, 1588.0, 1589.0, 1588.0, 1588.0, 1586.0, 1584.0, 1587.0, 1587.0, 1586.0, 1587.0, 1585.0, 1584.0, 1585.0, 1586.0, 1586.0, 1585.0, 1580.0, 1579.0, 1577.0, 1577.0, 1576.0, 1574.0, 1575.0, 1585.0, 1582.0, 1581.0, 1583.0, 1582.0, 1582.0, 1583.0, 1583.0, 1584.0, 1586.0, 1587.0, 1590.0, 1583.0, 1582.0, 1583.0, 1584.0, 1582.0, 1574.0, 1581.0, 1579.0, 1581.0, 1579.0, 1578.0, 1582.0, 1581.0, 1580.0, 1583.0, 1586.0, 1586.0, 1585.0, 1586.0, 1587.0, 1587.0, 1591.0, 1591.0, 1588.0, 1587.0, 1590.0, 1591.0, 1589.0, 1589.0, 1586.0, 1587.0, 1583.0, 1584.0, 1586.0, 1588.0, 1587.0, 1588.0, 1590.0, 1591.0, 1590.0, 1588.0, 1587.0, 1587.0, 1588.0, 1589.0, 1590.0, 1594.0, 1595.0, 1591.0, 1590.0, 1587.0, 1589.0, 1585.0, 1586.0, 1586.0, 1588.0, 1590.0, 1590.0, 1588.0, 1588.0, 1586.0, 1586.0, 1588.0, 1590.0, 1594.0, 1592.0, 1590.0, 1589.0, 1587.0, 1592.0, 1595.0, 1598.0, 1594.0, 1600.0, 1599.0, 1590.0, 1585.0, 1590.0, 1593.0, 1590.0, 1586.0, 1588.0, 1590.0, 1587.0, 1586.0, 1580.0, 1582.0, 1582.0, 1581.0, 1577.0, 1577.0, 1576.0, 1583.0, 1578.0, 1580.0, 1580.0, 1584.0, 1585.0, 1590.0, 1588.0, 1588.0, 1584.0, 1584.0, 1578.0, 1574.0, 1570.0, 1569.0, 1567.0, 1566.0, 1563.0]
    },
    "slices": {}
  }
}