{
  "AcquisitionMatrixPE": 100,
  "AcquisitionNumber": 1,
  "AcquisitionTime": "09:44:38.320000",
  "BandwidthPerPixelPhaseEncode": 18.519,
  "BaseResolution": 100,
  "BodyPartExamined": "BRAIN",
  "ConsistencyInfo": "N4_VE11C_LATEST_20160120",
  "ConversionSoftware": "dcm2niix",
  "ConversionSoftwareVersion": "v1.0.20180622 GCC4.9.2",
  "DerivedVendorReportedEchoSpacing": 0.000539986,
  "DeviceSerialNumber": "166078",
  "DwellTime": 2.1e-06,
  "EchoTime": 0.034,
  "EchoTrainLength": 100,
  "EffectiveEchoSpacing": 0.000539986,
  "FlipAngle": 90,
  "ImageOrientationPatientDICOM": [0.999781, 0.0205844, -0.00387164, -0.0209424, 0.985497, -0.168395],
  "ImageType": [
    "ORIGINAL",
    "PRIMARY",
    "M",
    "ND",
    "MOSAIC"
],
  "InPlanePhaseEncodingDirectionDICOM": "COL",
  "InstitutionAddress": "Street_StreetNo_Bei_Jing_District_CN_ZIP",
  "InstitutionName": "BeiJing_Normal_University",
  "InstitutionalDepartmentName": "Department",
  "MRAcquisitionType": "2D",
  "MagneticFieldStrength": 3,
  "Manufacturer": "Siemens",
  "ManufacturersModelName": "Prisma",
  "Modality": "MR",
  "MultibandAccelerationFactor": 3,
  "PartialFourier": 1,
  "PatientPosition": "HFS",
  "PercentPhaseFOV": 100,
  "PhaseEncodingDirection": "j-",
  "PhaseEncodingSteps": 100,
  "PhaseResolution": 1,
  "PixelBandwidth": 2380,
  "ProcedureStepDescription": "BNU_P2018_64CH_Liu.Jia",
  "ProtocolName": "bold_100x100_s3_2x2x2_232",
  "PulseSequenceDetails": "%SiemensSeq%_ep2d_bold",
  "ReceiveCoilActiveElements": "HC1-7;NC1",
  "ReceiveCoilName": "HeadNeck_64",
  "ReconMatrixPE": 100,
  "RepetitionTime": 2,
  "SAR": 0.0787778,
  "ScanOptions": "FS",
  "ScanningSequence": "EP",
  "SequenceName": "_epfid2d1_100",
  "SequenceVariant": "SK",
  "SeriesDescription": "bold_100x100_s3_2x2x2_232",
  "SeriesNumber": 11,
  "ShimSetting": [-5460, -11469, -1291, 255, 16, -162, -168, 24],
  "SliceThickness": 2,
  "SliceTiming": [1.485, 0, 0.99, 0.0825, 1.0725, 0.165, 1.155, 0.2475, 1.2375, 0.33, 1.32, 0.4125, 1.4025, 0.5775, 1.5675, 0.66, 1.65, 0.7425, 1.7325, 0.825, 1.815, 0.9075, 1.8975, 0.495, 1.485, 0, 0.99, 0.0825, 1.0725, 0.165, 1.155, 0.2475, 1.2375, 0.33, 1.32, 0.4125, 1.4025, 0.5775, 1.5675, 0.66, 1.65, 0.7425, 1.7325, 0.825, 1.815, 0.9075, 1.8975, 0.495, 1.485, 0, 0.99, 0.0825, 1.0725, 0.165, 1.155, 0.2475, 1.2375, 0.33, 1.32, 0.4125, 1.4025, 0.5775, 1.5675, 0.66, 1.65, 0.7425, 1.7325, 0.825, 1.815, 0.9075, 1.8975, 0.495],
  "SoftwareVersions": "syngo_MR_E11",
  "SpacingBetweenSlices": 2,
  "StationName": "AWP166078",
  "TaskName": "motor",
  "TotalReadoutTime": 0.0534586,
  "TxRefAmp": 218.708,
  "dcmmeta_affine": [
    [-1.9995611906051636, -0.04188479110598564, -0.0006983785424381495, 103.91352844238281],
    [-0.04116873815655708, 1.970994234085083, -0.3368781805038452, -76.87960815429688],
    [-0.007743285968899727, 0.33678990602493286, 1.9714239835739136, -94.23368072509766],
    [0.0, 0.0, 0.0, 1.0]
],
  "dcmmeta_reorient_transform": [
    [0.0, -1.0, 0.0, 99.0],
    [1.0, 0.0, 0.0, 0.0],
    [0.0, 0.0, 1.0, 0.0],
    [0.0, 0.0, 0.0, 1.0]
],
  "dcmmeta_shape": [100, 100, 72, 232],
  "dcmmeta_slice_dim": 2,
  "dcmmeta_version": 0.6,
  "global": {
    "const": {
      "AcquisitionMatrix": [100, 0, 0, 100],
      "AngioFlag": "N",
      "BitsAllocated": 16,
      "BitsStored": 12,
      "BodyPartExamined": "BRAIN",
      "Columns": 900,
      "EchoNumbers": 1,
      "EchoTime": 34.0,
      "EchoTrainLength": 100,
      "FlipAngle": 90.0,
      "HighBit": 11,
      "ImageOrientationPatient": [0.99978062300226, 0.02058436905406, -0.0038716430435, -0.0209423956622, 0.98549711172408, -0.1683949489962],
      "ImagePositionPatient": [-882.83751584456, -923.11400156934, 76.921791661417],
      "ImageType": [
        "ORIGINAL",
        "PRIMARY",
        "M",
        "ND",
        "MOSAIC"
],
      "ImagedNucleus": "1H",
      "ImagingFrequency": 123.25784,
      "InPlanePhaseEncodingDirection": "COL",
      "MRAcquisitionType": "2D",
      "MagneticFieldStrength": 3.0,
      "Manufacturer": "SIEMENS",
      "ManufacturerModelName": "Prisma",
      "Modality": "MR",
      "NumberOfAverages": 1.0,
      "NumberOfPhaseEncodingSteps": 100,
      "PercentPhaseFieldOfView": 100.0,
      "PercentSampling": 100.0,
      "PerformedProcedureStepStartTime": "085317.575000",
      "PhotometricInterpretation": "MONOCHROME2",
      "PixelBandwidth": 2380.0,
      "PixelRepresentation": 0,
      "PixelSpacing": [2.0, 2.0],
      "ProtocolName": "bold_100x100_s3_2x2x2_232",
      "RepetitionTime": 2000.0,
      "Rows": 900,
      "SAR": 0.07877778500766,
      "SamplesPerPixel": 1,
      "ScanOptions": "FS",
      "ScanningSequence": "EP",
      "SequenceName": "*epfid2d1_100",
      "SequenceVariant": "SK",
      "SeriesDescription": "bold_100x100_s3_2x2x2_232",
      "SeriesNumber": 11,
      "SeriesTime": "094440.665000",
      "SliceLocation": -79.974025102065,
      "SliceThickness": 2.0,
      "SmallestImagePixelValue": 0,
      "SoftwareVersions": "syngo MR E11",
      "SpacingBetweenSlices": 1.9999999877209,
      "SpecificCharacterSet": "ISO_IR 100",
      "StudyID": "1",
      "StudyTime": "085317.426000",
      "TransmitCoilName": "Body",
      "VariableFlipAngleFlag": "N",
      "WindowCenterWidthExplanation": "Algo1",
      "dBdt": 0.0},
    "slices": {}
  },
  "time": {
    "samples": {
      "AcquisitionNumber": [1, 2, 3, 4, 5, 6, 7, 8, 9, 10, 11, 12, 13, 14, 15, 16, 17, 18, 19, 20, 21, 22, 23, 24, 25, 26, 27, 28, 29, 30, 31, 32, 33, 34, 35, 36, 37, 38, 39, 40, 41, 42, 43, 44, 45, 46, 47, 48, 49, 50, 51, 52, 53, 54, 55, 56, 57, 58, 59, 60, 61, 62, 63, 64, 65, 66, 67, 68, 69, 70, 71, 72, 73, 74, 75, 76, 77, 78, 79, 80, 81, 82, 83, 84, 85, 86, 87, 88, 89, 90, 91, 92, 93, 94, 95, 96, 97, 98, 99, 100, 101, 102, 103, 104, 105, 106, 107, 108, 109, 110, 111, 112, 113, 114, 115, 116, 117, 118, 119, 120, 121, 122, 123, 124, 125, 126, 127, 128, 129, 130, 131, 132, 133, 134, 135, 136, 137, 138, 139, 140, 141, 142, 143, 144, 145, 146, 147, 148, 149, 150, 151, 152, 153, 154, 155, 156, 157, 158, 159, 160, 161, 162, 163, 164, 165, 166, 167, 168, 169, 170, 171, 172, 173, 174, 175, 176, 177, 178, 179, 180, 181, 182, 183, 184, 185, 186, 187, 188, 189, 190, 191, 192, 193, 194, 195, 196, 197, 198, 199, 200, 201, 202, 203, 204, 205, 206, 207, 208, 209, 210, 211, 212, 213, 214, 215, 216, 217, 218, 219, 220, 221, 222, 223, 224, 225, 226, 227, 228, 229, 230, 231, 232],
      "AcquisitionTime": ["094438.320000", "094440.320000", "094442.320000", "094444.320000", "094446.320000", "094448.320000", "094450.320000", "094452.320000", "094454.320000", "094456.320000", "094458.320000", "094500.320000", "094502.320000", "094504.320000", "094506.320000", "094508.320000", "094510.320000", "094512.320000", "094514.320000", "094516.320000", "094518.320000", "094520.320000", "094522.320000", "094524.320000", "094526.320000", "094528.320000", "094530.320000", "094532.320000", "094534.320000", "094536.320000", "094538.320000", "094540.320000", "094542.320000", "094544.320000", "094546.320000", "094548.320000", "094550.320000", "094552.320000", "094554.320000", "094556.320000", "094558.320000", "094600.320000", "094602.320000", "094604.320000", "094606.320000", "094608.320000", "094610.320000", "094612.320000", "094614.320000", "094616.320000", "094618.320000", "094620.320000", "094622.320000", "094624.320000", "094626.320000", "094628.320000", "094630.320000", "094632.320000", "094634.320000", "094636.320000", "094638.320000", "094640.320000", "094642.320000", "094644.320000", "094646.320000", "094648.320000", "094650.320000", "094652.320000", "094654.320000", "094656.320000", "094658.320000", "094700.320000", "094702.320000", "094704.320000", "094706.320000", "094708.320000", "094710.320000", "094712.320000", "094714.320000", "094716.320000", "094718.320000", "094720.320000", "094722.320000", "094724.320000", "094726.320000", "094728.320000", "094730.320000", "094732.320000", "094734.320000", "094736.320000", "094738.320000", "094740.320000", "094742.320000", "094744.320000", "094746.320000", "094748.320000", "094750.320000", "094752.320000", "094754.320000", "094756.320000", "094758.320000", "094800.320000", "094802.320000", "094804.320000", "094806.320000", "094808.320000", "094810.320000", "094812.320000", "094814.320000", "094816.320000", "094818.320000", "094820.320000", "094822.320000", "094824.320000", "094826.320000", "094828.320000", "094830.320000", "094832.320000", "094834.320000", "094836.320000", "094838.320000", "094840.320000", "094842.320000", "094844.320000", "094846.320000", "094848.320000", "094850.320000", "094852.320000", "094854.320000", "094856.320000", "094858.320000", "094900.320000", "094902.320000", "094904.320000", "094906.320000", "094908.320000", "094910.320000", "094912.320000", "094914.320000", "094916.320000", "094918.320000", "094920.320000", "094922.320000", "094924.320000", "094926.320000", "094928.320000", "094930.320000", "094932.320000", "094934.320000", "094936.320000", "094938.320000", "094940.320000", "094942.320000", "094944.320000", "094946.320000", "094948.320000", "094950.320000", "094952.320000", "094954.320000", "094956.320000", "094958.320000", "095000.320000", "095002.320000", "095004.320000", "095006.320000", "095008.320000", "095010.320000", "095012.320000", "095014.320000", "095016.320000", "095018.320000", "095020.320000", "095022.320000", "095024.320000", "095026.320000", "095028.320000", "095030.320000", "095032.320000", "095034.320000", "095036.320000", "095038.320000", "095040.320000", "095042.320000", "095044.320000", "095046.320000", "095048.320000", "095050.320000", "095052.320000", "095054.320000", "095056.320000", "095058.320000", "095100.320000", "095102.320000", "095104.320000", "095106.320000", "095108.320000", "095110.320000", "095112.320000", "095114.320000", "095116.320000", "095118.320000", "095120.320000", "095122.320000", "095124.320000", "095126.320000", "095128.320000", "095130.320000", "095132.320000", "095134.320000", "095136.320000", "095138.320000", "095140.320000", "095142.320000", "095144.320000", "095146.320000", "095148.320000", "095150.320000", "095152.320000", "095154.320000", "095156.320000", "095158.320000", "095200.320000", "095202.320000", "095204.320000", "095206.320000", "095208.320000", "095210.320000", "095212.320000", "095214.320000", "095216.320000", "095218.320000", "095220.320000"],
      "ContentTime": ["094440.669000", "094442.164000", "094444.164000", "094446.164000", "094448.165000", "094450.165000", "094452.164000", "094454.164000", "094456.164000", "094458.164000", "094500.164000", "094502.164000", "094504.164000", "094506.165000", "094508.164000", "094510.164000", "094512.164000", "094514.164000", "094516.164000", "094518.165000", "094520.164000", "094522.164000", "094524.165000", "094526.164000", "094528.164000", "094530.164000", "094532.164000", "094534.164000", "094536.164000", "094538.165000", "094540.164000", "094542.165000", "094544.165000", "094546.164000", "094548.164000", "094550.165000", "094552.164000", "094554.164000", "094556.165000", "094558.165000", "094600.165000", "094602.164000", "094604.164000", "094606.164000", "094608.164000", "094610.164000", "094612.164000", "094614.165000", "094616.165000", "094618.165000", "094620.164000", "094622.164000", "094624.164000", "094626.164000", "094628.165000", "094630.164000", "094632.164000", "094634.165000", "094636.164000", "094638.164000", "094640.164000", "094642.164000", "094644.164000", "094646.164000", "094648.164000", "094650.165000", "094652.166000", "094654.164000", "094656.164000", "094658.165000", "094700.164000", "094702.164000", "094704.164000", "094706.164000", "094708.166000", "094710.165000", "094712.164000", "094714.164000", "094716.164000", "094718.164000", "094720.165000", "094722.165000", "094724.164000", "094726.165000", "094728.164000", "094730.164000", "094732.165000", "094734.164000", "094736.164000", "094738.165000", "094740.164000", "094742.164000", "094744.165000", "094746.165000", "094748.164000", "094750.164000", "094752.164000", "094754.164000", "094756.165000", "094758.165000", "094800.165000", "094802.165000", "094804.164000", "094806.164000", "094808.164000", "094810.164000", "094812.164000", "094814.165000", "094816.164000", "094818.165000", "094820.165000", "094822.164000", "094824.165000", "094826.164000", "094828.165000", "094830.164000", "094832.165000", "094834.164000", "094836.165000", "094838.164000", "094840.164000", "094842.164000", "094844.164000", "094846.164000", "094848.164000", "094850.164000", "094852.165000", "094854.165000", "094856.164000", "094858.164000", "094900.165000", "094902.165000", "094904.164000", "094906.164000", "094908.164000", "094910.165000", "094912.165000", "094914.165000", "094916.164000", "094918.165000", "094920.164000", "094922.165000", "094924.165000", "094926.164000", "094928.165000", "094930.165000", "094932.164000", "094934.164000", "094936.165000", "094938.164000", "094940.165000", "094942.165000", "094944.165000", "094946.166000", "094948.165000", "094950.164000", "094952.164000", "094954.164000", "094956.164000", "094958.164000", "095000.164000", "095002.164000", "095004.165000", "095006.164000", "095008.164000", "095010.164000", "095012.164000", "095014.164000", "095016.164000", "095018.164000", "095020.164000", "095022.165000", "095024.164000", "095026.165000", "095028.164000", "095030.164000", "095032.164000", "095034.164000", "095036.164000", "095038.165000", "095040.165000", "095042.165000", "095044.164000", "095046.165000", "095048.164000", "095050.164000", "095052.164000", "095054.164000", "095056.166000", "095058.165000", "095100.165000", "095102.164000", "095104.165000", "095106.164000", "095108.164000", "095110.164000", "095112.164000", "095114.166000", "095116.164000", "095118.165000", "095120.164000", "095122.165000", "095124.164000", "095126.165000", "095128.165000", "095130.164000", "095132.165000", "095134.164000", "095136.165000", "095138.165000", "095140.164000", "095142.165000", "095144.164000", "095146.165000", "095148.166000", "095150.165000", "095152.164000", "095154.165000", "095156.165000", "095158.164000", "095200.164000", "095202.164000", "095204.164000", "095206.165000", "095208.165000", "095210.165000", "095212.165000", "095214.165000", "095216.164000", "095218.165000", "095220.164000", "095221.933000"],
      "InstanceCreationTime": ["094440.669000", "094442.164000", "094444.164000", "094446.164000", "094448.165000", "094450.165000", "094452.164000", "094454.164000", "094456.164000", "094458.164000", "094500.164000", "094502.164000", "094504.164000", "094506.165000", "094508.164000", "094510.164000", "094512.164000", "094514.164000", "094516.164000", "094518.165000", "094520.164000", "094522.164000", "094524.165000", "094526.164000", "094528.164000", "094530.164000", "094532.164000", "094534.164000", "094536.164000", "094538.165000", "094540.164000", "094542.165000", "094544.165000", "094546.164000", "094548.164000", "094550.165000", "094552.164000", "094554.164000", "094556.165000", "094558.165000", "094600.165000", "094602.164000", "094604.164000", "094606.164000", "094608.164000", "094610.164000", "094612.164000", "094614.165000", "094616.165000", "094618.165000", "094620.164000", "094622.164000", "094624.164000", "094626.164000", "094628.165000", "094630.164000", "094632.164000", "094634.165000", "094636.164000", "094638.164000", "094640.164000", "094642.164000", "094644.164000", "094646.164000", "094648.164000", "094650.165000", "094652.166000", "094654.164000", "094656.164000", "094658.165000", "094700.164000", "094702.164000", "094704.164000", "094706.164000", "094708.166000", "094710.165000", "094712.164000", "094714.164000", "094716.164000", "094718.164000", "094720.165000", "094722.165000", "094724.164000", "094726.165000", "094728.164000", "094730.164000", "094732.165000", "094734.164000", "094736.164000", "094738.165000", "094740.164000", "094742.164000", "094744.165000", "094746.165000", "094748.164000", "094750.164000", "094752.164000", "094754.164000", "094756.165000", "094758.165000", "094800.165000", "094802.165000", "094804.164000", "094806.164000", "094808.164000", "094810.164000", "094812.164000", "094814.165000", "094816.164000", "094818.165000", "094820.165000", "094822.164000", "094824.165000", "094826.164000", "094828.165000", "094830.164000", "094832.165000", "094834.164000", "094836.165000", "094838.164000", "094840.164000", "094842.164000", "094844.164000", "094846.164000", "094848.164000", "094850.164000", "094852.165000", "094854.165000", "094856.164000", "094858.164000", "094900.165000", "094902.165000", "094904.164000", "094906.164000", "094908.164000", "094910.165000", "094912.165000", "094914.165000", "094916.164000", "094918.165000", "094920.164000", "094922.165000", "094924.165000", "094926.164000", "094928.165000", "094930.165000", "094932.164000", "094934.164000", "094936.165000", "094938.164000", "094940.165000", "094942.165000", "094944.165000", "094946.166000", "094948.165000", "094950.164000", "094952.164000", "094954.164000", "094956.164000", "094958.164000", "095000.164000", "095002.164000", "095004.165000", "095006.164000", "095008.164000", "095010.164000", "095012.164000", "095014.164000", "095016.164000", "095018.164000", "095020.164000", "095022.165000", "095024.164000", "095026.165000", "095028.164000", "095030.164000", "095032.164000", "095034.164000", "095036.164000", "095038.165000", "095040.165000", "095042.165000", "095044.164000", "095046.165000", "095048.164000", "095050.164000", "095052.164000", "095054.164000", "095056.166000", "095058.165000", "095100.165000", "095102.164000", "095104.165000", "095106.164000", "095108.164000", "095110.164000", "095112.164000", "095114.166000", "095116.164000", "095118.165000", "095120.164000", "095122.165000", "095124.164000", "095126.165000", "095128.165000", "095130.164000", "095132.165000", "095134.164000", "095136.165000", "095138.165000", "095140.164000", "095142.165000", "095144.164000", "095146.165000", "095148.166000", "095150.165000", "095152.164000", "095154.165000", "095156.165000", "095158.164000", "095200.164000", "095202.164000", "095204.164000", "095206.165000", "095208.165000", "095210.165000", "095212.165000", "095214.165000", "095216.164000", "095218.165000", "095220.164000", "095221.933000"],
      "InstanceNumber": [1, 2, 3, 4, 5, 6, 7, 8, 9, 10, 11, 12, 13, 14, 15, 16, 17, 18, 19, 20, 21, 22, 23, 24, 25, 26, 27, 28, 29, 30, 31, 32, 33, 34, 35, 36, 37, 38, 39, 40, 41, 42, 43, 44, 45, 46, 47, 48, 49, 50, 51, 52, 53, 54, 55, 56, 57, 58, 59, 60, 61, 62, 63, 64, 65, 66, 67, 68, 69, 70, 71, 72, 73, 74, 75, 76, 77, 78, 79, 80, 81, 82, 83, 84, 85, 86, 87, 88, 89, 90, 91, 92, 93, 94, 95, 96, 97, 98, 99, 100, 101, 102, 103, 104, 105, 106, 107, 108, 109, 110, 111, 112, 113, 114, 115, 116, 117, 118, 119, 120, 121, 122, 123, 124, 125, 126, 127, 128, 129, 130, 131, 132, 133, 134, 135, 136, 137, 138, 139, 140, 141, 142, 143, 144, 145, 146, 147, 148, 149, 150, 151, 152, 153, 154, 155, 156, 157, 158, 159, 160, 161, 162, 163, 164, 165, 166, 167, 168, 169, 170, 171, 172, 173, 174, 175, 176, 177, 178, 179, 180, 181, 182, 183, 184, 185, 186, 187, 188, 189, 190, 191, 192, 193, 194, 195, 196, 197, 198, 199, 200, 201, 202, 203, 204, 205, 206, 207, 208, 209, 210, 211, 212, 213, 214, 215, 216, 217, 218, 219, 220, 221, 222, 223, 224, 225, 226, 227, 228, 229, 230, 231, 232],
      "LargestImagePixelValue": [3022, 3097, 3135, 3131, 3118, 3112, 3147, 3097, 3111, 3122, 3146, 3133, 3155, 3122, 3118, 3090, 3132, 3100, 3093, 3128, 3092, 3123, 3131, 3106, 3133, 3149, 3157, 3103, 3123, 3080, 3097, 3117, 3124, 3128, 3194, 3185, 3169, 3131, 3055, 3068, 3174, 3170, 3146, 3123, 3174, 3163, 3159, 3213, 3171, 3035, 3041, 3007, 3077, 2982, 3025, 3167, 3133, 3201, 3163, 3179, 3161, 3207, 3177, 3228, 3237, 3140, 3162, 3204, 3223, 3196, 3194, 3161, 3157, 3198, 3153, 3168, 3194, 3169, 3202, 3170, 3155, 3156, 3178, 3143, 3100, 3180, 3143, 3138, 3154, 2954, 3046, 2938, 3066, 3016, 3076, 3014, 3035, 3025, 3044, 3082, 3039, 2997, 3038, 3184, 3026, 3000, 3042, 3013, 3036, 3068, 3027, 3007, 3044, 3028, 3063, 3100, 3073, 3080, 3029, 3039, 3070, 3093, 3122, 3086, 3090, 3077, 3122, 3107, 3032, 3043, 3073, 3082, 3093, 3116, 3135, 3162, 3064, 3024, 2968, 3248, 2940, 3245, 2982, 3307, 2997, 3120, 3225, 3202, 3253, 3289, 3263, 3253, 3203, 3171, 3221, 3210, 3203, 3192, 3168, 3250, 3233, 3256, 3207, 3222, 3203, 3231, 3225, 3228, 3200, 3211, 3212, 3196, 3186, 3231, 3146, 3136, 3159, 2999, 2906, 3059, 2998, 3110, 3036, 3127, 2839, 3035, 3080, 3108, 3082, 3084, 3140, 3113, 3127, 3182, 3170, 3191, 3163, 3156, 3179, 3180, 3155, 3159, 3156, 3156, 3159, 3146, 3140, 3106, 3155, 3163, 3165, 3127, 3141, 3139, 3134, 3131, 3104, 3140, 3172, 3190, 3155, 3179, 3185, 3200, 3120, 3104, 3116, 3126, 3175, 3148, 3158, 3113],
      "WindowCenter": [765.0, 766.0, 769.0, 771.0, 771.0, 771.0, 771.0, 771.0, 771.0, 771.0, 771.0, 772.0, 772.0, 772.0, 773.0, 772.0, 772.0, 770.0, 770.0, 771.0, 771.0, 772.0, 772.0, 771.0, 772.0, 772.0, 772.0, 772.0, 772.0, 772.0, 772.0, 772.0, 771.0, 771.0, 773.0, 774.0, 772.0, 769.0, 767.0, 766.0, 768.0, 770.0, 769.0, 768.0, 768.0, 768.0, 770.0, 771.0, 770.0, 769.0, 765.0, 764.0, 768.0, 764.0, 769.0, 770.0, 770.0, 772.0, 772.0, 773.0, 773.0, 773.0, 773.0, 772.0, 770.0, 769.0, 769.0, 771.0, 771.0, 773.0, 772.0, 771.0, 770.0, 770.0, 771.0, 772.0, 773.0, 772.0, 773.0, 773.0, 773.0, 771.0, 771.0, 769.0, 768.0, 769.0, 768.0, 770.0, 767.0, 766.0, 769.0, 767.0, 769.0, 766.0, 770.0, 766.0, 769.0, 770.0, 769.0, 767.0, 768.0, 768.0, 768.0, 768.0, 765.0, 767.0, 769.0, 768.0, 767.0, 764.0, 762.0, 763.0, 764.0, 765.0, 766.0, 768.0, 770.0, 771.0, 770.0, 769.0, 769.0, 770.0, 772.0, 773.0, 773.0, 773.0, 772.0, 772.0, 771.0, 772.0, 771.0, 770.0, 769.0, 769.0, 769.0, 770.0, 767.0, 760.0, 762.0, 770.0, 765.0, 768.0, 766.0, 766.0, 759.0, 769.0, 769.0, 769.0, 769.0, 769.0, 769.0, 768.0, 768.0, 769.0, 769.0, 768.0, 767.0, 767.0, 767.0, 769.0, 770.0, 771.0, 770.0, 770.0, 770.0, 770.0, 770.0, 770.0, 769.0, 769.0, 769.0, 769.0, 769.0, 769.0, 768.0, 768.0, 765.0, 761.0, 759.0, 764.0, 763.0, 765.0, 767.0, 767.0, 755.0, 771.0, 769.0, 769.0, 769.0, 769.0, 770.0, 770.0, 770.0, 770.0, 769.0, 769.0, 770.0, 768.0, 766.0, 765.0, 764.0, 765.0, 766.0, 767.0, 767.0, 767.0, 768.0, 768.0, 769.0, 770.0, 769.0, 770.0, 770.0, 771.0, 771.0, 771.0, 771.0, 771.0, 769.0, 768.0, 768.0, 768.0, 769.0, 769.0, 769.0, 769.0, 769.0, 768.0, 768.0, 769.0, 769.0, 768.0],
      "WindowWidth": [1653.0, 1656.0, 1665.0, 1670.0, 1672.0, 1672.0, 1671.0, 1671.0, 1671.0, 1671.0, 1672.0, 1673.0, 1675.0, 1673.0, 1675.0, 1674.0, 1673.0, 1669.0, 1669.0, 1670.0, 1671.0, 1672.0, 1674.0, 1670.0, 1674.0, 1673.0, 1674.0, 1672.0, 1672.0, 1672.0, 1673.0, 1672.0, 1671.0, 1672.0, 1676.0, 1678.0, 1673.0, 1665.0, 1660.0, 1657.0, 1662.0, 1667.0, 1666.0, 1663.0, 1661.0, 1663.0, 1667.0, 1671.0, 1666.0, 1665.0, 1655.0, 1651.0, 1663.0, 1651.0, 1665.0, 1667.0, 1668.0, 1672.0, 1673.0, 1675.0, 1675.0, 1677.0, 1676.0, 1672.0, 1669.0, 1665.0, 1665.0, 1670.0, 1672.0, 1675.0, 1674.0, 1671.0, 1667.0, 1668.0, 1671.0, 1674.0, 1675.0, 1674.0, 1676.0, 1675.0, 1675.0, 1671.0, 1670.0, 1666.0, 1661.0, 1664.0, 1662.0, 1667.0, 1659.0, 1658.0, 1666.0, 1659.0, 1664.0, 1658.0, 1667.0, 1657.0, 1664.0, 1667.0, 1665.0, 1660.0, 1661.0, 1662.0, 1662.0, 1662.0, 1653.0, 1658.0, 1663.0, 1663.0, 1659.0, 1651.0, 1645.0, 1647.0, 1651.0, 1653.0, 1655.0, 1662.0, 1668.0, 1671.0, 1668.0, 1664.0, 1664.0, 1666.0, 1672.0, 1674.0, 1676.0, 1674.0, 1674.0, 1674.0, 1671.0, 1671.0, 1668.0, 1667.0, 1664.0, 1663.0, 1666.0, 1666.0, 1660.0, 1641.0, 1647.0, 1668.0, 1654.0, 1663.0, 1656.0, 1656.0, 1638.0, 1664.0, 1663.0, 1664.0, 1665.0, 1665.0, 1663.0, 1661.0, 1662.0, 1663.0, 1664.0, 1663.0, 1660.0, 1659.0, 1659.0, 1665.0, 1668.0, 1669.0, 1668.0, 1668.0, 1667.0, 1667.0, 1667.0, 1667.0, 1665.0, 1664.0, 1665.0, 1666.0, 1665.0, 1664.0, 1660.0, 1662.0, 1654.0, 1645.0, 1639.0, 1652.0, 1648.0, 1654.0, 1659.0, 1659.0, 1626.0, 1670.0, 1664.0, 1664.0, 1665.0, 1665.0, 1668.0, 1668.0, 1667.0, 1667.0, 1665.0, 1665.0, 1667.0, 1662.0, 1657.0, 1653.0, 1652.0, 1653.0, 1656.0, 1658.0, 1660.0, 1660.0, 1660.0, 1662.0, 1665.0, 1666.0, 1666.0, 1666.0, 1668.0, 1669.0, 1669.0, 1671.0, 1668.0, 1668.0, 1665.0, 1663.0, 1661.0, 1662.0, 1663.0, 1663.0, 1664.0, 1663.0, 1664.0, 1662.0, 1663.0, 1664.0, 1665.0, 1662.0]
    },
    "slices": {}
  }
}