{
  "AcquisitionMatrixPE": 100,
  "AcquisitionNumber": 1,
  "AcquisitionTime": "09:35:55.372500",
  "BandwidthPerPixelPhaseEncode": 18.519,
  "BaseResolution": 100,
  "BodyPartExamined": "BRAIN",
  "ConsistencyInfo": "N4_VE11C_LATEST_20160120",
  "ConversionSoftware": "dcm2niix",
  "ConversionSoftwareVersion": "v1.0.20180622 GCC4.9.2",
  "DerivedVendorReportedEchoSpacing": 0.000539986,
  "DeviceSerialNumber": "166078",
  "DwellTime": 2.1e-06,
  "EchoTime": 0.034,
  "EchoTrainLength": 100,
  "EffectiveEchoSpacing": 0.000539986,
  "FlipAngle": 90,
  "ImageOrientationPatientDICOM": [0.999781, 0.0205844, -0.00387164, -0.0209424, 0.985497, -0.168395],
  "ImageType": [
    "ORIGINAL",
    "PRIMARY",
    "M",
    "ND",
    "MOSAIC"
],
  "InPlanePhaseEncodingDirectionDICOM": "COL",
  "InstitutionAddress": "Street_StreetNo_Bei_Jing_District_CN_ZIP",
  "InstitutionName": "BeiJing_Normal_University",
  "InstitutionalDepartmentName": "Department",
  "MRAcquisitionType": "2D",
  "MagneticFieldStrength": 3,
  "Manufacturer": "Siemens",
  "ManufacturersModelName": "Prisma",
  "Modality": "MR",
  "MultibandAccelerationFactor": 3,
  "PartialFourier": 1,
  "PatientPosition": "HFS",
  "PercentPhaseFOV": 100,
  "PhaseEncodingDirection": "j-",
  "PhaseEncodingSteps": 100,
  "PhaseResolution": 1,
  "PixelBandwidth": 2380,
  "ProcedureStepDescription": "BNU_P2018_64CH_Liu.Jia",
  "ProtocolName": "bold_100x100_s3_2x2x2_232",
  "PulseSequenceDetails": "%SiemensSeq%_ep2d_bold",
  "ReceiveCoilActiveElements": "HC1-7;NC1",
  "ReceiveCoilName": "HeadNeck_64",
  "ReconMatrixPE": 100,
  "RepetitionTime": 2,
  "SAR": 0.0787778,
  "ScanOptions": "FS",
  "ScanningSequence": "EP",
  "SequenceName": "_epfid2d1_100",
  "SequenceVariant": "SK",
  "SeriesDescription": "bold_100x100_s3_2x2x2_232",
  "SeriesNumber": 10,
  "ShimSetting": [-5460, -11469, -1291, 255, 16, -162, -168, 24],
  "SliceThickness": 2,
  "SliceTiming": [1.485, 0, 0.99, 0.0825, 1.0725, 0.165, 1.155, 0.2475, 1.2375, 0.33, 1.32, 0.4125, 1.4025, 0.5775, 1.5675, 0.66, 1.65, 0.7425, 1.7325, 0.825, 1.815, 0.9075, 1.8975, 0.495, 1.485, 0, 0.99, 0.0825, 1.0725, 0.165, 1.155, 0.2475, 1.2375, 0.33, 1.32, 0.4125, 1.4025, 0.5775, 1.5675, 0.66, 1.65, 0.7425, 1.7325, 0.825, 1.815, 0.9075, 1.8975, 0.495, 1.485, 0, 0.99, 0.0825, 1.0725, 0.165, 1.155, 0.2475, 1.2375, 0.33, 1.32, 0.4125, 1.4025, 0.5775, 1.5675, 0.66, 1.65, 0.7425, 1.7325, 0.825, 1.815, 0.9075, 1.8975, 0.495],
  "SoftwareVersions": "syngo_MR_E11",
  "SpacingBetweenSlices": 2,
  "StationName": "AWP166078",
  "TaskName": "motor",
  "TotalReadoutTime": 0.0534586,
  "TxRefAmp": 218.708,
  "dcmmeta_affine": [
    [-1.9995611906051636, -0.04188479110598564, -0.0006983785424381495, 103.91352844238281],
    [-0.04116873815655708, 1.970994234085083, -0.3368781805038452, -76.87960815429688],
    [-0.007743285968899727, 0.33678990602493286, 1.9714239835739136, -94.23368072509766],
    [0.0, 0.0, 0.0, 1.0]
],
  "dcmmeta_reorient_transform": [
    [0.0, -1.0, 0.0, 99.0],
    [1.0, 0.0, 0.0, 0.0],
    [0.0, 0.0, 1.0, 0.0],
    [0.0, 0.0, 0.0, 1.0]
],
  "dcmmeta_shape": [100, 100, 72, 232],
  "dcmmeta_slice_dim": 2,
  "dcmmeta_version": 0.6,
  "global": {
    "const": {
      "AcquisitionMatrix": [100, 0, 0, 100],
      "AngioFlag": "N",
      "BitsAllocated": 16,
      "BitsStored": 12,
      "BodyPartExamined": "BRAIN",
      "Columns": 900,
      "EchoNumbers": 1,
      "EchoTime": 34.0,
      "EchoTrainLength": 100,
      "FlipAngle": 90.0,
      "HighBit": 11,
      "ImageOrientationPatient": [0.99978062300226, 0.02058436905406, -0.0038716430435, -0.0209423956622, 0.98549711172408, -0.1683949489962],
      "ImagePositionPatient": [-882.83751584456, -923.11400156934, 76.921791661417],
      "ImageType": [
        "ORIGINAL",
        "PRIMARY",
        "M",
        "ND",
        "MOSAIC"
],
      "ImagedNucleus": "1H",
      "ImagingFrequency": 123.257832,
      "InPlanePhaseEncodingDirection": "COL",
      "MRAcquisitionType": "2D",
      "MagneticFieldStrength": 3.0,
      "Manufacturer": "SIEMENS",
      "ManufacturerModelName": "Prisma",
      "Modality": "MR",
      "NumberOfAverages": 1.0,
      "NumberOfPhaseEncodingSteps": 100,
      "PercentPhaseFieldOfView": 100.0,
      "PercentSampling": 100.0,
      "PerformedProcedureStepStartTime": "085317.575000",
      "PhotometricInterpretation": "MONOCHROME2",
      "PixelBandwidth": 2380.0,
      "PixelRepresentation": 0,
      "PixelSpacing": [2.0, 2.0],
      "ProtocolName": "bold_100x100_s3_2x2x2_232",
      "RepetitionTime": 2000.0,
      "Rows": 900,
      "SAR": 0.07877778500766,
      "SamplesPerPixel": 1,
      "ScanOptions": "FS",
      "ScanningSequence": "EP",
      "SequenceName": "*epfid2d1_100",
      "SequenceVariant": "SK",
      "SeriesDescription": "bold_100x100_s3_2x2x2_232",
      "SeriesNumber": 10,
      "SeriesTime": "093558.091000",
      "SliceLocation": -79.974025102065,
      "SliceThickness": 2.0,
      "SmallestImagePixelValue": 0,
      "SoftwareVersions": "syngo MR E11",
      "SpacingBetweenSlices": 1.9999999877209,
      "SpecificCharacterSet": "ISO_IR 100",
      "StudyID": "1",
      "StudyTime": "085317.426000",
      "TransmitCoilName": "Body",
      "VariableFlipAngleFlag": "N",
      "WindowCenterWidthExplanation": "Algo1",
      "dBdt": 0.0},
    "slices": {}
  },
  "time": {
    "samples": {
      "AcquisitionNumber": [1, 2, 3, 4, 5, 6, 7, 8, 9, 10, 11, 12, 13, 14, 15, 16, 17, 18, 19, 20, 21, 22, 23, 24, 25, 26, 27, 28, 29, 30, 31, 32, 33, 34, 35, 36, 37, 38, 39, 40, 41, 42, 43, 44, 45, 46, 47, 48, 49, 50, 51, 52, 53, 54, 55, 56, 57, 58, 59, 60, 61, 62, 63, 64, 65, 66, 67, 68, 69, 70, 71, 72, 73, 74, 75, 76, 77, 78, 79, 80, 81, 82, 83, 84, 85, 86, 87, 88, 89, 90, 91, 92, 93, 94, 95, 96, 97, 98, 99, 100, 101, 102, 103, 104, 105, 106, 107, 108, 109, 110, 111, 112, 113, 114, 115, 116, 117, 118, 119, 120, 121, 122, 123, 124, 125, 126, 127, 128, 129, 130, 131, 132, 133, 134, 135, 136, 137, 138, 139, 140, 141, 142, 143, 144, 145, 146, 147, 148, 149, 150, 151, 152, 153, 154, 155, 156, 157, 158, 159, 160, 161, 162, 163, 164, 165, 166, 167, 168, 169, 170, 171, 172, 173, 174, 175, 176, 177, 178, 179, 180, 181, 182, 183, 184, 185, 186, 187, 188, 189, 190, 191, 192, 193, 194, 195, 196, 197, 198, 199, 200, 201, 202, 203, 204, 205, 206, 207, 208, 209, 210, 211, 212, 213, 214, 215, 216, 217, 218, 219, 220, 221, 222, 223, 224, 225, 226, 227, 228, 229, 230, 231, 232],
      "AcquisitionTime": ["093555.372500", "093557.372500", "093559.372500", "093601.372500", "093603.372500", "093605.372500", "093607.372500", "093609.372500", "093611.372500", "093613.372500", "093615.372500", "093617.372500", "093619.372500", "093621.372500", "093623.372500", "093625.372500", "093627.372500", "093629.372500", "093631.372500", "093633.372500", "093635.372500", "093637.372500", "093639.372500", "093641.372500", "093643.372500", "093645.372500", "093647.372500", "093649.372500", "093651.372500", "093653.372500", "093655.372500", "093657.372500", "093659.372500", "093701.372500", "093703.372500", "093705.372500", "093707.372500", "093709.372500", "093711.372500", "093713.372500", "093715.372500", "093717.372500", "093719.372500", "093721.372500", "093723.372500", "093725.372500", "093727.372500", "093729.372500", "093731.372500", "093733.372500", "093735.372500", "093737.372500", "093739.372500", "093741.372500", "093743.372500", "093745.372500", "093747.372500", "093749.372500", "093751.372500", "093753.372500", "093755.372500", "093757.372500", "093759.372500", "093801.372500", "093803.372500", "093805.372500", "093807.372500", "093809.372500", "093811.372500", "093813.372500", "093815.372500", "093817.372500", "093819.372500", "093821.372500", "093823.372500", "093825.372500", "093827.372500", "093829.372500", "093831.372500", "093833.372500", "093835.372500", "093837.372500", "093839.372500", "093841.372500", "093843.372500", "093845.372500", "093847.372500", "093849.372500", "093851.372500", "093853.372500", "093855.372500", "093857.372500", "093859.372500", "093901.372500", "093903.372500", "093905.372500", "093907.372500", "093909.372500", "093911.372500", "093913.372500", "093915.372500", "093917.372500", "093919.372500", "093921.372500", "093923.372500", "093925.372500", "093927.372500", "093929.372500", "093931.372500", "093933.372500", "093935.372500", "093937.372500", "093939.372500", "093941.372500", "093943.372500", "093945.372500", "093947.372500", "093949.372500", "093951.372500", "093953.372500", "093955.372500", "093957.372500", "093959.372500", "094001.372500", "094003.372500", "094005.372500", "094007.372500", "094009.372500", "094011.372500", "094013.372500", "094015.372500", "094017.372500", "094019.372500", "094021.372500", "094023.372500", "094025.372500", "094027.372500", "094029.372500", "094031.372500", "094033.372500", "094035.372500", "094037.372500", "094039.372500", "094041.372500", "094043.372500", "094045.372500", "094047.372500", "094049.372500", "094051.372500", "094053.372500", "094055.372500", "094057.372500", "094059.372500", "094101.372500", "094103.372500", "094105.372500", "094107.372500", "094109.372500", "094111.372500", "094113.372500", "094115.372500", "094117.372500", "094119.372500", "094121.372500", "094123.372500", "094125.372500", "094127.372500", "094129.372500", "094131.372500", "094133.372500", "094135.372500", "094137.372500", "094139.372500", "094141.372500", "094143.372500", "094145.372500", "094147.372500", "094149.372500", "094151.372500", "094153.372500", "094155.372500", "094157.372500", "094159.372500", "094201.372500", "094203.372500", "094205.372500", "094207.372500", "094209.372500", "094211.372500", "094213.372500", "094215.372500", "094217.372500", "094219.372500", "094221.372500", "094223.372500", "094225.372500", "094227.372500", "094229.372500", "094231.372500", "094233.372500", "094235.372500", "094237.372500", "094239.372500", "094241.372500", "094243.372500", "094245.372500", "094247.372500", "094249.372500", "094251.372500", "094253.372500", "094255.372500", "094257.372500", "094259.372500", "094301.372500", "094303.372500", "094305.372500", "094307.372500", "094309.372500", "094311.372500", "094313.372500", "094315.372500", "094317.372500", "094319.372500", "094321.372500", "094323.372500", "094325.372500", "094327.372500", "094329.372500", "094331.372500", "094333.372500", "094335.372500", "094337.372500"],
      "ContentTime": ["093558.094000", "093559.591000", "093601.591000", "093603.590000", "093605.591000", "093607.591000", "093609.591000", "093611.591000", "093613.591000", "093615.591000", "093617.591000", "093620.091000", "093621.591000", "093623.591000", "093625.591000", "093627.591000", "093629.591000", "093631.591000", "093633.590000", "093635.590000", "093637.590000", "093639.591000", "093641.591000", "093643.591000", "093645.591000", "093647.591000", "093649.591000", "093651.590000", "093653.591000", "093655.590000", "093657.591000", "093659.591000", "093701.591000", "093703.591000", "093705.591000", "093707.591000", "093709.591000", "093711.590000", "093713.591000", "093715.591000", "093717.591000", "093719.591000", "093721.591000", "093723.591000", "093725.591000", "093727.590000", "093729.590000", "093731.591000", "093733.591000", "093735.591000", "093737.591000", "093739.591000", "093741.591000", "093743.590000", "093745.591000", "093747.590000", "093749.591000", "093751.591000", "093753.591000", "093755.591000", "093757.591000", "093759.591000", "093801.591000", "093803.590000", "093805.590000", "093807.591000", "093809.591000", "093811.591000", "093813.591000", "093815.591000", "093817.590000", "093819.591000", "093821.590000", "093823.591000", "093825.591000", "093827.591000", "093829.591000", "093831.591000", "093833.591000", "093835.590000", "093837.591000", "093839.590000", "093841.591000", "093843.591000", "093845.591000", "093847.591000", "093849.591000", "093851.591000", "093853.590000", "093855.591000", "093857.590000", "093859.591000", "093901.591000", "093903.591000", "093905.591000", "093908.092000", "093909.591000", "093911.590000", "093913.590000", "093915.590000", "093917.591000", "093919.591000", "093921.591000", "093923.591000", "093925.591000", "093927.590000", "093929.591000", "093931.590000", "093933.591000", "093935.591000", "093937.591000", "093939.591000", "093941.591000", "093943.591000", "093945.590000", "093947.591000", "093949.590000", "093951.591000", "093953.591000", "093955.591000", "093957.591000", "093959.591000", "094001.591000", "094003.590000", "094005.590000", "094007.590000", "094009.591000", "094011.591000", "094013.591000", "094015.591000", "094017.591000", "094019.591000", "094021.591000", "094023.590000", "094025.590000", "094027.591000", "094029.591000", "094031.591000", "094033.591000", "094035.591000", "094037.591000", "094039.590000", "094041.591000", "094043.591000", "094045.591000", "094047.591000", "094049.591000", "094051.591000", "094053.591000", "094055.591000", "094058.091000", "094059.591000", "094101.591000", "094104.091000", "094105.591000", "094107.591000", "094109.591000", "094111.591000", "094113.591000", "094115.590000", "094117.591000", "094119.591000", "094121.591000", "094123.591000", "094125.591000", "094127.591000", "094129.591000", "094131.590000", "094133.591000", "094135.591000", "094137.591000", "094139.591000", "094141.591000", "094143.591000", "094145.591000", "094147.590000", "094149.591000", "094151.591000", "094153.591000", "094155.591000", "094157.591000", "094159.591000", "094201.591000", "094203.591000", "094205.590000", "094207.590000", "094209.591000", "094211.591000", "094213.591000", "094215.591000", "094217.591000", "094219.591000", "094221.591000", "094224.091000", "094225.591000", "094227.590000", "094229.591000", "094231.591000", "094233.591000", "094235.591000", "094237.591000", "094239.591000", "094241.590000", "094243.591000", "094245.590000", "094247.591000", "094249.591000", "094251.591000", "094253.591000", "094255.591000", "094257.590000", "094259.590000", "094301.590000", "094303.591000", "094305.591000", "094307.591000", "094309.591000", "094311.591000", "094313.591000", "094315.591000", "094317.590000", "094319.590000", "094321.591000", "094323.591000", "094325.591000", "094327.591000", "094329.591000", "094331.591000", "094333.590000", "094335.590000", "094337.590000", "094339.452000"],
      "InstanceCreationTime": ["093558.094000", "093559.591000", "093601.591000", "093603.590000", "093605.591000", "093607.591000", "093609.591000", "093611.591000", "093613.591000", "093615.591000", "093617.591000", "093620.091000", "093621.591000", "093623.591000", "093625.591000", "093627.591000", "093629.591000", "093631.591000", "093633.590000", "093635.590000", "093637.590000", "093639.591000", "093641.591000", "093643.591000", "093645.591000", "093647.591000", "093649.591000", "093651.590000", "093653.591000", "093655.590000", "093657.591000", "093659.591000", "093701.591000", "093703.591000", "093705.591000", "093707.591000", "093709.591000", "093711.590000", "093713.591000", "093715.591000", "093717.591000", "093719.591000", "093721.591000", "093723.591000", "093725.591000", "093727.590000", "093729.590000", "093731.591000", "093733.591000", "093735.591000", "093737.591000", "093739.591000", "093741.591000", "093743.590000", "093745.591000", "093747.590000", "093749.591000", "093751.591000", "093753.591000", "093755.591000", "093757.591000", "093759.591000", "093801.591000", "093803.590000", "093805.590000", "093807.591000", "093809.591000", "093811.591000", "093813.591000", "093815.591000", "093817.590000", "093819.591000", "093821.590000", "093823.591000", "093825.591000", "093827.591000", "093829.591000", "093831.591000", "093833.591000", "093835.590000", "093837.591000", "093839.590000", "093841.591000", "093843.591000", "093845.591000", "093847.591000", "093849.591000", "093851.591000", "093853.590000", "093855.591000", "093857.590000", "093859.591000", "093901.591000", "093903.591000", "093905.591000", "093908.092000", "093909.591000", "093911.590000", "093913.590000", "093915.590000", "093917.591000", "093919.591000", "093921.591000", "093923.591000", "093925.591000", "093927.590000", "093929.591000", "093931.590000", "093933.591000", "093935.591000", "093937.591000", "093939.591000", "093941.591000", "093943.591000", "093945.590000", "093947.591000", "093949.590000", "093951.591000", "093953.591000", "093955.591000", "093957.591000", "093959.591000", "094001.591000", "094003.590000", "094005.590000", "094007.590000", "094009.591000", "094011.591000", "094013.591000", "094015.591000", "094017.591000", "094019.591000", "094021.591000", "094023.590000", "094025.590000", "094027.591000", "094029.591000", "094031.591000", "094033.591000", "094035.591000", "094037.591000", "094039.590000", "094041.591000", "094043.591000", "094045.591000", "094047.591000", "094049.591000", "094051.591000", "094053.591000", "094055.591000", "094058.091000", "094059.591000", "094101.591000", "094104.091000", "094105.591000", "094107.591000", "094109.591000", "094111.591000", "094113.591000", "094115.590000", "094117.591000", "094119.591000", "094121.591000", "094123.591000", "094125.591000", "094127.591000", "094129.591000", "094131.590000", "094133.591000", "094135.591000", "094137.591000", "094139.591000", "094141.591000", "094143.591000", "094145.591000", "094147.590000", "094149.591000", "094151.591000", "094153.591000", "094155.591000", "094157.591000", "094159.591000", "094201.591000", "094203.591000", "094205.590000", "094207.590000", "094209.591000", "094211.591000", "094213.591000", "094215.591000", "094217.591000", "094219.591000", "094221.591000", "094224.091000", "094225.591000", "094227.590000", "094229.591000", "094231.591000", "094233.591000", "094235.591000", "094237.591000", "094239.591000", "094241.590000", "094243.591000", "094245.590000", "094247.591000", "094249.591000", "094251.591000", "094253.591000", "094255.591000", "094257.590000", "094259.590000", "094301.590000", "094303.591000", "094305.591000", "094307.591000", "094309.591000", "094311.591000", "094313.591000", "094315.591000", "094317.590000", "094319.590000", "094321.591000", "094323.591000", "094325.591000", "094327.591000", "094329.591000", "094331.591000", "094333.590000", "094335.590000", "094337.590000", "094339.452000"],
      "InstanceNumber": [1, 2, 3, 4, 5, 6, 7, 8, 9, 10, 11, 12, 13, 14, 15, 16, 17, 18, 19, 20, 21, 22, 23, 24, 25, 26, 27, 28, 29, 30, 31, 32, 33, 34, 35, 36, 37, 38, 39, 40, 41, 42, 43, 44, 45, 46, 47, 48, 49, 50, 51, 52, 53, 54, 55, 56, 57, 58, 59, 60, 61, 62, 63, 64, 65, 66, 67, 68, 69, 70, 71, 72, 73, 74, 75, 76, 77, 78, 79, 80, 81, 82, 83, 84, 85, 86, 87, 88, 89, 90, 91, 92, 93, 94, 95, 96, 97, 98, 99, 100, 101, 102, 103, 104, 105, 106, 107, 108, 109, 110, 111, 112, 113, 114, 115, 116, 117, 118, 119, 120, 121, 122, 123, 124, 125, 126, 127, 128, 129, 130, 131, 132, 133, 134, 135, 136, 137, 138, 139, 140, 141, 142, 143, 144, 145, 146, 147, 148, 149, 150, 151, 152, 153, 154, 155, 156, 157, 158, 159, 160, 161, 162, 163, 164, 165, 166, 167, 168, 169, 170, 171, 172, 173, 174, 175, 176, 177, 178, 179, 180, 181, 182, 183, 184, 185, 186, 187, 188, 189, 190, 191, 192, 193, 194, 195, 196, 197, 198, 199, 200, 201, 202, 203, 204, 205, 206, 207, 208, 209, 210, 211, 212, 213, 214, 215, 216, 217, 218, 219, 220, 221, 222, 223, 224, 225, 226, 227, 228, 229, 230, 231, 232],
      "LargestImagePixelValue": [3084, 2994, 3002, 3012, 3025, 3002, 2994, 3010, 3005, 3038, 3074, 3060, 3027, 3033, 3006, 2996, 2944, 2949, 2956, 2992, 2953, 2939, 2934, 2944, 2993, 2936, 2949, 3018, 3068, 3040, 2974, 2971, 2978, 3024, 2972, 3038, 3027, 3054, 2979, 3048, 2972, 3035, 2987, 2898, 3034, 2887, 3120, 2952, 3024, 2993, 2999, 3126, 3004, 2967, 2958, 2964, 2899, 2913, 2932, 2958, 2910, 2953, 2947, 2982, 2926, 2912, 2910, 2956, 2947, 2964, 2934, 2939, 2940, 2945, 2949, 2959, 2939, 2958, 3003, 2945, 2959, 2904, 2985, 2955, 2948, 2932, 2963, 2963, 2961, 2973, 2960, 3036, 2941, 2923, 2961, 2979, 2969, 2978, 2955, 3096, 2974, 2998, 3046, 2899, 3138, 2984, 3035, 3037, 3006, 3086, 3056, 3054, 3050, 3031, 3110, 3103, 2999, 3031, 2999, 2983, 2953, 2931, 2883, 2917, 2921, 2970, 3050, 3036, 2957, 2995, 2956, 2938, 3170, 2856, 3230, 2943, 2936, 2914, 2931, 3003, 3032, 3029, 3054, 3026, 3058, 3029, 2984, 3047, 3016, 3034, 3040, 3064, 3079, 3057, 3000, 2946, 2977, 2943, 2959, 2952, 2973, 2927, 3035, 3005, 2996, 3190, 2998, 2913, 2932, 2960, 2971, 2884, 2947, 2980, 2936, 3309, 3033, 3023, 3002, 3024, 2927, 3021, 3001, 3000, 2963, 3091, 3123, 3003, 3021, 3134, 2986, 2806, 3087, 3001, 2921, 2991, 2940, 2980, 2922, 3013, 2970, 2928, 3008, 2976, 2939, 3056, 3039, 3039, 3076, 3061, 2927, 2929, 3022, 3037, 3074, 2979, 2997, 3083, 3020, 3021, 3035, 2992, 3029, 2999, 2957, 2989, 3045, 3000, 3196, 3039, 3043, 2967],
      "WindowCenter": [773.0, 771.0, 771.0, 771.0, 771.0, 771.0, 771.0, 771.0, 771.0, 771.0, 772.0, 773.0, 772.0, 772.0, 772.0, 772.0, 771.0, 771.0, 770.0, 771.0, 771.0, 771.0, 771.0, 771.0, 771.0, 771.0, 771.0, 772.0, 771.0, 770.0, 770.0, 769.0, 770.0, 771.0, 773.0, 774.0, 773.0, 771.0, 770.0, 771.0, 771.0, 774.0, 768.0, 770.0, 769.0, 768.0, 771.0, 770.0, 772.0, 773.0, 772.0, 774.0, 774.0, 774.0, 773.0, 771.0, 770.0, 770.0, 770.0, 770.0, 770.0, 770.0, 770.0, 770.0, 769.0, 769.0, 769.0, 770.0, 771.0, 771.0, 770.0, 770.0, 771.0, 771.0, 771.0, 770.0, 770.0, 771.0, 771.0, 770.0, 771.0, 770.0, 771.0, 771.0, 771.0, 771.0, 772.0, 772.0, 772.0, 772.0, 772.0, 771.0, 770.0, 769.0, 769.0, 770.0, 769.0, 768.0, 766.0, 768.0, 767.0, 771.0, 771.0, 768.0, 773.0, 772.0, 773.0, 773.0, 772.0, 772.0, 773.0, 773.0, 774.0, 773.0, 773.0, 773.0, 772.0, 773.0, 772.0, 769.0, 767.0, 767.0, 767.0, 768.0, 768.0, 769.0, 771.0, 773.0, 770.0, 769.0, 771.0, 769.0, 772.0, 763.0, 778.0, 771.0, 771.0, 772.0, 772.0, 773.0, 773.0, 772.0, 773.0, 772.0, 773.0, 773.0, 772.0, 771.0, 771.0, 771.0, 771.0, 772.0, 772.0, 772.0, 772.0, 772.0, 772.0, 772.0, 773.0, 773.0, 772.0, 771.0, 773.0, 772.0, 770.0, 772.0, 770.0, 771.0, 769.0, 768.0, 766.0, 765.0, 766.0, 768.0, 762.0, 773.0, 771.0, 772.0, 773.0, 774.0, 773.0, 773.0, 773.0, 773.0, 772.0, 770.0, 775.0, 773.0, 767.0, 774.0, 771.0, 764.0, 775.0, 775.0, 774.0, 775.0, 774.0, 775.0, 773.0, 773.0, 773.0, 772.0, 773.0, 772.0, 770.0, 769.0, 770.0, 771.0, 770.0, 768.0, 764.0, 763.0, 764.0, 766.0, 767.0, 767.0, 767.0, 769.0, 770.0, 771.0, 770.0, 769.0, 767.0, 769.0, 772.0, 772.0, 773.0, 772.0, 773.0, 771.0, 773.0, 773.0],
      "WindowWidth": [1677.0, 1672.0, 1671.0, 1670.0, 1670.0, 1670.0, 1670.0, 1670.0, 1671.0, 1671.0, 1674.0, 1675.0, 1675.0, 1674.0, 1672.0, 1672.0, 1670.0, 1670.0, 1669.0, 1670.0, 1670.0, 1670.0, 1669.0, 1670.0, 1670.0, 1671.0, 1671.0, 1673.0, 1670.0, 1668.0, 1668.0, 1664.0, 1668.0, 1670.0, 1675.0, 1678.0, 1674.0, 1671.0, 1667.0, 1670.0, 1670.0, 1678.0, 1663.0, 1668.0, 1666.0, 1661.0, 1671.0, 1668.0, 1673.0, 1675.0, 1674.0, 1678.0, 1679.0, 1679.0, 1676.0, 1671.0, 1667.0, 1665.0, 1667.0, 1666.0, 1666.0, 1666.0, 1667.0, 1666.0, 1664.0, 1665.0, 1665.0, 1667.0, 1669.0, 1669.0, 1668.0, 1668.0, 1670.0, 1671.0, 1670.0, 1668.0, 1668.0, 1670.0, 1670.0, 1667.0, 1669.0, 1667.0, 1669.0, 1669.0, 1670.0, 1670.0, 1672.0, 1672.0, 1674.0, 1674.0, 1672.0, 1670.0, 1667.0, 1665.0, 1665.0, 1668.0, 1664.0, 1662.0, 1656.0, 1663.0, 1659.0, 1670.0, 1670.0, 1663.0, 1675.0, 1672.0, 1675.0, 1675.0, 1674.0, 1674.0, 1675.0, 1677.0, 1678.0, 1676.0, 1676.0, 1676.0, 1674.0, 1676.0, 1671.0, 1664.0, 1658.0, 1659.0, 1658.0, 1661.0, 1663.0, 1665.0, 1671.0, 1674.0, 1667.0, 1667.0, 1669.0, 1666.0, 1673.0, 1649.0, 1689.0, 1671.0, 1670.0, 1672.0, 1672.0, 1674.0, 1674.0, 1674.0, 1676.0, 1673.0, 1675.0, 1674.0, 1673.0, 1671.0, 1669.0, 1670.0, 1670.0, 1672.0, 1671.0, 1674.0, 1674.0, 1674.0, 1672.0, 1672.0, 1674.0, 1674.0, 1673.0, 1671.0, 1674.0, 1674.0, 1669.0, 1672.0, 1666.0, 1669.0, 1665.0, 1661.0, 1656.0, 1652.0, 1655.0, 1660.0, 1643.0, 1677.0, 1669.0, 1671.0, 1676.0, 1679.0, 1675.0, 1676.0, 1675.0, 1677.0, 1673.0, 1667.0, 1683.0, 1675.0, 1661.0, 1678.0, 1671.0, 1651.0, 1682.0, 1679.0, 1679.0, 1680.0, 1679.0, 1680.0, 1676.0, 1676.0, 1673.0, 1673.0, 1675.0, 1672.0, 1667.0, 1665.0, 1667.0, 1669.0, 1666.0, 1660.0, 1651.0, 1646.0, 1649.0, 1656.0, 1657.0, 1657.0, 1657.0, 1662.0, 1667.0, 1667.0, 1666.0, 1662.0, 1658.0, 1665.0, 1670.0, 1673.0, 1674.0, 1672.0, 1675.0, 1669.0, 1674.0, 1673.0]
    },
    "slices": {}
  }
}