{
  "AcquisitionMatrixPE": 100,
  "AcquisitionNumber": 1,
  "AcquisitionTime": "09:53:16.167500",
  "BandwidthPerPixelPhaseEncode": 18.519,
  "BaseResolution": 100,
  "BodyPartExamined": "BRAIN",
  "ConsistencyInfo": "N4_VE11C_LATEST_20160120",
  "ConversionSoftware": "dcm2niix",
  "ConversionSoftwareVersion": "v1.0.20180622 GCC4.9.2",
  "DerivedVendorReportedEchoSpacing": 0.000539986,
  "DeviceSerialNumber": "166078",
  "DwellTime": 2.1e-06,
  "EchoTime": 0.034,
  "EchoTrainLength": 100,
  "EffectiveEchoSpacing": 0.000539986,
  "FlipAngle": 90,
  "ImageOrientationPatientDICOM": [0.999781, 0.0205844, -0.00387164, -0.0209424, 0.985497, -0.168395],
  "ImageType": [
    "ORIGINAL",
    "PRIMARY",
    "M",
    "ND",
    "MOSAIC"
],
  "InPlanePhaseEncodingDirectionDICOM": "COL",
  "InstitutionAddress": "Street_StreetNo_Bei_Jing_District_CN_ZIP",
  "InstitutionName": "BeiJing_Normal_University",
  "InstitutionalDepartmentName": "Department",
  "MRAcquisitionType": "2D",
  "MagneticFieldStrength": 3,
  "Manufacturer": "Siemens",
  "ManufacturersModelName": "Prisma",
  "Modality": "MR",
  "MultibandAccelerationFactor": 3,
  "PartialFourier": 1,
  "PatientPosition": "HFS",
  "PercentPhaseFOV": 100,
  "PhaseEncodingDirection": "j-",
  "PhaseEncodingSteps": 100,
  "PhaseResolution": 1,
  "PixelBandwidth": 2380,
  "ProcedureStepDescription": "BNU_P2018_64CH_Liu.Jia",
  "ProtocolName": "bold_100x100_s3_2x2x2_232",
  "PulseSequenceDetails": "%SiemensSeq%_ep2d_bold",
  "ReceiveCoilActiveElements": "HC1-7;NC1",
  "ReceiveCoilName": "HeadNeck_64",
  "ReconMatrixPE": 100,
  "RepetitionTime": 2,
  "SAR": 0.0787778,
  "ScanOptions": "FS",
  "ScanningSequence": "EP",
  "SequenceName": "_epfid2d1_100",
  "SequenceVariant": "SK",
  "SeriesDescription": "bold_100x100_s3_2x2x2_232",
  "SeriesNumber": 12,
  "ShimSetting": [-5460, -11469, -1291, 255, 16, -162, -168, 24],
  "SliceThickness": 2,
  "SliceTiming": [1.485, 0, 0.99, 0.0825, 1.0725, 0.165, 1.155, 0.2475, 1.2375, 0.33, 1.32, 0.4125, 1.4025, 0.5775, 1.5675, 0.66, 1.65, 0.7425, 1.7325, 0.825, 1.815, 0.9075, 1.895, 0.495, 1.485, 0, 0.99, 0.0825, 1.0725, 0.165, 1.155, 0.2475, 1.2375, 0.33, 1.32, 0.4125, 1.4025, 0.5775, 1.5675, 0.66, 1.65, 0.7425, 1.7325, 0.825, 1.815, 0.9075, 1.895, 0.495, 1.485, 0, 0.99, 0.0825, 1.0725, 0.165, 1.155, 0.2475, 1.2375, 0.33, 1.32, 0.4125, 1.4025, 0.5775, 1.5675, 0.66, 1.65, 0.7425, 1.7325, 0.825, 1.815, 0.9075, 1.895, 0.495],
  "SoftwareVersions": "syngo_MR_E11",
  "SpacingBetweenSlices": 2,
  "StationName": "AWP166078",
  "TaskName": "motor",
  "TotalReadoutTime": 0.0534586,
  "TxRefAmp": 218.708,
  "dcmmeta_affine": [
    [-1.9995611906051636, -0.04188479110598564, -0.0006983785424381495, 103.91352844238281],
    [-0.04116873815655708, 1.970994234085083, -0.3368781805038452, -76.87960815429688],
    [-0.007743285968899727, 0.33678990602493286, 1.9714239835739136, -94.23368072509766],
    [0.0, 0.0, 0.0, 1.0]
],
  "dcmmeta_reorient_transform": [
    [0.0, -1.0, 0.0, 99.0],
    [1.0, 0.0, 0.0, 0.0],
    [0.0, 0.0, 1.0, 0.0],
    [0.0, 0.0, 0.0, 1.0]
],
  "dcmmeta_shape": [100, 100, 72, 232],
  "dcmmeta_slice_dim": 2,
  "dcmmeta_version": 0.6,
  "global": {
    "const": {
      "AcquisitionMatrix": [100, 0, 0, 100],
      "AngioFlag": "N",
      "BitsAllocated": 16,
      "BitsStored": 12,
      "BodyPartExamined": "BRAIN",
      "Columns": 900,
      "EchoNumbers": 1,
      "EchoTime": 34.0,
      "EchoTrainLength": 100,
      "FlipAngle": 90.0,
      "HighBit": 11,
      "ImageOrientationPatient": [0.99978062300226, 0.02058436905406, -0.0038716430435, -0.0209423956622, 0.98549711172408, -0.1683949489962],
      "ImagePositionPatient": [-882.83751584456, -923.11400156934, 76.921791661417],
      "ImageType": [
        "ORIGINAL",
        "PRIMARY",
        "M",
        "ND",
        "MOSAIC"
],
      "ImagedNucleus": "1H",
      "ImagingFrequency": 123.257844,
      "InPlanePhaseEncodingDirection": "COL",
      "MRAcquisitionType": "2D",
      "MagneticFieldStrength": 3.0,
      "Manufacturer": "SIEMENS",
      "ManufacturerModelName": "Prisma",
      "Modality": "MR",
      "NumberOfAverages": 1.0,
      "NumberOfPhaseEncodingSteps": 100,
      "PercentPhaseFieldOfView": 100.0,
      "PercentSampling": 100.0,
      "PerformedProcedureStepStartTime": "085317.575000",
      "PhotometricInterpretation": "MONOCHROME2",
      "PixelBandwidth": 2380.0,
      "PixelRepresentation": 0,
      "PixelSpacing": [2.0, 2.0],
      "ProtocolName": "bold_100x100_s3_2x2x2_232",
      "RepetitionTime": 2000.0,
      "Rows": 900,
      "SAR": 0.07877778500766,
      "SamplesPerPixel": 1,
      "ScanOptions": "FS",
      "ScanningSequence": "EP",
      "SequenceName": "*epfid2d1_100",
      "SequenceVariant": "SK",
      "SeriesDescription": "bold_100x100_s3_2x2x2_232",
      "SeriesNumber": 12,
      "SeriesTime": "095319.221000",
      "SliceLocation": -79.974025102065,
      "SliceThickness": 2.0,
      "SmallestImagePixelValue": 0,
      "SoftwareVersions": "syngo MR E11",
      "SpacingBetweenSlices": 1.9999999877209,
      "SpecificCharacterSet": "ISO_IR 100",
      "StudyID": "1",
      "StudyTime": "085317.426000",
      "TransmitCoilName": "Body",
      "VariableFlipAngleFlag": "N",
      "WindowCenterWidthExplanation": "Algo1",
      "dBdt": 0.0},
    "slices": {}
  },
  "time": {
    "samples": {
      "AcquisitionNumber": [1, 2, 3, 4, 5, 6, 7, 8, 9, 10, 11, 12, 13, 14, 15, 16, 17, 18, 19, 20, 21, 22, 23, 24, 25, 26, 27, 28, 29, 30, 31, 32, 33, 34, 35, 36, 37, 38, 39, 40, 41, 42, 43, 44, 45, 46, 47, 48, 49, 50, 51, 52, 53, 54, 55, 56, 57, 58, 59, 60, 61, 62, 63, 64, 65, 66, 67, 68, 69, 70, 71, 72, 73, 74, 75, 76, 77, 78, 79, 80, 81, 82, 83, 84, 85, 86, 87, 88, 89, 90, 91, 92, 93, 94, 95, 96, 97, 98, 99, 100, 101, 102, 103, 104, 105, 106, 107, 108, 109, 110, 111, 112, 113, 114, 115, 116, 117, 118, 119, 120, 121, 122, 123, 124, 125, 126, 127, 128, 129, 130, 131, 132, 133, 134, 135, 136, 137, 138, 139, 140, 141, 142, 143, 144, 145, 146, 147, 148, 149, 150, 151, 152, 153, 154, 155, 156, 157, 158, 159, 160, 161, 162, 163, 164, 165, 166, 167, 168, 169, 170, 171, 172, 173, 174, 175, 176, 177, 178, 179, 180, 181, 182, 183, 184, 185, 186, 187, 188, 189, 190, 191, 192, 193, 194, 195, 196, 197, 198, 199, 200, 201, 202, 203, 204, 205, 206, 207, 208, 209, 210, 211, 212, 213, 214, 215, 216, 217, 218, 219, 220, 221, 222, 223, 224, 225, 226, 227, 228, 229, 230, 231, 232],
      "AcquisitionTime": ["095316.167500", "095318.167500", "095320.167500", "095322.167500", "095324.167500", "095326.167500", "095328.167500", "095330.167500", "095332.167500", "095334.167500", "095336.167500", "095338.167500", "095340.167500", "095342.167500", "095344.167500", "095346.167500", "095348.167500", "095350.167500", "095352.167500", "095354.167500", "095356.167500", "095358.167500", "095400.167500", "095402.167500", "095404.167500", "095406.167500", "095408.167500", "095410.167500", "095412.167500", "095414.167500", "095416.167500", "095418.167500", "095420.167500", "095422.167500", "095424.167500", "095426.167500", "095428.167500", "095430.167500", "095432.167500", "095434.167500", "095436.167500", "095438.167500", "095440.167500", "095442.167500", "095444.167500", "095446.167500", "095448.167500", "095450.167500", "095452.167500", "095454.167500", "095456.167500", "095458.167500", "095500.167500", "095502.167500", "095504.167500", "095506.167500", "095508.167500", "095510.167500", "095512.167500", "095514.167500", "095516.167500", "095518.167500", "095520.167500", "095522.167500", "095524.167500", "095526.167500", "095528.167500", "095530.167500", "095532.167500", "095534.167500", "095536.167500", "095538.167500", "095540.167500", "095542.167500", "095544.167500", "095546.167500", "095548.167500", "095550.167500", "095552.167500", "095554.167500", "095556.167500", "095558.167500", "095600.167500", "095602.167500", "095604.167500", "095606.167500", "095608.167500", "095610.167500", "095612.167500", "095614.167500", "095616.167500", "095618.167500", "095620.167500", "095622.167500", "095624.167500", "095626.167500", "095628.167500", "095630.167500", "095632.167500", "095634.167500", "095636.167500", "095638.167500", "095640.167500", "095642.167500", "095644.167500", "095646.167500", "095648.167500", "095650.167500", "095652.167500", "095654.167500", "095656.167500", "095658.167500", "095700.167500", "095702.167500", "095704.167500", "095706.167500", "095708.167500", "095710.167500", "095712.167500", "095714.167500", "095716.167500", "095718.167500", "095720.167500", "095722.167500", "095724.167500", "095726.167500", "095728.167500", "095730.167500", "095732.167500", "095734.167500", "095736.167500", "095738.167500", "095740.167500", "095742.167500", "095744.167500", "095746.167500", "095748.167500", "095750.167500", "095752.167500", "095754.167500", "095756.167500", "095758.167500", "095800.167500", "095802.167500", "095804.167500", "095806.167500", "095808.167500", "095810.167500", "095812.167500", "095814.167500", "095816.167500", "095818.167500", "095820.167500", "095822.167500", "095824.167500", "095826.167500", "095828.167500", "095830.167500", "095832.167500", "095834.167500", "095836.167500", "095838.167500", "095840.167500", "095842.167500", "095844.167500", "095846.167500", "095848.167500", "095850.167500", "095852.167500", "095854.167500", "095856.167500", "095858.167500", "095900.167500", "095902.167500", "095904.167500", "095906.167500", "095908.167500", "095910.167500", "095912.167500", "095914.167500", "095916.167500", "095918.167500", "095920.167500", "095922.167500", "095924.167500", "095926.167500", "095928.167500", "095930.167500", "095932.167500", "095934.167500", "095936.167500", "095938.167500", "095940.167500", "095942.167500", "095944.167500", "095946.167500", "095948.167500", "095950.167500", "095952.167500", "095954.167500", "095956.167500", "095958.167500", "100000.167500", "100002.167500", "100004.167500", "100006.167500", "100008.167500", "100010.167500", "100012.167500", "100014.167500", "100016.167500", "100018.167500", "100020.167500", "100022.167500", "100024.167500", "100026.167500", "100028.167500", "100030.167500", "100032.167500", "100034.167500", "100036.167500", "100038.167500", "100040.167500", "100042.167500", "100044.167500", "100046.167500", "100048.167500", "100050.167500", "100052.167500", "100054.167500", "100056.167500", "100058.167500"],
      "ContentTime": ["095319.225000", "095320.721000", "095322.721000", "095324.720000", "095326.720000", "095328.720000", "095330.720000", "095332.721000", "095334.721000", "095336.720000", "095338.721000", "095340.721000", "095342.720000", "095344.721000", "095346.721000", "095348.720000", "095350.720000", "095352.720000", "095354.720000", "095356.721000", "095358.721000", "095400.740000", "095402.721000", "095404.721000", "095406.720000", "095408.721000", "095410.720000", "095412.721000", "095414.720000", "095416.721000", "095418.720000", "095420.721000", "095422.721000", "095424.721000", "095426.720000", "095428.720000", "095430.720000", "095432.721000", "095434.720000", "095436.720000", "095438.720000", "095440.721000", "095442.721000", "095444.720000", "095446.721000", "095448.720000", "095450.721000", "095452.721000", "095454.721000", "095456.720000", "095458.721000", "095500.721000", "095502.720000", "095504.720000", "095506.720000", "095508.720000", "095510.720000", "095512.721000", "095514.720000", "095516.720000", "095518.720000", "095520.721000", "095522.720000", "095524.721000", "095526.721000", "095528.721000", "095530.720000", "095532.720000", "095534.721000", "095536.720000", "095538.720000", "095540.720000", "095542.720000", "095544.720000", "095546.721000", "095548.721000", "095550.720000", "095552.722000", "095554.720000", "095556.721000", "095558.721000", "095600.721000", "095602.720000", "095604.720000", "095606.720000", "095608.721000", "095610.720000", "095612.721000", "095614.720000", "095616.720000", "095618.720000", "095620.720000", "095622.721000", "095624.721000", "095626.721000", "095628.720000", "095630.720000", "095632.720000", "095634.720000", "095636.721000", "095638.721000", "095640.720000", "095642.720000", "095644.720000", "095646.720000", "095648.720000", "095650.721000", "095652.721000", "095654.721000", "095656.721000", "095658.720000", "095700.720000", "095702.721000", "095704.720000", "095706.720000", "095708.721000", "095710.720000", "095712.721000", "095714.721000", "095716.720000", "095718.720000", "095720.720000", "095722.721000", "095724.720000", "095726.721000", "095728.721000", "095730.721000", "095732.721000", "095734.721000", "095736.721000", "095738.720000", "095740.721000", "095742.721000", "095744.720000", "095746.721000", "095748.721000", "095750.721000", "095752.721000", "095754.721000", "095756.720000", "095758.720000", "095800.721000", "095802.721000", "095804.720000", "095806.721000", "095808.720000", "095810.720000", "095812.722000", "095814.721000", "095816.720000", "095818.720000", "095820.720000", "095822.721000", "095824.721000", "095826.720000", "095828.720000", "095830.721000", "095832.721000", "095834.721000", "095836.720000", "095838.721000", "095840.720000", "095842.720000", "095844.721000", "095846.721000", "095848.720000", "095850.721000", "095852.720000", "095854.720000", "095856.720000", "095858.720000", "095900.720000", "095902.720000", "095904.720000", "095906.720000", "095908.720000", "095910.721000", "095912.721000", "095914.720000", "095916.720000", "095918.720000", "095920.720000", "095922.721000", "095924.720000", "095926.720000", "095928.721000", "095930.720000", "095932.721000", "095934.721000", "095936.720000", "095938.720000", "095940.720000", "095942.720000", "095944.720000", "095946.720000", "095948.721000", "095950.720000", "095952.720000", "095954.720000", "095956.721000", "095958.721000", "100000.721000", "100002.721000", "100004.720000", "100006.720000", "100008.721000", "100010.721000", "100012.720000", "100014.720000", "100016.720000", "100018.721000", "100020.720000", "100022.720000", "100024.720000", "100026.720000", "100028.720000", "100030.720000", "100032.722000", "100034.720000", "100036.720000", "100038.720000", "100040.720000", "100042.720000", "100044.721000", "100046.720000", "100048.721000", "100050.721000", "100052.721000", "100054.720000", "100056.720000", "100058.721000", "100100.292000"],
      "InstanceCreationTime": ["095319.225000", "095320.721000", "095322.721000", "095324.720000", "095326.720000", "095328.720000", "095330.720000", "095332.721000", "095334.721000", "095336.720000", "095338.721000", "095340.721000", "095342.720000", "095344.721000", "095346.721000", "095348.720000", "095350.720000", "095352.720000", "095354.720000", "095356.721000", "095358.721000", "095400.740000", "095402.721000", "095404.721000", "095406.720000", "095408.721000", "095410.720000", "095412.721000", "095414.720000", "095416.721000", "095418.720000", "095420.721000", "095422.721000", "095424.721000", "095426.720000", "095428.720000", "095430.720000", "095432.721000", "095434.720000", "095436.720000", "095438.720000", "095440.721000", "095442.721000", "095444.720000", "095446.721000", "095448.720000", "095450.721000", "095452.721000", "095454.721000", "095456.720000", "095458.721000", "095500.721000", "095502.720000", "095504.720000", "095506.720000", "095508.720000", "095510.720000", "095512.721000", "095514.720000", "095516.720000", "095518.720000", "095520.721000", "095522.720000", "095524.721000", "095526.721000", "095528.721000", "095530.720000", "095532.720000", "095534.721000", "095536.720000", "095538.720000", "095540.720000", "095542.720000", "095544.720000", "095546.721000", "095548.721000", "095550.720000", "095552.722000", "095554.720000", "095556.721000", "095558.721000", "095600.721000", "095602.720000", "095604.720000", "095606.720000", "095608.721000", "095610.720000", "095612.721000", "095614.720000", "095616.720000", "095618.720000", "095620.720000", "095622.721000", "095624.721000", "095626.721000", "095628.720000", "095630.720000", "095632.720000", "095634.720000", "095636.721000", "095638.721000", "095640.720000", "095642.720000", "095644.720000", "095646.720000", "095648.720000", "095650.721000", "095652.721000", "095654.721000", "095656.721000", "095658.720000", "095700.720000", "095702.721000", "095704.720000", "095706.720000", "095708.721000", "095710.720000", "095712.721000", "095714.721000", "095716.720000", "095718.720000", "095720.720000", "095722.721000", "095724.720000", "095726.721000", "095728.721000", "095730.721000", "095732.721000", "095734.721000", "095736.721000", "095738.720000", "095740.721000", "095742.721000", "095744.720000", "095746.721000", "095748.721000", "095750.721000", "095752.721000", "095754.721000", "095756.720000", "095758.720000", "095800.721000", "095802.721000", "095804.720000", "095806.721000", "095808.720000", "095810.720000", "095812.722000", "095814.721000", "095816.720000", "095818.720000", "095820.720000", "095822.721000", "095824.721000", "095826.720000", "095828.720000", "095830.721000", "095832.721000", "095834.721000", "095836.720000", "095838.721000", "095840.720000", "095842.720000", "095844.721000", "095846.721000", "095848.720000", "095850.721000", "095852.720000", "095854.720000", "095856.720000", "095858.720000", "095900.720000", "095902.720000", "095904.720000", "095906.720000", "095908.720000", "095910.721000", "095912.721000", "095914.720000", "095916.720000", "095918.720000", "095920.720000", "095922.721000", "095924.720000", "095926.720000", "095928.721000", "095930.720000", "095932.721000", "095934.721000", "095936.720000", "095938.720000", "095940.720000", "095942.720000", "095944.720000", "095946.720000", "095948.721000", "095950.720000", "095952.720000", "095954.720000", "095956.721000", "095958.721000", "100000.721000", "100002.721000", "100004.720000", "100006.720000", "100008.721000", "100010.721000", "100012.720000", "100014.720000", "100016.720000", "100018.721000", "100020.720000", "100022.720000", "100024.720000", "100026.720000", "100028.720000", "100030.720000", "100032.722000", "100034.720000", "100036.720000", "100038.720000", "100040.720000", "100042.720000", "100044.721000", "100046.720000", "100048.721000", "100050.721000", "100052.721000", "100054.720000", "100056.720000", "100058.721000", "100100.292000"],
      "InstanceNumber": [1, 2, 3, 4, 5, 6, 7, 8, 9, 10, 11, 12, 13, 14, 15, 16, 17, 18, 19, 20, 21, 22, 23, 24, 25, 26, 27, 28, 29, 30, 31, 32, 33, 34, 35, 36, 37, 38, 39, 40, 41, 42, 43, 44, 45, 46, 47, 48, 49, 50, 51, 52, 53, 54, 55, 56, 57, 58, 59, 60, 61, 62, 63, 64, 65, 66, 67, 68, 69, 70, 71, 72, 73, 74, 75, 76, 77, 78, 79, 80, 81, 82, 83, 84, 85, 86, 87, 88, 89, 90, 91, 92, 93, 94, 95, 96, 97, 98, 99, 100, 101, 102, 103, 104, 105, 106, 107, 108, 109, 110, 111, 112, 113, 114, 115, 116, 117, 118, 119, 120, 121, 122, 123, 124, 125, 126, 127, 128, 129, 130, 131, 132, 133, 134, 135, 136, 137, 138, 139, 140, 141, 142, 143, 144, 145, 146, 147, 148, 149, 150, 151, 152, 153, 154, 155, 156, 157, 158, 159, 160, 161, 162, 163, 164, 165, 166, 167, 168, 169, 170, 171, 172, 173, 174, 175, 176, 177, 178, 179, 180, 181, 182, 183, 184, 185, 186, 187, 188, 189, 190, 191, 192, 193, 194, 195, 196, 197, 198, 199, 200, 201, 202, 203, 204, 205, 206, 207, 208, 209, 210, 211, 212, 213, 214, 215, 216, 217, 218, 219, 220, 221, 222, 223, 224, 225, 226, 227, 228, 229, 230, 231, 232],
      "LargestImagePixelValue": [3084, 3145, 3112, 3115, 3103, 3127, 3123, 3153, 3136, 3145, 3154, 3128, 3142, 3040, 3105, 3100, 3111, 3100, 3080, 3057, 3072, 3117, 3078, 3075, 3045, 3025, 3105, 3022, 3108, 3033, 3068, 3061, 3034, 3078, 3056, 3037, 3080, 3064, 3052, 3077, 3036, 2979, 2996, 3214, 3042, 2810, 3174, 2978, 3065, 3017, 3107, 3032, 3083, 3035, 3092, 3127, 3051, 3129, 3033, 3063, 3021, 3133, 3057, 3132, 3084, 2916, 2908, 2889, 2839, 2848, 2822, 2907, 2923, 2960, 2987, 2879, 2916, 2913, 2922, 2928, 2935, 2925, 2965, 2869, 2971, 2936, 2967, 2957, 3021, 2979, 3011, 2993, 3028, 2953, 3065, 2977, 2973, 2962, 2960, 2939, 2970, 2965, 2961, 3029, 2912, 3041, 2995, 2975, 3013, 3039, 2920, 3104, 3162, 3150, 3064, 3259, 3233, 3225, 3221, 3093, 3091, 3010, 3067, 2946, 3131, 3100, 2956, 3017, 3024, 2950, 2991, 2938, 3010, 2983, 3105, 3021, 3074, 3036, 3175, 3129, 3082, 3145, 3040, 3141, 2993, 3037, 3021, 3150, 3165, 3014, 3078, 3144, 3240, 3111, 3162, 3177, 3017, 3137, 3063, 3154, 3182, 3181, 3207, 3167, 3042, 3077, 3084, 3050, 3015, 2988, 3018, 3025, 3015, 2992, 3041, 3048, 3045, 3113, 3132, 3116, 3053, 3105, 3001, 3097, 3114, 2983, 3048, 2999, 3193, 3089, 3263, 3048, 3220, 3139, 3082, 3141, 3096, 3080, 3099, 2992, 3092, 3026, 3024, 3051, 3023, 3016, 3003, 3096, 3018, 3091, 3075, 3072, 3029, 3101, 3085, 3044, 3108, 3056, 3087, 2997, 3055, 3070, 3014, 3064, 3030, 3073, 3010, 3053, 3003, 3038, 3053, 2980],
      "WindowCenter": [770.0, 769.0, 768.0, 769.0, 768.0, 768.0, 768.0, 769.0, 769.0, 769.0, 770.0, 769.0, 769.0, 767.0, 768.0, 770.0, 772.0, 770.0, 770.0, 768.0, 768.0, 769.0, 769.0, 769.0, 767.0, 765.0, 766.0, 765.0, 767.0, 768.0, 768.0, 768.0, 767.0, 768.0, 768.0, 769.0, 770.0, 769.0, 768.0, 768.0, 765.0, 765.0, 767.0, 770.0, 763.0, 755.0, 766.0, 753.0, 773.0, 768.0, 768.0, 768.0, 769.0, 769.0, 768.0, 767.0, 766.0, 768.0, 768.0, 767.0, 765.0, 764.0, 764.0, 766.0, 766.0, 765.0, 763.0, 761.0, 761.0, 762.0, 762.0, 764.0, 764.0, 765.0, 764.0, 763.0, 764.0, 765.0, 765.0, 765.0, 765.0, 765.0, 767.0, 767.0, 768.0, 767.0, 767.0, 766.0, 767.0, 767.0, 767.0, 766.0, 766.0, 766.0, 767.0, 767.0, 768.0, 768.0, 770.0, 769.0, 769.0, 767.0, 767.0, 769.0, 763.0, 765.0, 761.0, 762.0, 762.0, 767.0, 757.0, 759.0, 773.0, 770.0, 770.0, 772.0, 773.0, 772.0, 772.0, 771.0, 765.0, 765.0, 766.0, 763.0, 768.0, 764.0, 764.0, 769.0, 770.0, 769.0, 770.0, 770.0, 770.0, 769.0, 770.0, 768.0, 768.0, 768.0, 769.0, 769.0, 769.0, 769.0, 769.0, 771.0, 770.0, 770.0, 769.0, 770.0, 770.0, 770.0, 770.0, 768.0, 767.0, 765.0, 768.0, 768.0, 767.0, 768.0, 768.0, 769.0, 769.0, 769.0, 768.0, 765.0, 768.0, 768.0, 768.0, 768.0, 767.0, 766.0, 766.0, 766.0, 767.0, 767.0, 768.0, 768.0, 768.0, 769.0, 769.0, 769.0, 769.0, 768.0, 769.0, 769.0, 764.0, 766.0, 767.0, 764.0, 769.0, 764.0, 763.0, 767.0, 772.0, 770.0, 769.0, 769.0, 769.0, 769.0, 770.0, 768.0, 769.0, 768.0, 769.0, 769.0, 768.0, 768.0, 768.0, 769.0, 767.0, 768.0, 767.0, 767.0, 767.0, 768.0, 767.0, 768.0, 769.0, 767.0, 769.0, 768.0, 768.0, 767.0, 767.0, 768.0, 768.0, 768.0, 766.0, 766.0, 766.0, 766.0, 767.0, 767.0],
      "WindowWidth": [1667.0, 1663.0, 1662.0, 1663.0, 1662.0, 1663.0, 1662.0, 1663.0, 1663.0, 1663.0, 1666.0, 1665.0, 1665.0, 1659.0, 1663.0, 1669.0, 1671.0, 1668.0, 1666.0, 1662.0, 1661.0, 1664.0, 1665.0, 1663.0, 1659.0, 1653.0, 1654.0, 1654.0, 1658.0, 1660.0, 1660.0, 1661.0, 1658.0, 1661.0, 1662.0, 1666.0, 1667.0, 1664.0, 1661.0, 1663.0, 1654.0, 1654.0, 1660.0, 1668.0, 1649.0, 1628.0, 1659.0, 1624.0, 1675.0, 1661.0, 1662.0, 1662.0, 1665.0, 1662.0, 1662.0, 1659.0, 1656.0, 1663.0, 1662.0, 1660.0, 1652.0, 1650.0, 1650.0, 1656.0, 1656.0, 1652.0, 1647.0, 1643.0, 1643.0, 1646.0, 1646.0, 1651.0, 1651.0, 1653.0, 1651.0, 1649.0, 1650.0, 1653.0, 1654.0, 1653.0, 1654.0, 1653.0, 1658.0, 1659.0, 1661.0, 1660.0, 1659.0, 1656.0, 1659.0, 1658.0, 1659.0, 1657.0, 1657.0, 1657.0, 1660.0, 1660.0, 1661.0, 1661.0, 1666.0, 1665.0, 1665.0, 1659.0, 1658.0, 1663.0, 1648.0, 1654.0, 1644.0, 1646.0, 1648.0, 1659.0, 1634.0, 1638.0, 1675.0, 1666.0, 1667.0, 1673.0, 1675.0, 1673.0, 1674.0, 1670.0, 1654.0, 1653.0, 1657.0, 1649.0, 1663.0, 1651.0, 1651.0, 1666.0, 1666.0, 1665.0, 1667.0, 1668.0, 1669.0, 1665.0, 1666.0, 1662.0, 1663.0, 1661.0, 1665.0, 1664.0, 1663.0, 1665.0, 1665.0, 1670.0, 1667.0, 1666.0, 1664.0, 1668.0, 1667.0, 1666.0, 1666.0, 1662.0, 1658.0, 1655.0, 1661.0, 1661.0, 1658.0, 1660.0, 1660.0, 1665.0, 1664.0, 1664.0, 1663.0, 1654.0, 1660.0, 1661.0, 1661.0, 1661.0, 1658.0, 1655.0, 1655.0, 1657.0, 1658.0, 1660.0, 1661.0, 1661.0, 1661.0, 1665.0, 1665.0, 1665.0, 1663.0, 1663.0, 1664.0, 1665.0, 1652.0, 1655.0, 1660.0, 1650.0, 1665.0, 1652.0, 1650.0, 1659.0, 1672.0, 1667.0, 1665.0, 1665.0, 1665.0, 1665.0, 1666.0, 1662.0, 1665.0, 1662.0, 1664.0, 1663.0, 1662.0, 1661.0, 1661.0, 1665.0, 1659.0, 1660.0, 1658.0, 1658.0, 1659.0, 1660.0, 1658.0, 1660.0, 1662.0, 1660.0, 1663.0, 1660.0, 1660.0, 1659.0, 1658.0, 1660.0, 1661.0, 1661.0, 1657.0, 1656.0, 1655.0, 1656.0, 1658.0, 1657.0]
    },
    "slices": {}
  }
}