{
  "AcquisitionMatrixPE": 100,
  "AcquisitionNumber": 1,
  "AcquisitionTime": "09:23:51.377500",
  "BandwidthPerPixelPhaseEncode": 18.519,
  "BaseResolution": 100,
  "BodyPartExamined": "BRAIN",
  "ConsistencyInfo": "N4_VE11C_LATEST_20160120",
  "ConversionSoftware": "dcm2niix",
  "ConversionSoftwareVersion": "v1.0.20180622 GCC4.9.2",
  "DerivedVendorReportedEchoSpacing": 0.000539986,
  "DeviceSerialNumber": "166078",
  "DwellTime": 2.1e-06,
  "EchoTime": 0.034,
  "EchoTrainLength": 100,
  "EffectiveEchoSpacing": 0.000539986,
  "FlipAngle": 90,
  "ImageOrientationPatientDICOM": [0.999781, 0.0205844, -0.00387164, -0.0209424, 0.985497, -0.168395],
  "ImageType": [
    "ORIGINAL",
    "PRIMARY",
    "M",
    "ND",
    "MOSAIC"
],
  "InPlanePhaseEncodingDirectionDICOM": "COL",
  "InstitutionAddress": "Street_StreetNo_Bei_Jing_District_CN_ZIP",
  "InstitutionName": "BeiJing_Normal_University",
  "InstitutionalDepartmentName": "Department",
  "MRAcquisitionType": "2D",
  "MagneticFieldStrength": 3,
  "Manufacturer": "Siemens",
  "ManufacturersModelName": "Prisma",
  "Modality": "MR",
  "MultibandAccelerationFactor": 3,
  "PartialFourier": 1,
  "PatientPosition": "HFS",
  "PercentPhaseFOV": 100,
  "PhaseEncodingDirection": "j-",
  "PhaseEncodingSteps": 100,
  "PhaseResolution": 1,
  "PixelBandwidth": 2380,
  "ProcedureStepDescription": "BNU_P2018_64CH_Liu.Jia",
  "ProtocolName": "bold_100x100_s3_2x2x2_232",
  "PulseSequenceDetails": "%SiemensSeq%_ep2d_bold",
  "ReceiveCoilActiveElements": "HC1-7;NC1",
  "ReceiveCoilName": "HeadNeck_64",
  "ReconMatrixPE": 100,
  "RepetitionTime": 2,
  "SAR": 0.0787778,
  "ScanOptions": "FS",
  "ScanningSequence": "EP",
  "SequenceName": "_epfid2d1_100",
  "SequenceVariant": "SK",
  "SeriesDescription": "bold_100x100_s3_2x2x2_232",
  "SeriesNumber": 7,
  "ShimSetting": [-5460, -11469, -1291, 255, 16, -162, -168, 24],
  "SliceThickness": 2,
  "SliceTiming": [1.485, 0, 0.99, 0.0825, 1.0725, 0.165, 1.155, 0.2475, 1.2375, 0.33, 1.32, 0.4125, 1.4025, 0.5775, 1.5675, 0.66, 1.65, 0.7425, 1.7325, 0.825, 1.815, 0.9075, 1.8975, 0.495, 1.485, 0, 0.99, 0.0825, 1.0725, 0.165, 1.155, 0.2475, 1.2375, 0.33, 1.32, 0.4125, 1.4025, 0.5775, 1.5675, 0.66, 1.65, 0.7425, 1.7325, 0.825, 1.815, 0.9075, 1.8975, 0.495, 1.485, 0, 0.99, 0.0825, 1.0725, 0.165, 1.155, 0.2475, 1.2375, 0.33, 1.32, 0.4125, 1.4025, 0.5775, 1.5675, 0.66, 1.65, 0.7425, 1.7325, 0.825, 1.815, 0.9075, 1.8975, 0.495],
  "SoftwareVersions": "syngo_MR_E11",
  "SpacingBetweenSlices": 2,
  "StationName": "AWP166078",
  "TaskName": "motor",
  "TotalReadoutTime": 0.0534586,
  "TxRefAmp": 218.708,
  "dcmmeta_affine": [
    [-1.9995611906051636, -0.04188479110598564, -0.0006983785424381495, 103.91352844238281],
    [-0.04116873815655708, 1.970994234085083, -0.3368781805038452, -76.87960815429688],
    [-0.007743285968899727, 0.33678990602493286, 1.9714239835739136, -94.23368072509766],
    [0.0, 0.0, 0.0, 1.0]
],
  "dcmmeta_reorient_transform": [
    [0.0, -1.0, 0.0, 99.0],
    [1.0, 0.0, 0.0, 0.0],
    [0.0, 0.0, 1.0, 0.0],
    [0.0, 0.0, 0.0, 1.0]
],
  "dcmmeta_shape": [100, 100, 72, 232],
  "dcmmeta_slice_dim": 2,
  "dcmmeta_version": 0.6,
  "global": {
    "const": {
      "AcquisitionMatrix": [100, 0, 0, 100],
      "AngioFlag": "N",
      "BitsAllocated": 16,
      "BitsStored": 12,
      "BodyPartExamined": "BRAIN",
      "Columns": 900,
      "EchoNumbers": 1,
      "EchoTime": 34.0,
      "EchoTrainLength": 100,
      "FlipAngle": 90.0,
      "HighBit": 11,
      "ImageOrientationPatient": [0.99978062300226, 0.02058436905406, -0.0038716430435, -0.0209423956622, 0.98549711172408, -0.1683949489962],
      "ImagePositionPatient": [-882.83751584456, -923.11400156934, 76.921791661417],
      "ImageType": [
        "ORIGINAL",
        "PRIMARY",
        "M",
        "ND",
        "MOSAIC"
],
      "ImagedNucleus": "1H",
      "ImagingFrequency": 123.257831,
      "InPlanePhaseEncodingDirection": "COL",
      "MRAcquisitionType": "2D",
      "MagneticFieldStrength": 3.0,
      "Manufacturer": "SIEMENS",
      "ManufacturerModelName": "Prisma",
      "Modality": "MR",
      "NumberOfAverages": 1.0,
      "NumberOfPhaseEncodingSteps": 100,
      "PercentPhaseFieldOfView": 100.0,
      "PercentSampling": 100.0,
      "PerformedProcedureStepStartTime": "085317.575000",
      "PhotometricInterpretation": "MONOCHROME2",
      "PixelBandwidth": 2380.0,
      "PixelRepresentation": 0,
      "PixelSpacing": [2.0, 2.0],
      "ProtocolName": "bold_100x100_s3_2x2x2_232",
      "RepetitionTime": 2000.0,
      "Rows": 900,
      "SAR": 0.07877778500766,
      "SamplesPerPixel": 1,
      "ScanOptions": "FS",
      "ScanningSequence": "EP",
      "SequenceName": "*epfid2d1_100",
      "SequenceVariant": "SK",
      "SeriesDescription": "bold_100x100_s3_2x2x2_232",
      "SeriesNumber": 7,
      "SeriesTime": "092354.547000",
      "SliceLocation": -79.974025102065,
      "SliceThickness": 2.0,
      "SmallestImagePixelValue": 0,
      "SoftwareVersions": "syngo MR E11",
      "SpacingBetweenSlices": 1.9999999877209,
      "SpecificCharacterSet": "ISO_IR 100",
      "StudyID": "1",
      "StudyTime": "085317.426000",
      "TransmitCoilName": "Body",
      "VariableFlipAngleFlag": "N",
      "WindowCenterWidthExplanation": "Algo1",
      "dBdt": 0.0},
    "slices": {}
  },
  "time": {
    "samples": {
      "AcquisitionNumber": [1, 2, 3, 4, 5, 6, 7, 8, 9, 10, 11, 12, 13, 14, 15, 16, 17, 18, 19, 20, 21, 22, 23, 24, 25, 26, 27, 28, 29, 30, 31, 32, 33, 34, 35, 36, 37, 38, 39, 40, 41, 42, 43, 44, 45, 46, 47, 48, 49, 50, 51, 52, 53, 54, 55, 56, 57, 58, 59, 60, 61, 62, 63, 64, 65, 66, 67, 68, 69, 70, 71, 72, 73, 74, 75, 76, 77, 78, 79, 80, 81, 82, 83, 84, 85, 86, 87, 88, 89, 90, 91, 92, 93, 94, 95, 96, 97, 98, 99, 100, 101, 102, 103, 104, 105, 106, 107, 108, 109, 110, 111, 112, 113, 114, 115, 116, 117, 118, 119, 120, 121, 122, 123, 124, 125, 126, 127, 128, 129, 130, 131, 132, 133, 134, 135, 136, 137, 138, 139, 140, 141, 142, 143, 144, 145, 146, 147, 148, 149, 150, 151, 152, 153, 154, 155, 156, 157, 158, 159, 160, 161, 162, 163, 164, 165, 166, 167, 168, 169, 170, 171, 172, 173, 174, 175, 176, 177, 178, 179, 180, 181, 182, 183, 184, 185, 186, 187, 188, 189, 190, 191, 192, 193, 194, 195, 196, 197, 198, 199, 200, 201, 202, 203, 204, 205, 206, 207, 208, 209, 210, 211, 212, 213, 214, 215, 216, 217, 218, 219, 220, 221, 222, 223, 224, 225, 226, 227, 228, 229, 230, 231, 232],
      "AcquisitionTime": ["092351.377500", "092353.377500", "092355.377500", "092357.377500", "092359.377500", "092401.377500", "092403.377500", "092405.377500", "092407.377500", "092409.377500", "092411.377500", "092413.377500", "092415.377500", "092417.377500", "092419.377500", "092421.377500", "092423.377500", "092425.377500", "092427.377500", "092429.377500", "092431.377500", "092433.377500", "092435.377500", "092437.377500", "092439.377500", "092441.377500", "092443.377500", "092445.377500", "092447.377500", "092449.377500", "092451.377500", "092453.377500", "092455.377500", "092457.377500", "092459.377500", "092501.377500", "092503.377500", "092505.377500", "092507.377500", "092509.377500", "092511.377500", "092513.377500", "092515.377500", "092517.377500", "092519.377500", "092521.377500", "092523.377500", "092525.377500", "092527.377500", "092529.377500", "092531.377500", "092533.377500", "092535.377500", "092537.377500", "092539.377500", "092541.377500", "092543.377500", "092545.377500", "092547.377500", "092549.377500", "092551.377500", "092553.377500", "092555.377500", "092557.377500", "092559.377500", "092601.377500", "092603.377500", "092605.377500", "092607.377500", "092609.377500", "092611.377500", "092613.377500", "092615.377500", "092617.377500", "092619.377500", "092621.377500", "092623.377500", "092625.377500", "092627.377500", "092629.377500", "092631.377500", "092633.377500", "092635.377500", "092637.377500", "092639.377500", "092641.377500", "092643.377500", "092645.377500", "092647.377500", "092649.377500", "092651.377500", "092653.377500", "092655.377500", "092657.377500", "092659.377500", "092701.377500", "092703.377500", "092705.377500", "092707.377500", "092709.377500", "092711.377500", "092713.377500", "092715.377500", "092717.377500", "092719.377500", "092721.377500", "092723.377500", "092725.377500", "092727.377500", "092729.377500", "092731.377500", "092733.377500", "092735.377500", "092737.377500", "092739.377500", "092741.377500", "092743.377500", "092745.377500", "092747.377500", "092749.377500", "092751.377500", "092753.377500", "092755.377500", "092757.377500", "092759.377500", "092801.377500", "092803.377500", "092805.377500", "092807.377500", "092809.377500", "092811.377500", "092813.377500", "092815.377500", "092817.377500", "092819.377500", "092821.377500", "092823.377500", "092825.377500", "092827.377500", "092829.377500", "092831.377500", "092833.377500", "092835.377500", "092837.377500", "092839.377500", "092841.377500", "092843.377500", "092845.377500", "092847.377500", "092849.377500", "092851.377500", "092853.377500", "092855.377500", "092857.377500", "092859.377500", "092901.377500", "092903.377500", "092905.377500", "092907.377500", "092909.377500", "092911.377500", "092913.377500", "092915.377500", "092917.377500", "092919.377500", "092921.377500", "092923.377500", "092925.377500", "092927.377500", "092929.377500", "092931.377500", "092933.377500", "092935.377500", "092937.377500", "092939.377500", "092941.377500", "092943.377500", "092945.377500", "092947.377500", "092949.377500", "092951.377500", "092953.377500", "092955.377500", "092957.377500", "092959.377500", "093001.377500", "093003.377500", "093005.377500", "093007.377500", "093009.377500", "093011.377500", "093013.377500", "093015.377500", "093017.377500", "093019.377500", "093021.377500", "093023.377500", "093025.377500", "093027.377500", "093029.377500", "093031.377500", "093033.377500", "093035.377500", "093037.377500", "093039.377500", "093041.377500", "093043.377500", "093045.377500", "093047.377500", "093049.377500", "093051.377500", "093053.377500", "093055.377500", "093057.377500", "093059.377500", "093101.377500", "093103.377500", "093105.377500", "093107.377500", "093109.377500", "093111.377500", "093113.377500", "093115.377500", "093117.377500", "093119.377500", "093121.377500", "093123.377500", "093125.377500", "093127.377500", "093129.377500", "093131.377500", "093133.377500"],
      "ContentTime": ["092354.551000", "092355.546000", "092357.546000", "092359.545000", "092401.546000", "092403.545000", "092405.546000", "092407.546000", "092409.546000", "092411.546000", "092413.546000", "092415.546000", "092417.546000", "092419.545000", "092421.545000", "092423.545000", "092425.547000", "092427.546000", "092429.546000", "092431.547000", "092433.546000", "092435.545000", "092437.545000", "092439.546000", "092441.545000", "092443.546000", "092445.546000", "092447.546000", "092449.546000", "092451.547000", "092453.546000", "092455.545000", "092457.545000", "092459.547000", "092501.546000", "092503.546000", "092505.546000", "092507.547000", "092509.545000", "092511.545000", "092513.545000", "092515.545000", "092517.546000", "092519.546000", "092521.547000", "092523.546000", "092525.546000", "092527.545000", "092529.545000", "092531.546000", "092533.545000", "092535.547000", "092537.546000", "092539.546000", "092541.546000", "092543.546000", "092545.545000", "092547.545000", "092549.545000", "092551.545000", "092553.546000", "092555.546000", "092557.546000", "092559.546000", "092601.547000", "092603.545000", "092605.545000", "092607.545000", "092609.547000", "092611.546000", "092613.546000", "092615.546000", "092617.546000", "092619.545000", "092621.545000", "092623.545000", "092625.545000", "092627.546000", "092629.546000", "092631.546000", "092633.546000", "092635.546000", "092637.545000", "092639.546000", "092641.545000", "092643.546000", "092645.546000", "092647.547000", "092649.546000", "092651.546000", "092653.547000", "092655.546000", "092657.546000", "092659.546000", "092701.545000", "092703.547000", "092705.547000", "092707.546000", "092709.547000", "092711.546000", "092713.546000", "092715.545000", "092717.545000", "092719.546000", "092721.546000", "092723.546000", "092725.546000", "092727.546000", "092729.545000", "092731.545000", "092733.546000", "092735.546000", "092737.546000", "092739.546000", "092741.546000", "092743.547000", "092745.547000", "092747.545000", "092749.546000", "092751.545000", "092753.546000", "092755.547000", "092757.547000", "092759.546000", "092801.546000", "092803.546000", "092805.546000", "092807.545000", "092809.545000", "092811.545000", "092813.546000", "092815.546000", "092817.547000", "092819.546000", "092821.547000", "092823.545000", "092825.545000", "092827.545000", "092829.547000", "092831.546000", "092833.547000", "092835.547000", "092837.546000", "092839.545000", "092841.546000", "092843.546000", "092845.545000", "092847.547000", "092849.547000", "092851.546000", "092853.546000", "092855.546000", "092857.545000", "092859.545000", "092901.545000", "092903.546000", "092905.546000", "092907.546000", "092909.547000", "092911.547000", "092913.546000", "092915.546000", "092917.546000", "092919.546000", "092921.547000", "092923.547000", "092925.547000", "092927.546000", "092929.546000", "092931.546000", "092933.545000", "092936.045000", "092937.546000", "092939.547000", "092941.546000", "092943.546000", "092945.547000", "092947.546000", "092950.045000", "092951.546000", "092953.545000", "092955.546000", "092957.546000", "092959.546000", "093001.547000", "093003.546000", "093005.547000", "093007.546000", "093009.545000", "093011.546000", "093013.545000", "093015.546000", "093017.546000", "093019.546000", "093021.546000", "093023.546000", "093025.546000", "093027.545000", "093029.545000", "093031.547000", "093034.047000", "093035.547000", "093037.547000", "093039.546000", "093041.546000", "093043.546000", "093045.546000", "093047.546000", "093049.547000", "093051.546000", "093053.546000", "093055.547000", "093057.546000", "093059.545000", "093101.545000", "093103.545000", "093105.546000", "093107.547000", "093109.546000", "093111.547000", "093113.546000", "093115.546000", "093117.546000", "093119.546000", "093121.546000", "093123.545000", "093125.547000", "093127.547000", "093129.547000", "093131.547000", "093133.547000", "093135.367000"],
      "InstanceCreationTime": ["092354.551000", "092355.546000", "092357.546000", "092359.545000", "092401.546000", "092403.545000", "092405.546000", "092407.546000", "092409.546000", "092411.546000", "092413.546000", "092415.546000", "092417.546000", "092419.545000", "092421.545000", "092423.545000", "092425.547000", "092427.546000", "092429.546000", "092431.547000", "092433.546000", "092435.545000", "092437.545000", "092439.546000", "092441.545000", "092443.546000", "092445.546000", "092447.546000", "092449.546000", "092451.547000", "092453.546000", "092455.545000", "092457.545000", "092459.547000", "092501.546000", "092503.546000", "092505.546000", "092507.547000", "092509.545000", "092511.545000", "092513.545000", "092515.545000", "092517.546000", "092519.546000", "092521.547000", "092523.546000", "092525.546000", "092527.545000", "092529.545000", "092531.546000", "092533.545000", "092535.547000", "092537.546000", "092539.546000", "092541.546000", "092543.546000", "092545.545000", "092547.545000", "092549.545000", "092551.545000", "092553.546000", "092555.546000", "092557.546000", "092559.546000", "092601.547000", "092603.545000", "092605.545000", "092607.545000", "092609.547000", "092611.546000", "092613.546000", "092615.546000", "092617.546000", "092619.545000", "092621.545000", "092623.545000", "092625.545000", "092627.546000", "092629.546000", "092631.546000", "092633.546000", "092635.546000", "092637.545000", "092639.546000", "092641.545000", "092643.546000", "092645.546000", "092647.547000", "092649.546000", "092651.546000", "092653.547000", "092655.546000", "092657.546000", "092659.546000", "092701.545000", "092703.547000", "092705.547000", "092707.546000", "092709.547000", "092711.546000", "092713.546000", "092715.545000", "092717.545000", "092719.546000", "092721.546000", "092723.546000", "092725.546000", "092727.546000", "092729.545000", "092731.545000", "092733.546000", "092735.546000", "092737.546000", "092739.546000", "092741.546000", "092743.547000", "092745.547000", "092747.545000", "092749.546000", "092751.545000", "092753.546000", "092755.547000", "092757.547000", "092759.546000", "092801.546000", "092803.546000", "092805.546000", "092807.545000", "092809.545000", "092811.545000", "092813.546000", "092815.546000", "092817.547000", "092819.546000", "092821.547000", "092823.545000", "092825.545000", "092827.545000", "092829.547000", "092831.546000", "092833.547000", "092835.547000", "092837.546000", "092839.545000", "092841.546000", "092843.546000", "092845.545000", "092847.547000", "092849.547000", "092851.546000", "092853.546000", "092855.546000", "092857.545000", "092859.545000", "092901.545000", "092903.546000", "092905.546000", "092907.546000", "092909.547000", "092911.547000", "092913.546000", "092915.546000", "092917.546000", "092919.546000", "092921.547000", "092923.547000", "092925.547000", "092927.546000", "092929.546000", "092931.546000", "092933.545000", "092936.045000", "092937.546000", "092939.547000", "092941.546000", "092943.546000", "092945.547000", "092947.546000", "092950.045000", "092951.546000", "092953.545000", "092955.546000", "092957.546000", "092959.546000", "093001.547000", "093003.546000", "093005.547000", "093007.546000", "093009.545000", "093011.546000", "093013.545000", "093015.546000", "093017.546000", "093019.546000", "093021.546000", "093023.546000", "093025.546000", "093027.545000", "093029.545000", "093031.547000", "093034.047000", "093035.547000", "093037.547000", "093039.546000", "093041.546000", "093043.546000", "093045.546000", "093047.546000", "093049.547000", "093051.546000", "093053.546000", "093055.547000", "093057.546000", "093059.545000", "093101.545000", "093103.545000", "093105.546000", "093107.547000", "093109.546000", "093111.547000", "093113.546000", "093115.546000", "093117.546000", "093119.546000", "093121.546000", "093123.545000", "093125.547000", "093127.547000", "093129.547000", "093131.547000", "093133.547000", "093135.367000"],
      "InstanceNumber": [1, 2, 3, 4, 5, 6, 7, 8, 9, 10, 11, 12, 13, 14, 15, 16, 17, 18, 19, 20, 21, 22, 23, 24, 25, 26, 27, 28, 29, 30, 31, 32, 33, 34, 35, 36, 37, 38, 39, 40, 41, 42, 43, 44, 45, 46, 47, 48, 49, 50, 51, 52, 53, 54, 55, 56, 57, 58, 59, 60, 61, 62, 63, 64, 65, 66, 67, 68, 69, 70, 71, 72, 73, 74, 75, 76, 77, 78, 79, 80, 81, 82, 83, 84, 85, 86, 87, 88, 89, 90, 91, 92, 93, 94, 95, 96, 97, 98, 99, 100, 101, 102, 103, 104, 105, 106, 107, 108, 109, 110, 111, 112, 113, 114, 115, 116, 117, 118, 119, 120, 121, 122, 123, 124, 125, 126, 127, 128, 129, 130, 131, 132, 133, 134, 135, 136, 137, 138, 139, 140, 141, 142, 143, 144, 145, 146, 147, 148, 149, 150, 151, 152, 153, 154, 155, 156, 157, 158, 159, 160, 161, 162, 163, 164, 165, 166, 167, 168, 169, 170, 171, 172, 173, 174, 175, 176, 177, 178, 179, 180, 181, 182, 183, 184, 185, 186, 187, 188, 189, 190, 191, 192, 193, 194, 195, 196, 197, 198, 199, 200, 201, 202, 203, 204, 205, 206, 207, 208, 209, 210, 211, 212, 213, 214, 215, 216, 217, 218, 219, 220, 221, 222, 223, 224, 225, 226, 227, 228, 229, 230, 231, 232],
      "LargestImagePixelValue": [3139, 3180, 3230, 3169, 3215, 3154, 3185, 3184, 3193, 3210, 3162, 3165, 3119, 3219, 3080, 3150, 2933, 3106, 3057, 3174, 3021, 3029, 2994, 3243, 3148, 3075, 3200, 3188, 3231, 3057, 3076, 3127, 3144, 3164, 3160, 3236, 3126, 3171, 3153, 3155, 3148, 3179, 3162, 3189, 3172, 3215, 3197, 3204, 3097, 3025, 2923, 3054, 3047, 3195, 3102, 2901, 2897, 2996, 2982, 3021, 3014, 3039, 3017, 3081, 3090, 3100, 3032, 3060, 2979, 2993, 3018, 3038, 3024, 2934, 2936, 3070, 3069, 2962, 3026, 2922, 3187, 3110, 3016, 3094, 3095, 3079, 2984, 3039, 2959, 2973, 2941, 3007, 2998, 3027, 3001, 2949, 2941, 2963, 3029, 3007, 2961, 3012, 3005, 2938, 2933, 2976, 2967, 2992, 2978, 3067, 3034, 2943, 2951, 2937, 2992, 2985, 2999, 2959, 2977, 2981, 3009, 3014, 2942, 2983, 3034, 2984, 3000, 3016, 3064, 3044, 3067, 3081, 3062, 2988, 3018, 3029, 3037, 3035, 3077, 3067, 3121, 3047, 3015, 2941, 3018, 3068, 3049, 3028, 2965, 3015, 3031, 3073, 2994, 3017, 2986, 3053, 3039, 2872, 3064, 2908, 3173, 3084, 3059, 3093, 2992, 3014, 2939, 3059, 3031, 3019, 3009, 3028, 3018, 3040, 2965, 2967, 2972, 2977, 3241, 3126, 3148, 3093, 3035, 3019, 3077, 3060, 3081, 3038, 3011, 3080, 3070, 3042, 2959, 2937, 2964, 3067, 3039, 3069, 2991, 3020, 3001, 3006, 3049, 3063, 3069, 3046, 2992, 2930, 2922, 2985, 2863, 3035, 3018, 2899, 3184, 2952, 3000, 2939, 2941, 2915, 2943, 2992, 2988, 3065, 3038, 3006, 3033, 2918, 3030, 3059, 3061, 2994],
      "WindowCenter": [773.0, 772.0, 772.0, 772.0, 773.0, 772.0, 773.0, 773.0, 773.0, 771.0, 771.0, 771.0, 772.0, 774.0, 773.0, 773.0, 767.0, 767.0, 772.0, 768.0, 771.0, 770.0, 770.0, 774.0, 772.0, 773.0, 775.0, 775.0, 775.0, 773.0, 772.0, 772.0, 773.0, 773.0, 773.0, 774.0, 773.0, 774.0, 774.0, 774.0, 773.0, 774.0, 774.0, 774.0, 772.0, 772.0, 772.0, 773.0, 772.0, 772.0, 771.0, 771.0, 771.0, 773.0, 772.0, 770.0, 768.0, 770.0, 770.0, 771.0, 770.0, 771.0, 769.0, 770.0, 770.0, 770.0, 771.0, 771.0, 771.0, 771.0, 772.0, 772.0, 772.0, 767.0, 769.0, 768.0, 770.0, 769.0, 772.0, 769.0, 772.0, 773.0, 773.0, 775.0, 775.0, 775.0, 773.0, 772.0, 771.0, 771.0, 771.0, 772.0, 772.0, 772.0, 772.0, 771.0, 770.0, 770.0, 770.0, 771.0, 770.0, 771.0, 771.0, 771.0, 771.0, 772.0, 771.0, 772.0, 771.0, 772.0, 773.0, 773.0, 772.0, 771.0, 772.0, 772.0, 773.0, 772.0, 773.0, 773.0, 773.0, 772.0, 770.0, 770.0, 770.0, 770.0, 771.0, 771.0, 772.0, 772.0, 772.0, 773.0, 772.0, 772.0, 772.0, 771.0, 772.0, 771.0, 772.0, 772.0, 772.0, 771.0, 771.0, 770.0, 771.0, 772.0, 772.0, 772.0, 772.0, 772.0, 772.0, 772.0, 770.0, 770.0, 768.0, 772.0, 771.0, 770.0, 772.0, 770.0, 772.0, 772.0, 773.0, 774.0, 773.0, 774.0, 772.0, 773.0, 772.0, 773.0, 773.0, 773.0, 773.0, 773.0, 772.0, 772.0, 771.0, 771.0, 772.0, 771.0, 771.0, 770.0, 769.0, 770.0, 770.0, 771.0, 771.0, 771.0, 771.0, 772.0, 771.0, 771.0, 771.0, 771.0, 772.0, 773.0, 773.0, 773.0, 772.0, 773.0, 774.0, 774.0, 773.0, 772.0, 772.0, 771.0, 772.0, 771.0, 771.0, 768.0, 762.0, 767.0, 768.0, 762.0, 771.0, 772.0, 773.0, 772.0, 773.0, 773.0, 772.0, 773.0, 772.0, 772.0, 772.0, 771.0, 772.0, 771.0, 773.0, 774.0, 774.0, 771.0],
      "WindowWidth": [1676.0, 1673.0, 1675.0, 1673.0, 1676.0, 1674.0, 1676.0, 1676.0, 1677.0, 1673.0, 1673.0, 1672.0, 1675.0, 1679.0, 1677.0, 1678.0, 1661.0, 1662.0, 1676.0, 1665.0, 1671.0, 1669.0, 1670.0, 1680.0, 1676.0, 1678.0, 1684.0, 1684.0, 1684.0, 1676.0, 1676.0, 1675.0, 1677.0, 1678.0, 1679.0, 1681.0, 1678.0, 1679.0, 1680.0, 1680.0, 1678.0, 1681.0, 1680.0, 1679.0, 1674.0, 1674.0, 1675.0, 1676.0, 1673.0, 1673.0, 1670.0, 1673.0, 1673.0, 1678.0, 1674.0, 1668.0, 1663.0, 1669.0, 1669.0, 1670.0, 1668.0, 1671.0, 1665.0, 1668.0, 1667.0, 1669.0, 1670.0, 1673.0, 1673.0, 1671.0, 1673.0, 1673.0, 1673.0, 1660.0, 1666.0, 1664.0, 1669.0, 1666.0, 1675.0, 1667.0, 1675.0, 1678.0, 1678.0, 1682.0, 1683.0, 1683.0, 1676.0, 1674.0, 1671.0, 1672.0, 1671.0, 1674.0, 1674.0, 1675.0, 1674.0, 1672.0, 1668.0, 1668.0, 1669.0, 1670.0, 1668.0, 1671.0, 1671.0, 1672.0, 1671.0, 1672.0, 1670.0, 1673.0, 1672.0, 1673.0, 1677.0, 1675.0, 1675.0, 1672.0, 1675.0, 1674.0, 1675.0, 1675.0, 1676.0, 1678.0, 1676.0, 1675.0, 1669.0, 1668.0, 1669.0, 1667.0, 1670.0, 1672.0, 1675.0, 1675.0, 1675.0, 1677.0, 1675.0, 1674.0, 1673.0, 1672.0, 1674.0, 1671.0, 1674.0, 1673.0, 1674.0, 1672.0, 1672.0, 1668.0, 1671.0, 1675.0, 1674.0, 1675.0, 1673.0, 1673.0, 1673.0, 1674.0, 1668.0, 1670.0, 1662.0, 1674.0, 1670.0, 1668.0, 1673.0, 1669.0, 1676.0, 1675.0, 1677.0, 1679.0, 1678.0, 1679.0, 1674.0, 1677.0, 1675.0, 1676.0, 1676.0, 1677.0, 1676.0, 1677.0, 1674.0, 1673.0, 1671.0, 1672.0, 1676.0, 1671.0, 1671.0, 1668.0, 1667.0, 1668.0, 1669.0, 1671.0, 1671.0, 1670.0, 1670.0, 1673.0, 1672.0, 1671.0, 1669.0, 1671.0, 1673.0, 1677.0, 1677.0, 1677.0, 1674.0, 1678.0, 1680.0, 1680.0, 1677.0, 1674.0, 1673.0, 1671.0, 1672.0, 1672.0, 1670.0, 1662.0, 1648.0, 1662.0, 1664.0, 1648.0, 1672.0, 1673.0, 1677.0, 1674.0, 1676.0, 1675.0, 1675.0, 1676.0, 1675.0, 1675.0, 1674.0, 1671.0, 1672.0, 1671.0, 1677.0, 1680.0, 1679.0, 1670.0]
    },
    "slices": {}
  }
}