{
  "AcquisitionMatrixPE": 100,
  "AcquisitionNumber": 1,
  "AcquisitionTime": "09:06:46.572500",
  "BandwidthPerPixelPhaseEncode": 18.519,
  "BaseResolution": 100,
  "BodyPartExamined": "BRAIN",
  "ConsistencyInfo": "N4_VE11C_LATEST_20160120",
  "ConversionSoftware": "dcm2niix",
  "ConversionSoftwareVersion": "v1.0.20180622 GCC4.9.2",
  "DerivedVendorReportedEchoSpacing": 0.000539986,
  "DeviceSerialNumber": "166078",
  "DwellTime": 2.1e-06,
  "EchoTime": 0.034,
  "EchoTrainLength": 100,
  "EffectiveEchoSpacing": 0.000539986,
  "FlipAngle": 90,
  "ImageOrientationPatientDICOM": [0.999781, 0.0205844, -0.00387164, -0.0209424, 0.985497, -0.168395],
  "ImageType": [
    "ORIGINAL",
    "PRIMARY",
    "M",
    "ND",
    "MOSAIC"
],
  "InPlanePhaseEncodingDirectionDICOM": "COL",
  "InstitutionAddress": "Street_StreetNo_Bei_Jing_District_CN_ZIP",
  "InstitutionName": "BeiJing_Normal_University",
  "InstitutionalDepartmentName": "Department",
  "MRAcquisitionType": "2D",
  "MagneticFieldStrength": 3,
  "Manufacturer": "Siemens",
  "ManufacturersModelName": "Prisma",
  "Modality": "MR",
  "MultibandAccelerationFactor": 3,
  "PartialFourier": 1,
  "PatientPosition": "HFS",
  "PercentPhaseFOV": 100,
  "PhaseEncodingDirection": "j-",
  "PhaseEncodingSteps": 100,
  "PhaseResolution": 1,
  "PixelBandwidth": 2380,
  "ProcedureStepDescription": "BNU_P2018_64CH_Liu.Jia",
  "ProtocolName": "bold_100x100_s3_2x2x2_232",
  "PulseSequenceDetails": "%SiemensSeq%_ep2d_bold",
  "ReceiveCoilActiveElements": "HC1-7;NC1",
  "ReceiveCoilName": "HeadNeck_64",
  "ReconMatrixPE": 100,
  "RepetitionTime": 2,
  "SAR": 0.0787778,
  "ScanOptions": "FS",
  "ScanningSequence": "EP",
  "SequenceName": "_epfid2d1_100",
  "SequenceVariant": "SK",
  "SeriesDescription": "bold_100x100_s3_2x2x2_232",
  "SeriesNumber": 5,
  "ShimSetting": [-5460, -11469, -1291, 255, 16, -162, -168, 24],
  "SliceThickness": 2,
  "SliceTiming": [1.485, 0, 0.99, 0.0825, 1.0725, 0.165, 1.155, 0.2475, 1.2375, 0.33, 1.32, 0.4125, 1.4025, 0.5775, 1.5675, 0.66, 1.65, 0.7425, 1.7325, 0.825, 1.815, 0.9075, 1.8975, 0.495, 1.485, 0, 0.99, 0.0825, 1.0725, 0.165, 1.155, 0.2475, 1.2375, 0.33, 1.32, 0.4125, 1.4025, 0.5775, 1.5675, 0.66, 1.65, 0.7425, 1.7325, 0.825, 1.815, 0.9075, 1.8975, 0.495, 1.485, 0, 0.99, 0.0825, 1.0725, 0.165, 1.155, 0.2475, 1.2375, 0.33, 1.32, 0.4125, 1.4025, 0.5775, 1.5675, 0.66, 1.65, 0.7425, 1.7325, 0.825, 1.815, 0.9075, 1.8975, 0.495],
  "SoftwareVersions": "syngo_MR_E11",
  "SpacingBetweenSlices": 2,
  "StationName": "AWP166078",
  "TaskName": "motor",
  "TotalReadoutTime": 0.0534586,
  "TxRefAmp": 218.708,
  "dcmmeta_affine": [
    [-1.9995611906051636, -0.04188479110598564, -0.0006983785424381495, 103.91352844238281],
    [-0.04116873815655708, 1.970994234085083, -0.3368781805038452, -76.87960815429688],
    [-0.007743285968899727, 0.33678990602493286, 1.9714239835739136, -94.23368072509766],
    [0.0, 0.0, 0.0, 1.0]
],
  "dcmmeta_reorient_transform": [
    [0.0, -1.0, 0.0, 99.0],
    [1.0, 0.0, 0.0, 0.0],
    [0.0, 0.0, 1.0, 0.0],
    [0.0, 0.0, 0.0, 1.0]
],
  "dcmmeta_shape": [100, 100, 72, 232],
  "dcmmeta_slice_dim": 2,
  "dcmmeta_version": 0.6,
  "global": {
    "const": {
      "AcquisitionMatrix": [100, 0, 0, 100],
      "AngioFlag": "N",
      "BitsAllocated": 16,
      "BitsStored": 12,
      "BodyPartExamined": "BRAIN",
      "Columns": 900,
      "EchoNumbers": 1,
      "EchoTime": 34.0,
      "EchoTrainLength": 100,
      "FlipAngle": 90.0,
      "HighBit": 11,
      "ImageOrientationPatient": [0.99978062300226, 0.02058436905406, -0.0038716430435, -0.0209423956622, 0.98549711172408, -0.1683949489962],
      "ImagePositionPatient": [-882.83751584456, -923.11400156934, 76.921791661417],
      "ImageType": [
        "ORIGINAL",
        "PRIMARY",
        "M",
        "ND",
        "MOSAIC"
],
      "ImagedNucleus": "1H",
      "ImagingFrequency": 123.25781,
      "InPlanePhaseEncodingDirection": "COL",
      "MRAcquisitionType": "2D",
      "MagneticFieldStrength": 3.0,
      "Manufacturer": "SIEMENS",
      "ManufacturerModelName": "Prisma",
      "Modality": "MR",
      "NumberOfAverages": 1.0,
      "NumberOfPhaseEncodingSteps": 100,
      "PercentPhaseFieldOfView": 100.0,
      "PercentSampling": 100.0,
      "PerformedProcedureStepStartTime": "085317.575000",
      "PhotometricInterpretation": "MONOCHROME2",
      "PixelBandwidth": 2380.0,
      "PixelRepresentation": 0,
      "PixelSpacing": [2.0, 2.0],
      "ProtocolName": "bold_100x100_s3_2x2x2_232",
      "RepetitionTime": 2000.0,
      "Rows": 900,
      "SAR": 0.07877778500766,
      "SamplesPerPixel": 1,
      "ScanOptions": "FS",
      "ScanningSequence": "EP",
      "SequenceName": "*epfid2d1_100",
      "SequenceVariant": "SK",
      "SeriesDescription": "bold_100x100_s3_2x2x2_232",
      "SeriesNumber": 5,
      "SeriesTime": "090649.148000",
      "SliceLocation": -79.974025102065,
      "SliceThickness": 2.0,
      "SmallestImagePixelValue": 0,
      "SoftwareVersions": "syngo MR E11",
      "SpacingBetweenSlices": 1.9999999877209,
      "SpecificCharacterSet": "ISO_IR 100",
      "StudyID": "1",
      "StudyTime": "085317.426000",
      "TransmitCoilName": "Body",
      "VariableFlipAngleFlag": "N",
      "WindowCenterWidthExplanation": "Algo1",
      "dBdt": 0.0},
    "slices": {}
  },
  "time": {
    "samples": {
      "AcquisitionNumber": [1, 2, 3, 4, 5, 6, 7, 8, 9, 10, 11, 12, 13, 14, 15, 16, 17, 18, 19, 20, 21, 22, 23, 24, 25, 26, 27, 28, 29, 30, 31, 32, 33, 34, 35, 36, 37, 38, 39, 40, 41, 42, 43, 44, 45, 46, 47, 48, 49, 50, 51, 52, 53, 54, 55, 56, 57, 58, 59, 60, 61, 62, 63, 64, 65, 66, 67, 68, 69, 70, 71, 72, 73, 74, 75, 76, 77, 78, 79, 80, 81, 82, 83, 84, 85, 86, 87, 88, 89, 90, 91, 92, 93, 94, 95, 96, 97, 98, 99, 100, 101, 102, 103, 104, 105, 106, 107, 108, 109, 110, 111, 112, 113, 114, 115, 116, 117, 118, 119, 120, 121, 122, 123, 124, 125, 126, 127, 128, 129, 130, 131, 132, 133, 134, 135, 136, 137, 138, 139, 140, 141, 142, 143, 144, 145, 146, 147, 148, 149, 150, 151, 152, 153, 154, 155, 156, 157, 158, 159, 160, 161, 162, 163, 164, 165, 166, 167, 168, 169, 170, 171, 172, 173, 174, 175, 176, 177, 178, 179, 180, 181, 182, 183, 184, 185, 186, 187, 188, 189, 190, 191, 192, 193, 194, 195, 196, 197, 198, 199, 200, 201, 202, 203, 204, 205, 206, 207, 208, 209, 210, 211, 212, 213, 214, 215, 216, 217, 218, 219, 220, 221, 222, 223, 224, 225, 226, 227, 228, 229, 230, 231, 232],
      "AcquisitionTime": ["090646.572500", "090648.572500", "090650.572500", "090652.572500", "090654.572500", "090656.572500", "090658.572500", "090700.572500", "090702.572500", "090704.572500", "090706.572500", "090708.572500", "090710.572500", "090712.572500", "090714.572500", "090716.572500", "090718.572500", "090720.572500", "090722.572500", "090724.572500", "090726.572500", "090728.572500", "090730.572500", "090732.572500", "090734.572500", "090736.572500", "090738.572500", "090740.572500", "090742.572500", "090744.572500", "090746.572500", "090748.572500", "090750.572500", "090752.572500", "090754.572500", "090756.572500", "090758.572500", "090800.572500", "090802.572500", "090804.572500", "090806.572500", "090808.572500", "090810.572500", "090812.572500", "090814.572500", "090816.572500", "090818.572500", "090820.572500", "090822.572500", "090824.572500", "090826.572500", "090828.572500", "090830.572500", "090832.572500", "090834.572500", "090836.572500", "090838.572500", "090840.572500", "090842.572500", "090844.572500", "090846.572500", "090848.572500", "090850.572500", "090852.572500", "090854.572500", "090856.572500", "090858.572500", "090900.572500", "090902.572500", "090904.572500", "090906.572500", "090908.572500", "090910.572500", "090912.572500", "090914.572500", "090916.572500", "090918.572500", "090920.572500", "090922.572500", "090924.572500", "090926.572500", "090928.572500", "090930.572500", "090932.572500", "090934.572500", "090936.572500", "090938.572500", "090940.572500", "090942.572500", "090944.572500", "090946.572500", "090948.572500", "090950.572500", "090952.572500", "090954.572500", "090956.572500", "090958.572500", "091000.572500", "091002.572500", "091004.572500", "091006.572500", "091008.572500", "091010.572500", "091012.572500", "091014.572500", "091016.572500", "091018.572500", "091020.572500", "091022.572500", "091024.572500", "091026.572500", "091028.572500", "091030.572500", "091032.572500", "091034.572500", "091036.572500", "091038.572500", "091040.572500", "091042.572500", "091044.572500", "091046.572500", "091048.572500", "091050.572500", "091052.572500", "091054.572500", "091056.572500", "091058.572500", "091100.572500", "091102.572500", "091104.572500", "091106.572500", "091108.572500", "091110.572500", "091112.572500", "091114.572500", "091116.572500", "091118.572500", "091120.572500", "091122.572500", "091124.572500", "091126.572500", "091128.572500", "091130.572500", "091132.572500", "091134.572500", "091136.572500", "091138.572500", "091140.572500", "091142.572500", "091144.572500", "091146.572500", "091148.572500", "091150.572500", "091152.572500", "091154.572500", "091156.572500", "091158.572500", "091200.572500", "091202.572500", "091204.572500", "091206.572500", "091208.572500", "091210.572500", "091212.572500", "091214.572500", "091216.572500", "091218.572500", "091220.572500", "091222.572500", "091224.572500", "091226.572500", "091228.572500", "091230.572500", "091232.572500", "091234.572500", "091236.572500", "091238.572500", "091240.572500", "091242.572500", "091244.572500", "091246.572500", "091248.572500", "091250.572500", "091252.572500", "091254.572500", "091256.572500", "091258.572500", "091300.572500", "091302.572500", "091304.572500", "091306.572500", "091308.572500", "091310.572500", "091312.572500", "091314.572500", "091316.572500", "091318.572500", "091320.572500", "091322.572500", "091324.572500", "091326.572500", "091328.572500", "091330.572500", "091332.572500", "091334.572500", "091336.572500", "091338.572500", "091340.572500", "091342.572500", "091344.572500", "091346.572500", "091348.572500", "091350.572500", "091352.572500", "091354.572500", "091356.572500", "091358.572500", "091400.572500", "091402.572500", "091404.572500", "091406.572500", "091408.572500", "091410.572500", "091412.572500", "091414.572500", "091416.572500", "091418.572500", "091420.572500", "091422.572500", "091424.572500", "091426.572500", "091428.572500"],
      "ContentTime": ["090649.151000", "090650.643000", "090652.643000", "090654.642000", "090656.643000", "090658.643000", "090700.644000", "090702.644000", "090704.643000", "090706.643000", "090708.643000", "090710.644000", "090712.643000", "090714.643000", "090716.643000", "090718.643000", "090720.643000", "090722.643000", "090724.643000", "090726.643000", "090728.643000", "090730.643000", "090732.644000", "090734.644000", "090736.643000", "090738.643000", "090740.643000", "090742.644000", "090744.643000", "090746.643000", "090748.644000", "090750.644000", "090752.643000", "090754.643000", "090756.643000", "090758.643000", "090800.643000", "090802.644000", "090804.642000", "090806.644000", "090808.644000", "090810.643000", "090812.644000", "090814.643000", "090816.643000", "090818.643000", "090820.644000", "090822.643000", "090824.643000", "090826.644000", "090828.643000", "090830.643000", "090832.643000", "090834.643000", "090836.644000", "090838.644000", "090840.644000", "090842.643000", "090844.643000", "090846.644000", "090848.643000", "090850.643000", "090852.643000", "090854.643000", "090856.642000", "090858.643000", "090900.644000", "090902.643000", "090904.644000", "090906.643000", "090908.643000", "090910.643000", "090912.644000", "090914.642000", "090916.644000", "090918.643000", "090920.643000", "090922.644000", "090924.644000", "090926.644000", "090928.643000", "090930.643000", "090932.643000", "090934.643000", "090936.644000", "090938.644000", "090940.644000", "090942.643000", "090944.644000", "090946.643000", "090948.643000", "090950.644000", "090952.643000", "090954.644000", "090956.643000", "090958.643000", "091000.643000", "091002.644000", "091004.643000", "091006.643000", "091008.644000", "091010.643000", "091012.644000", "091014.643000", "091016.644000", "091018.643000", "091020.644000", "091022.644000", "091024.642000", "091026.644000", "091028.644000", "091030.643000", "091032.644000", "091034.643000", "091036.643000", "091038.643000", "091040.643000", "091042.644000", "091044.644000", "091046.644000", "091048.644000", "091050.643000", "091052.643000", "091054.643000", "091056.644000", "091058.643000", "091100.643000", "091102.643000", "091104.643000", "091106.643000", "091108.644000", "091110.643000", "091112.643000", "091114.643000", "091116.642000", "091118.643000", "091120.643000", "091122.644000", "091124.643000", "091126.644000", "091128.643000", "091130.643000", "091132.644000", "091134.642000", "091136.643000", "091138.644000", "091140.643000", "091142.644000", "091144.644000", "091146.644000", "091148.644000", "091150.643000", "091152.643000", "091154.643000", "091156.644000", "091158.643000", "091200.643000", "091202.644000", "091204.644000", "091206.643000", "091208.644000", "091210.643000", "091212.644000", "091214.644000", "091216.643000", "091218.644000", "091220.643000", "091222.643000", "091224.643000", "091226.643000", "091228.644000", "091230.643000", "091232.644000", "091234.643000", "091236.644000", "091238.644000", "091240.644000", "091242.643000", "091244.642000", "091246.644000", "091248.643000", "091250.643000", "091252.643000", "091254.643000", "091256.643000", "091258.644000", "091300.643000", "091302.643000", "091304.644000", "091306.644000", "091308.643000", "091310.643000", "091312.644000", "091314.643000", "091316.643000", "091318.644000", "091320.644000", "091322.643000", "091324.644000", "091326.643000", "091328.643000", "091330.643000", "091332.643000", "091334.643000", "091336.642000", "091338.643000", "091340.643000", "091342.644000", "091344.643000", "091346.643000", "091348.643000", "091350.643000", "091352.644000", "091354.642000", "091356.643000", "091358.643000", "091400.643000", "091402.644000", "091404.643000", "091406.643000", "091408.653000", "091410.644000", "091412.643000", "091414.643000", "091416.644000", "091418.644000", "091420.643000", "091422.644000", "091424.644000", "091426.644000", "091428.643000", "091430.184000"],
      "InstanceCreationTime": ["090649.151000", "090650.643000", "090652.643000", "090654.642000", "090656.643000", "090658.643000", "090700.644000", "090702.644000", "090704.643000", "090706.643000", "090708.643000", "090710.644000", "090712.643000", "090714.643000", "090716.643000", "090718.643000", "090720.643000", "090722.643000", "090724.643000", "090726.643000", "090728.643000", "090730.643000", "090732.644000", "090734.644000", "090736.643000", "090738.643000", "090740.643000", "090742.644000", "090744.643000", "090746.643000", "090748.644000", "090750.644000", "090752.643000", "090754.643000", "090756.643000", "090758.643000", "090800.643000", "090802.644000", "090804.642000", "090806.644000", "090808.644000", "090810.643000", "090812.644000", "090814.643000", "090816.643000", "090818.643000", "090820.644000", "090822.643000", "090824.643000", "090826.644000", "090828.643000", "090830.643000", "090832.643000", "090834.643000", "090836.644000", "090838.644000", "090840.644000", "090842.643000", "090844.643000", "090846.644000", "090848.643000", "090850.643000", "090852.643000", "090854.643000", "090856.642000", "090858.643000", "090900.644000", "090902.643000", "090904.644000", "090906.643000", "090908.643000", "090910.643000", "090912.644000", "090914.642000", "090916.644000", "090918.643000", "090920.643000", "090922.644000", "090924.644000", "090926.644000", "090928.643000", "090930.643000", "090932.643000", "090934.643000", "090936.644000", "090938.644000", "090940.644000", "090942.643000", "090944.644000", "090946.643000", "090948.643000", "090950.644000", "090952.643000", "090954.644000", "090956.643000", "090958.643000", "091000.643000", "091002.644000", "091004.643000", "091006.643000", "091008.644000", "091010.643000", "091012.644000", "091014.643000", "091016.644000", "091018.643000", "091020.644000", "091022.644000", "091024.642000", "091026.644000", "091028.644000", "091030.643000", "091032.644000", "091034.643000", "091036.643000", "091038.643000", "091040.643000", "091042.644000", "091044.644000", "091046.644000", "091048.644000", "091050.643000", "091052.643000", "091054.643000", "091056.644000", "091058.643000", "091100.643000", "091102.643000", "091104.643000", "091106.643000", "091108.644000", "091110.643000", "091112.643000", "091114.643000", "091116.642000", "091118.643000", "091120.643000", "091122.644000", "091124.643000", "091126.644000", "091128.643000", "091130.643000", "091132.644000", "091134.642000", "091136.643000", "091138.644000", "091140.643000", "091142.644000", "091144.644000", "091146.644000", "091148.644000", "091150.643000", "091152.643000", "091154.643000", "091156.644000", "091158.643000", "091200.643000", "091202.644000", "091204.644000", "091206.643000", "091208.644000", "091210.643000", "091212.644000", "091214.644000", "091216.643000", "091218.644000", "091220.643000", "091222.643000", "091224.643000", "091226.643000", "091228.644000", "091230.643000", "091232.644000", "091234.643000", "091236.644000", "091238.644000", "091240.644000", "091242.643000", "091244.642000", "091246.644000", "091248.643000", "091250.643000", "091252.643000", "091254.643000", "091256.643000", "091258.644000", "091300.643000", "091302.643000", "091304.644000", "091306.644000", "091308.643000", "091310.643000", "091312.644000", "091314.643000", "091316.643000", "091318.644000", "091320.644000", "091322.643000", "091324.644000", "091326.643000", "091328.643000", "091330.643000", "091332.643000", "091334.643000", "091336.642000", "091338.643000", "091340.643000", "091342.644000", "091344.643000", "091346.643000", "091348.643000", "091350.643000", "091352.644000", "091354.642000", "091356.643000", "091358.643000", "091400.643000", "091402.644000", "091404.643000", "091406.643000", "091408.653000", "091410.644000", "091412.643000", "091414.643000", "091416.644000", "091418.644000", "091420.643000", "091422.644000", "091424.644000", "091426.644000", "091428.643000", "091430.184000"],
      "InstanceNumber": [1, 2, 3, 4, 5, 6, 7, 8, 9, 10, 11, 12, 13, 14, 15, 16, 17, 18, 19, 20, 21, 22, 23, 24, 25, 26, 27, 28, 29, 30, 31, 32, 33, 34, 35, 36, 37, 38, 39, 40, 41, 42, 43, 44, 45, 46, 47, 48, 49, 50, 51, 52, 53, 54, 55, 56, 57, 58, 59, 60, 61, 62, 63, 64, 65, 66, 67, 68, 69, 70, 71, 72, 73, 74, 75, 76, 77, 78, 79, 80, 81, 82, 83, 84, 85, 86, 87, 88, 89, 90, 91, 92, 93, 94, 95, 96, 97, 98, 99, 100, 101, 102, 103, 104, 105, 106, 107, 108, 109, 110, 111, 112, 113, 114, 115, 116, 117, 118, 119, 120, 121, 122, 123, 124, 125, 126, 127, 128, 129, 130, 131, 132, 133, 134, 135, 136, 137, 138, 139, 140, 141, 142, 143, 144, 145, 146, 147, 148, 149, 150, 151, 152, 153, 154, 155, 156, 157, 158, 159, 160, 161, 162, 163, 164, 165, 166, 167, 168, 169, 170, 171, 172, 173, 174, 175, 176, 177, 178, 179, 180, 181, 182, 183, 184, 185, 186, 187, 188, 189, 190, 191, 192, 193, 194, 195, 196, 197, 198, 199, 200, 201, 202, 203, 204, 205, 206, 207, 208, 209, 210, 211, 212, 213, 214, 215, 216, 217, 218, 219, 220, 221, 222, 223, 224, 225, 226, 227, 228, 229, 230, 231, 232],
      "LargestImagePixelValue": [3085, 3046, 3014, 3040, 3002, 3029, 2985, 3044, 2997, 3034, 3019, 3089, 3032, 3050, 3054, 3048, 3043, 3010, 3053, 3044, 3130, 3064, 3115, 3005, 3034, 3058, 3142, 3364, 3106, 3280, 3084, 2928, 3193, 2945, 2945, 2995, 2988, 3010, 2975, 2936, 2999, 2991, 3013, 2996, 2983, 3017, 2981, 2977, 2957, 2985, 3047, 3044, 3027, 2999, 3016, 3040, 3016, 2971, 2941, 3012, 2986, 3016, 2975, 2963, 2966, 2993, 3033, 2949, 2975, 2991, 2974, 2978, 2971, 2944, 2997, 2996, 2991, 2995, 2986, 2969, 3005, 2978, 2973, 2975, 2974, 2952, 3001, 2964, 2971, 2967, 2987, 3002, 3017, 2992, 3022, 2966, 2980, 2953, 2983, 2957, 2974, 2968, 2996, 2992, 2991, 2813, 3353, 3099, 2795, 3014, 3102, 3024, 3568, 2912, 2852, 2902, 2887, 2934, 2941, 2949, 2921, 3022, 3021, 3090, 2781, 3486, 2709, 2928, 3397, 2873, 2889, 2882, 2875, 2945, 2936, 2917, 2891, 2893, 2915, 2874, 2945, 2950, 3005, 2976, 2935, 2936, 2963, 2956, 2934, 2932, 2906, 2869, 2854, 2875, 2889, 2904, 2939, 2902, 2975, 3015, 2930, 2924, 2915, 2960, 2966, 3000, 2980, 3016, 3024, 2947, 2970, 2999, 2984, 2991, 2956, 2981, 3039, 2982, 2919, 2904, 2924, 2982, 3032, 2992, 2999, 2947, 2930, 2948, 2941, 2923, 2909, 2872, 2904, 2940, 2881, 2895, 2936, 2938, 2961, 2980, 2958, 3076, 2679, 3297, 3446, 2879, 2842, 3311, 2988, 2862, 2876, 2891, 2948, 2964, 2909, 2925, 2954, 2980, 2970, 2911, 2886, 2964, 2981, 3038, 3040, 3039, 2924, 2899, 2881, 2878, 2904, 2900],
      "WindowCenter": [775.0, 772.0, 771.0, 772.0, 773.0, 773.0, 771.0, 771.0, 771.0, 773.0, 773.0, 774.0, 773.0, 773.0, 773.0, 774.0, 773.0, 774.0, 775.0, 776.0, 776.0, 774.0, 775.0, 775.0, 776.0, 771.0, 750.0, 764.0, 769.0, 764.0, 757.0, 759.0, 777.0, 770.0, 771.0, 771.0, 771.0, 771.0, 771.0, 771.0, 771.0, 771.0, 772.0, 772.0, 773.0, 774.0, 773.0, 771.0, 771.0, 771.0, 772.0, 772.0, 771.0, 771.0, 772.0, 774.0, 774.0, 772.0, 771.0, 772.0, 772.0, 772.0, 771.0, 770.0, 770.0, 770.0, 770.0, 769.0, 769.0, 770.0, 770.0, 770.0, 769.0, 769.0, 771.0, 771.0, 771.0, 771.0, 771.0, 771.0, 772.0, 772.0, 772.0, 771.0, 771.0, 770.0, 771.0, 771.0, 771.0, 771.0, 772.0, 773.0, 773.0, 773.0, 772.0, 772.0, 772.0, 771.0, 771.0, 770.0, 770.0, 769.0, 770.0, 771.0, 769.0, 753.0, 749.0, 745.0, 750.0, 748.0, 751.0, 741.0, 777.0, 769.0, 769.0, 770.0, 770.0, 771.0, 770.0, 769.0, 761.0, 745.0, 745.0, 760.0, 744.0, 771.0, 744.0, 749.0, 770.0, 768.0, 769.0, 769.0, 770.0, 771.0, 771.0, 770.0, 769.0, 769.0, 769.0, 770.0, 771.0, 771.0, 772.0, 772.0, 771.0, 769.0, 769.0, 769.0, 770.0, 771.0, 770.0, 769.0, 770.0, 770.0, 769.0, 769.0, 769.0, 769.0, 770.0, 771.0, 769.0, 769.0, 769.0, 769.0, 769.0, 770.0, 770.0, 770.0, 769.0, 768.0, 769.0, 770.0, 769.0, 769.0, 769.0, 768.0, 769.0, 769.0, 769.0, 769.0, 769.0, 770.0, 771.0, 771.0, 771.0, 771.0, 771.0, 769.0, 769.0, 769.0, 769.0, 769.0, 769.0, 769.0, 769.0, 769.0, 769.0, 770.0, 770.0, 771.0, 765.0, 756.0, 751.0, 761.0, 766.0, 756.0, 750.0, 769.0, 769.0, 769.0, 769.0, 769.0, 769.0, 768.0, 768.0, 769.0, 770.0, 770.0, 771.0, 770.0, 769.0, 770.0, 771.0, 771.0, 771.0, 771.0, 770.0, 770.0, 769.0, 768.0, 769.0, 769.0],
      "WindowWidth": [1684.0, 1677.0, 1674.0, 1676.0, 1678.0, 1678.0, 1673.0, 1674.0, 1675.0, 1679.0, 1680.0, 1681.0, 1679.0, 1680.0, 1680.0, 1682.0, 1680.0, 1681.0, 1686.0, 1686.0, 1687.0, 1684.0, 1685.0, 1684.0, 1688.0, 1674.0, 1621.0, 1658.0, 1669.0, 1658.0, 1635.0, 1641.0, 1690.0, 1671.0, 1673.0, 1674.0, 1673.0, 1672.0, 1672.0, 1672.0, 1674.0, 1673.0, 1677.0, 1676.0, 1679.0, 1681.0, 1678.0, 1673.0, 1672.0, 1673.0, 1675.0, 1675.0, 1674.0, 1672.0, 1676.0, 1681.0, 1681.0, 1676.0, 1672.0, 1674.0, 1676.0, 1674.0, 1671.0, 1669.0, 1669.0, 1669.0, 1670.0, 1666.0, 1666.0, 1670.0, 1670.0, 1669.0, 1667.0, 1667.0, 1671.0, 1672.0, 1672.0, 1671.0, 1672.0, 1672.0, 1674.0, 1674.0, 1675.0, 1673.0, 1671.0, 1670.0, 1672.0, 1672.0, 1673.0, 1673.0, 1675.0, 1678.0, 1679.0, 1678.0, 1677.0, 1674.0, 1675.0, 1673.0, 1673.0, 1669.0, 1669.0, 1668.0, 1669.0, 1671.0, 1667.0, 1623.0, 1616.0, 1607.0, 1618.0, 1613.0, 1619.0, 1593.0, 1695.0, 1665.0, 1666.0, 1669.0, 1669.0, 1670.0, 1670.0, 1666.0, 1646.0, 1604.0, 1605.0, 1644.0, 1604.0, 1675.0, 1602.0, 1616.0, 1674.0, 1662.0, 1665.0, 1667.0, 1668.0, 1672.0, 1671.0, 1669.0, 1666.0, 1666.0, 1667.0, 1667.0, 1670.0, 1671.0, 1675.0, 1674.0, 1671.0, 1667.0, 1667.0, 1667.0, 1670.0, 1670.0, 1667.0, 1665.0, 1667.0, 1668.0, 1666.0, 1666.0, 1666.0, 1666.0, 1669.0, 1670.0, 1666.0, 1665.0, 1666.0, 1667.0, 1667.0, 1669.0, 1669.0, 1668.0, 1667.0, 1663.0, 1666.0, 1668.0, 1667.0, 1666.0, 1666.0, 1663.0, 1666.0, 1665.0, 1665.0, 1665.0, 1666.0, 1670.0, 1672.0, 1672.0, 1672.0, 1670.0, 1670.0, 1666.0, 1665.0, 1666.0, 1666.0, 1664.0, 1665.0, 1666.0, 1664.0, 1665.0, 1666.0, 1667.0, 1668.0, 1670.0, 1656.0, 1632.0, 1619.0, 1646.0, 1659.0, 1631.0, 1618.0, 1667.0, 1667.0, 1664.0, 1665.0, 1664.0, 1665.0, 1663.0, 1664.0, 1666.0, 1669.0, 1669.0, 1670.0, 1669.0, 1666.0, 1668.0, 1670.0, 1670.0, 1671.0, 1671.0, 1668.0, 1666.0, 1665.0, 1663.0, 1665.0, 1666.0]
    },
    "slices": {}
  }
}