{
  "AcquisitionMatrixPE": 100,
  "AcquisitionNumber": 1,
  "AcquisitionTime": "09:15:21.615000",
  "BandwidthPerPixelPhaseEncode": 18.519,
  "BaseResolution": 100,
  "BodyPartExamined": "BRAIN",
  "ConsistencyInfo": "N4_VE11C_LATEST_20160120",
  "ConversionSoftware": "dcm2niix",
  "ConversionSoftwareVersion": "v1.0.20180622 GCC4.9.2",
  "DerivedVendorReportedEchoSpacing": 0.000539986,
  "DeviceSerialNumber": "166078",
  "DwellTime": 2.1e-06,
  "EchoTime": 0.034,
  "EchoTrainLength": 100,
  "EffectiveEchoSpacing": 0.000539986,
  "FlipAngle": 90,
  "ImageOrientationPatientDICOM": [0.999781, 0.0205844, -0.00387164, -0.0209424, 0.985497, -0.168395],
  "ImageType": [
    "ORIGINAL",
    "PRIMARY",
    "M",
    "ND",
    "MOSAIC"
],
  "InPlanePhaseEncodingDirectionDICOM": "COL",
  "InstitutionAddress": "Street_StreetNo_Bei_Jing_District_CN_ZIP",
  "InstitutionName": "BeiJing_Normal_University",
  "InstitutionalDepartmentName": "Department",
  "MRAcquisitionType": "2D",
  "MagneticFieldStrength": 3,
  "Manufacturer": "Siemens",
  "ManufacturersModelName": "Prisma",
  "Modality": "MR",
  "MultibandAccelerationFactor": 3,
  "PartialFourier": 1,
  "PatientPosition": "HFS",
  "PercentPhaseFOV": 100,
  "PhaseEncodingDirection": "j-",
  "PhaseEncodingSteps": 100,
  "PhaseResolution": 1,
  "PixelBandwidth": 2380,
  "ProcedureStepDescription": "BNU_P2018_64CH_Liu.Jia",
  "ProtocolName": "bold_100x100_s3_2x2x2_232",
  "PulseSequenceDetails": "%SiemensSeq%_ep2d_bold",
  "ReceiveCoilActiveElements": "HC1-7;NC1",
  "ReceiveCoilName": "HeadNeck_64",
  "ReconMatrixPE": 100,
  "RepetitionTime": 2,
  "SAR": 0.0787778,
  "ScanOptions": "FS",
  "ScanningSequence": "EP",
  "SequenceName": "_epfid2d1_100",
  "SequenceVariant": "SK",
  "SeriesDescription": "bold_100x100_s3_2x2x2_232",
  "SeriesNumber": 6,
  "ShimSetting": [-5460, -11469, -1291, 255, 16, -162, -168, 24],
  "SliceThickness": 2,
  "SliceTiming": [1.485, 0, 0.99, 0.0825, 1.0725, 0.165, 1.155, 0.2475, 1.2375, 0.33, 1.32, 0.4125, 1.4025, 0.5775, 1.5675, 0.66, 1.65, 0.7425, 1.7325, 0.825, 1.815, 0.9075, 1.8975, 0.495, 1.485, 0, 0.99, 0.0825, 1.0725, 0.165, 1.155, 0.2475, 1.2375, 0.33, 1.32, 0.4125, 1.4025, 0.5775, 1.5675, 0.66, 1.65, 0.7425, 1.7325, 0.825, 1.815, 0.9075, 1.8975, 0.495, 1.485, 0, 0.99, 0.0825, 1.0725, 0.165, 1.155, 0.2475, 1.2375, 0.33, 1.32, 0.4125, 1.4025, 0.5775, 1.5675, 0.66, 1.65, 0.7425, 1.7325, 0.825, 1.815, 0.9075, 1.8975, 0.495],
  "SoftwareVersions": "syngo_MR_E11",
  "SpacingBetweenSlices": 2,
  "StationName": "AWP166078",
  "TaskName": "motor",
  "TotalReadoutTime": 0.0534586,
  "TxRefAmp": 218.708,
  "dcmmeta_affine": [
    [-1.9995611906051636, -0.04188479110598564, -0.0006983785424381495, 103.91352844238281],
    [-0.04116873815655708, 1.970994234085083, -0.3368781805038452, -76.87960815429688],
    [-0.007743285968899727, 0.33678990602493286, 1.9714239835739136, -94.23368072509766],
    [0.0, 0.0, 0.0, 1.0]
],
  "dcmmeta_reorient_transform": [
    [0.0, -1.0, 0.0, 99.0],
    [1.0, 0.0, 0.0, 0.0],
    [0.0, 0.0, 1.0, 0.0],
    [0.0, 0.0, 0.0, 1.0]
],
  "dcmmeta_shape": [100, 100, 72, 232],
  "dcmmeta_slice_dim": 2,
  "dcmmeta_version": 0.6,
  "global": {
    "const": {
      "AcquisitionMatrix": [100, 0, 0, 100],
      "AngioFlag": "N",
      "BitsAllocated": 16,
      "BitsStored": 12,
      "BodyPartExamined": "BRAIN",
      "Columns": 900,
      "EchoNumbers": 1,
      "EchoTime": 34.0,
      "EchoTrainLength": 100,
      "FlipAngle": 90.0,
      "HighBit": 11,
      "ImageOrientationPatient": [0.99978062300226, 0.02058436905406, -0.0038716430435, -0.0209423956622, 0.98549711172408, -0.1683949489962],
      "ImagePositionPatient": [-882.83751584456, -923.11400156934, 76.921791661417],
      "ImageType": [
        "ORIGINAL",
        "PRIMARY",
        "M",
        "ND",
        "MOSAIC"
],
      "ImagedNucleus": "1H",
      "ImagingFrequency": 123.257823,
      "InPlanePhaseEncodingDirection": "COL",
      "MRAcquisitionType": "2D",
      "MagneticFieldStrength": 3.0,
      "Manufacturer": "SIEMENS",
      "ManufacturerModelName": "Prisma",
      "Modality": "MR",
      "NumberOfAverages": 1.0,
      "NumberOfPhaseEncodingSteps": 100,
      "PercentPhaseFieldOfView": 100.0,
      "PercentSampling": 100.0,
      "PerformedProcedureStepStartTime": "085317.575000",
      "PhotometricInterpretation": "MONOCHROME2",
      "PixelBandwidth": 2380.0,
      "PixelRepresentation": 0,
      "PixelSpacing": [2.0, 2.0],
      "ProtocolName": "bold_100x100_s3_2x2x2_232",
      "RepetitionTime": 2000.0,
      "Rows": 900,
      "SAR": 0.07877778500766,
      "SamplesPerPixel": 1,
      "ScanOptions": "FS",
      "ScanningSequence": "EP",
      "SequenceName": "*epfid2d1_100",
      "SequenceVariant": "SK",
      "SeriesDescription": "bold_100x100_s3_2x2x2_232",
      "SeriesNumber": 6,
      "SeriesTime": "091523.818000",
      "SliceLocation": -79.974025102065,
      "SliceThickness": 2.0,
      "SmallestImagePixelValue": 0,
      "SoftwareVersions": "syngo MR E11",
      "SpacingBetweenSlices": 1.9999999877209,
      "SpecificCharacterSet": "ISO_IR 100",
      "StudyID": "1",
      "StudyTime": "085317.426000",
      "TransmitCoilName": "Body",
      "VariableFlipAngleFlag": "N",
      "WindowCenterWidthExplanation": "Algo1",
      "dBdt": 0.0},
    "slices": {}
  },
  "time": {
    "samples": {
      "AcquisitionNumber": [1, 2, 3, 4, 5, 6, 7, 8, 9, 10, 11, 12, 13, 14, 15, 16, 17, 18, 19, 20, 21, 22, 23, 24, 25, 26, 27, 28, 29, 30, 31, 32, 33, 34, 35, 36, 37, 38, 39, 40, 41, 42, 43, 44, 45, 46, 47, 48, 49, 50, 51, 52, 53, 54, 55, 56, 57, 58, 59, 60, 61, 62, 63, 64, 65, 66, 67, 68, 69, 70, 71, 72, 73, 74, 75, 76, 77, 78, 79, 80, 81, 82, 83, 84, 85, 86, 87, 88, 89, 90, 91, 92, 93, 94, 95, 96, 97, 98, 99, 100, 101, 102, 103, 104, 105, 106, 107, 108, 109, 110, 111, 112, 113, 114, 115, 116, 117, 118, 119, 120, 121, 122, 123, 124, 125, 126, 127, 128, 129, 130, 131, 132, 133, 134, 135, 136, 137, 138, 139, 140, 141, 142, 143, 144, 145, 146, 147, 148, 149, 150, 151, 152, 153, 154, 155, 156, 157, 158, 159, 160, 161, 162, 163, 164, 165, 166, 167, 168, 169, 170, 171, 172, 173, 174, 175, 176, 177, 178, 179, 180, 181, 182, 183, 184, 185, 186, 187, 188, 189, 190, 191, 192, 193, 194, 195, 196, 197, 198, 199, 200, 201, 202, 203, 204, 205, 206, 207, 208, 209, 210, 211, 212, 213, 214, 215, 216, 217, 218, 219, 220, 221, 222, 223, 224, 225, 226, 227, 228, 229, 230, 231, 232],
      "AcquisitionTime": ["091521.615000", "091523.615000", "091525.615000", "091527.615000", "091529.615000", "091531.615000", "091533.615000", "091535.615000", "091537.615000", "091539.615000", "091541.615000", "091543.615000", "091545.615000", "091547.615000", "091549.615000", "091551.615000", "091553.615000", "091555.615000", "091557.615000", "091559.615000", "091601.615000", "091603.615000", "091605.615000", "091607.615000", "091609.615000", "091611.615000", "091613.615000", "091615.615000", "091617.615000", "091619.615000", "091621.615000", "091623.615000", "091625.615000", "091627.615000", "091629.615000", "091631.615000", "091633.615000", "091635.615000", "091637.615000", "091639.615000", "091641.615000", "091643.615000", "091645.615000", "091647.615000", "091649.615000", "091651.615000", "091653.615000", "091655.615000", "091657.615000", "091659.615000", "091701.615000", "091703.615000", "091705.615000", "091707.615000", "091709.615000", "091711.615000", "091713.615000", "091715.615000", "091717.615000", "091719.615000", "091721.615000", "091723.615000", "091725.615000", "091727.615000", "091729.615000", "091731.615000", "091733.615000", "091735.615000", "091737.615000", "091739.615000", "091741.615000", "091743.615000", "091745.615000", "091747.615000", "091749.615000", "091751.615000", "091753.615000", "091755.615000", "091757.615000", "091759.615000", "091801.615000", "091803.615000", "091805.615000", "091807.615000", "091809.615000", "091811.615000", "091813.615000", "091815.615000", "091817.615000", "091819.615000", "091821.615000", "091823.615000", "091825.615000", "091827.615000", "091829.615000", "091831.615000", "091833.615000", "091835.615000", "091837.615000", "091839.615000", "091841.615000", "091843.615000", "091845.615000", "091847.615000", "091849.615000", "091851.615000", "091853.615000", "091855.615000", "091857.615000", "091859.615000", "091901.615000", "091903.615000", "091905.615000", "091907.615000", "091909.615000", "091911.615000", "091913.615000", "091915.615000", "091917.615000", "091919.615000", "091921.615000", "091923.615000", "091925.615000", "091927.615000", "091929.615000", "091931.615000", "091933.615000", "091935.615000", "091937.615000", "091939.615000", "091941.615000", "091943.615000", "091945.615000", "091947.615000", "091949.615000", "091951.615000", "091953.615000", "091955.615000", "091957.615000", "091959.615000", "092001.615000", "092003.615000", "092005.615000", "092007.615000", "092009.615000", "092011.615000", "092013.615000", "092015.615000", "092017.615000", "092019.615000", "092021.615000", "092023.615000", "092025.615000", "092027.615000", "092029.615000", "092031.615000", "092033.615000", "092035.615000", "092037.615000", "092039.615000", "092041.615000", "092043.615000", "092045.615000", "092047.615000", "092049.615000", "092051.615000", "092053.615000", "092055.615000", "092057.615000", "092059.615000", "092101.615000", "092103.615000", "092105.615000", "092107.615000", "092109.615000", "092111.615000", "092113.615000", "092115.615000", "092117.615000", "092119.615000", "092121.615000", "092123.615000", "092125.615000", "092127.615000", "092129.615000", "092131.615000", "092133.615000", "092135.615000", "092137.615000", "092139.615000", "092141.615000", "092143.615000", "092145.615000", "092147.615000", "092149.615000", "092151.615000", "092153.615000", "092155.615000", "092157.615000", "092159.615000", "092201.615000", "092203.615000", "092205.615000", "092207.615000", "092209.615000", "092211.615000", "092213.615000", "092215.615000", "092217.615000", "092219.615000", "092221.615000", "092223.615000", "092225.615000", "092227.615000", "092229.615000", "092231.615000", "092233.615000", "092235.615000", "092237.615000", "092239.615000", "092241.615000", "092243.615000", "092245.615000", "092247.615000", "092249.615000", "092251.615000", "092253.615000", "092255.615000", "092257.615000", "092259.615000", "092301.615000", "092303.615000"],
      "ContentTime": ["091523.821000", "091525.318000", "091527.318000", "091529.317000", "091531.317000", "091533.318000", "091535.317000", "091537.317000", "091539.317000", "091541.317000", "091543.317000", "091545.317000", "091547.317000", "091549.317000", "091551.317000", "091553.317000", "091555.317000", "091557.319000", "091559.317000", "091601.318000", "091603.317000", "091605.317000", "091607.317000", "091609.318000", "091611.317000", "091613.317000", "091615.318000", "091617.317000", "091619.318000", "091621.318000", "091623.317000", "091625.317000", "091627.317000", "091629.318000", "091631.317000", "091633.318000", "091635.317000", "091637.318000", "091639.318000", "091641.317000", "091643.317000", "091645.318000", "091647.317000", "091649.317000", "091651.317000", "091653.318000", "091655.317000", "091657.318000", "091659.317000", "091701.317000", "091703.317000", "091705.318000", "091707.318000", "091709.318000", "091711.317000", "091713.318000", "091715.318000", "091717.317000", "091719.317000", "091721.317000", "091723.317000", "091725.319000", "091727.318000", "091729.318000", "091731.317000", "091733.318000", "091735.317000", "091737.318000", "091739.317000", "091741.317000", "091743.318000", "091745.318000", "091747.318000", "091749.317000", "091751.318000", "091753.317000", "091755.318000", "091757.318000", "091759.317000", "091801.317000", "091803.317000", "091805.317000", "091807.317000", "091809.318000", "091811.317000", "091813.317000", "091815.317000", "091817.318000", "091819.317000", "091821.318000", "091823.317000", "091825.317000", "091827.317000", "091829.317000", "091831.317000", "091833.317000", "091835.318000", "091837.317000", "091839.318000", "091841.317000", "091843.317000", "091845.317000", "091847.318000", "091849.317000", "091851.317000", "091853.318000", "091855.317000", "091857.318000", "091859.317000", "091901.317000", "091903.317000", "091905.317000", "091907.317000", "091909.318000", "091911.317000", "091913.317000", "091915.317000", "091917.318000", "091919.317000", "091921.318000", "091923.318000", "091925.318000", "091927.318000", "091929.317000", "091931.317000", "091933.318000", "091935.317000", "091937.317000", "091939.317000", "091941.318000", "091943.317000", "091945.318000", "091947.318000", "091949.317000", "091951.317000", "091953.318000", "091955.318000", "091957.318000", "091959.317000", "092001.317000", "092003.319000", "092005.317000", "092007.318000", "092009.317000", "092011.317000", "092013.317000", "092015.318000", "092017.318000", "092019.317000", "092021.317000", "092023.318000", "092025.317000", "092027.317000", "092029.318000", "092031.317000", "092033.317000", "092035.317000", "092037.319000", "092039.318000", "092041.317000", "092043.337000", "092045.318000", "092047.317000", "092049.317000", "092051.317000", "092053.318000", "092055.319000", "092057.318000", "092059.318000", "092101.317000", "092103.317000", "092105.318000", "092107.317000", "092109.317000", "092111.317000", "092113.319000", "092115.318000", "092117.318000", "092119.318000", "092121.317000", "092123.318000", "092125.318000", "092127.318000", "092129.317000", "092131.317000", "092133.318000", "092135.317000", "092137.318000", "092139.318000", "092141.317000", "092143.318000", "092145.318000", "092147.318000", "092149.318000", "092151.317000", "092153.317000", "092155.318000", "092157.318000", "092159.318000", "092201.317000", "092203.317000", "092205.318000", "092207.318000", "092209.318000", "092211.317000", "092213.318000", "092215.318000", "092217.317000", "092219.318000", "092221.318000", "092223.319000", "092225.318000", "092227.318000", "092229.317000", "092231.317000", "092233.317000", "092235.318000", "092237.318000", "092239.317000", "092241.318000", "092243.318000", "092245.318000", "092247.318000", "092249.318000", "092251.317000", "092253.317000", "092255.317000", "092257.318000", "092259.317000", "092301.318000", "092303.317000", "092304.888000"],
      "InstanceCreationTime": ["091523.821000", "091525.318000", "091527.318000", "091529.317000", "091531.317000", "091533.318000", "091535.317000", "091537.317000", "091539.317000", "091541.317000", "091543.317000", "091545.317000", "091547.317000", "091549.317000", "091551.317000", "091553.317000", "091555.317000", "091557.319000", "091559.317000", "091601.318000", "091603.317000", "091605.317000", "091607.317000", "091609.318000", "091611.317000", "091613.317000", "091615.318000", "091617.317000", "091619.318000", "091621.318000", "091623.317000", "091625.317000", "091627.317000", "091629.318000", "091631.317000", "091633.318000", "091635.317000", "091637.318000", "091639.318000", "091641.317000", "091643.317000", "091645.318000", "091647.317000", "091649.317000", "091651.317000", "091653.318000", "091655.317000", "091657.318000", "091659.317000", "091701.317000", "091703.317000", "091705.318000", "091707.318000", "091709.318000", "091711.317000", "091713.318000", "091715.318000", "091717.317000", "091719.317000", "091721.317000", "091723.317000", "091725.319000", "091727.318000", "091729.318000", "091731.317000", "091733.318000", "091735.317000", "091737.318000", "091739.317000", "091741.317000", "091743.318000", "091745.318000", "091747.318000", "091749.317000", "091751.318000", "091753.317000", "091755.318000", "091757.318000", "091759.317000", "091801.317000", "091803.317000", "091805.317000", "091807.317000", "091809.318000", "091811.317000", "091813.317000", "091815.317000", "091817.318000", "091819.317000", "091821.318000", "091823.317000", "091825.317000", "091827.317000", "091829.317000", "091831.317000", "091833.317000", "091835.318000", "091837.317000", "091839.318000", "091841.317000", "091843.317000", "091845.317000", "091847.318000", "091849.317000", "091851.317000", "091853.318000", "091855.317000", "091857.318000", "091859.317000", "091901.317000", "091903.317000", "091905.317000", "091907.317000", "091909.318000", "091911.317000", "091913.317000", "091915.317000", "091917.318000", "091919.317000", "091921.318000", "091923.318000", "091925.318000", "091927.318000", "091929.317000", "091931.317000", "091933.318000", "091935.317000", "091937.317000", "091939.317000", "091941.318000", "091943.317000", "091945.318000", "091947.318000", "091949.317000", "091951.317000", "091953.318000", "091955.318000", "091957.318000", "091959.317000", "092001.317000", "092003.319000", "092005.317000", "092007.318000", "092009.317000", "092011.317000", "092013.317000", "092015.318000", "092017.318000", "092019.317000", "092021.317000", "092023.318000", "092025.317000", "092027.317000", "092029.318000", "092031.317000", "092033.317000", "092035.317000", "092037.319000", "092039.318000", "092041.317000", "092043.337000", "092045.318000", "092047.317000", "092049.317000", "092051.317000", "092053.318000", "092055.319000", "092057.318000", "092059.318000", "092101.317000", "092103.317000", "092105.318000", "092107.317000", "092109.317000", "092111.317000", "092113.319000", "092115.318000", "092117.318000", "092119.318000", "092121.317000", "092123.318000", "092125.318000", "092127.318000", "092129.317000", "092131.317000", "092133.318000", "092135.317000", "092137.318000", "092139.318000", "092141.317000", "092143.318000", "092145.318000", "092147.318000", "092149.318000", "092151.317000", "092153.317000", "092155.318000", "092157.318000", "092159.318000", "092201.317000", "092203.317000", "092205.318000", "092207.318000", "092209.318000", "092211.317000", "092213.318000", "092215.318000", "092217.317000", "092219.318000", "092221.318000", "092223.319000", "092225.318000", "092227.318000", "092229.317000", "092231.317000", "092233.317000", "092235.318000", "092237.318000", "092239.317000", "092241.318000", "092243.318000", "092245.318000", "092247.318000", "092249.318000", "092251.317000", "092253.317000", "092255.317000", "092257.318000", "092259.317000", "092301.318000", "092303.317000", "092304.888000"],
      "InstanceNumber": [1, 2, 3, 4, 5, 6, 7, 8, 9, 10, 11, 12, 13, 14, 15, 16, 17, 18, 19, 20, 21, 22, 23, 24, 25, 26, 27, 28, 29, 30, 31, 32, 33, 34, 35, 36, 37, 38, 39, 40, 41, 42, 43, 44, 45, 46, 47, 48, 49, 50, 51, 52, 53, 54, 55, 56, 57, 58, 59, 60, 61, 62, 63, 64, 65, 66, 67, 68, 69, 70, 71, 72, 73, 74, 75, 76, 77, 78, 79, 80, 81, 82, 83, 84, 85, 86, 87, 88, 89, 90, 91, 92, 93, 94, 95, 96, 97, 98, 99, 100, 101, 102, 103, 104, 105, 106, 107, 108, 109, 110, 111, 112, 113, 114, 115, 116, 117, 118, 119, 120, 121, 122, 123, 124, 125, 126, 127, 128, 129, 130, 131, 132, 133, 134, 135, 136, 137, 138, 139, 140, 141, 142, 143, 144, 145, 146, 147, 148, 149, 150, 151, 152, 153, 154, 155, 156, 157, 158, 159, 160, 161, 162, 163, 164, 165, 166, 167, 168, 169, 170, 171, 172, 173, 174, 175, 176, 177, 178, 179, 180, 181, 182, 183, 184, 185, 186, 187, 188, 189, 190, 191, 192, 193, 194, 195, 196, 197, 198, 199, 200, 201, 202, 203, 204, 205, 206, 207, 208, 209, 210, 211, 212, 213, 214, 215, 216, 217, 218, 219, 220, 221, 222, 223, 224, 225, 226, 227, 228, 229, 230, 231, 232],
      "LargestImagePixelValue": [2962, 2945, 2923, 2886, 2936, 2867, 2885, 2830, 2856, 2958, 3151, 2946, 3311, 3150, 2818, 3165, 2969, 2874, 2861, 2843, 2883, 2866, 2887, 2883, 2864, 2886, 2882, 2940, 2935, 2910, 2883, 2890, 2926, 2913, 2843, 2882, 2903, 2916, 2895, 2953, 2950, 2927, 2908, 2908, 2906, 2911, 2913, 2875, 2854, 2860, 2908, 2890, 2870, 2927, 2880, 2900, 2872, 2907, 2874, 2884, 2870, 2859, 2878, 2885, 2874, 2851, 2891, 2886, 2866, 2855, 2858, 2852, 2886, 2912, 2900, 2915, 2877, 2887, 2863, 2864, 2837, 2867, 2893, 2892, 2858, 2833, 2853, 2869, 2925, 2915, 2890, 2853, 2863, 2888, 2857, 2878, 2872, 2871, 2895, 2872, 2908, 2872, 2896, 2924, 2877, 2992, 2840, 2961, 2909, 2932, 2903, 2928, 2959, 2894, 2874, 2810, 2825, 2830, 2857, 2851, 2870, 3164, 2981, 3032, 3387, 2980, 3131, 3136, 2862, 2815, 2813, 2864, 2868, 2953, 2900, 2893, 2915, 2912, 2852, 2832, 2825, 2864, 2918, 2917, 2866, 2854, 2832, 2859, 2872, 2885, 2858, 2826, 2887, 2935, 2919, 2838, 2822, 2883, 2879, 2891, 2901, 2845, 2855, 2889, 2899, 2905, 2911, 2872, 2841, 2881, 2874, 2868, 2852, 2857, 2849, 2910, 2909, 2913, 2887, 2834, 2864, 2878, 2847, 2915, 2882, 2904, 2884, 2874, 2881, 2875, 2871, 2884, 2876, 2885, 2881, 2881, 2893, 2898, 2906, 2889, 2890, 2858, 2857, 2898, 2869, 2929, 2910, 2918, 2955, 2938, 2975, 2924, 2917, 2852, 2911, 2909, 2945, 3125, 3094, 3161, 3087, 2915, 2968, 2964, 2846, 2853, 2926, 2961, 2902, 2945, 3023, 3021],
      "WindowCenter": [771.0, 770.0, 769.0, 767.0, 768.0, 769.0, 769.0, 769.0, 762.0, 759.0, 765.0, 752.0, 771.0, 770.0, 759.0, 767.0, 771.0, 770.0, 770.0, 771.0, 771.0, 772.0, 771.0, 772.0, 771.0, 771.0, 770.0, 771.0, 770.0, 771.0, 771.0, 770.0, 769.0, 767.0, 766.0, 767.0, 767.0, 769.0, 770.0, 770.0, 770.0, 770.0, 770.0, 771.0, 770.0, 770.0, 770.0, 770.0, 770.0, 771.0, 770.0, 768.0, 768.0, 768.0, 768.0, 768.0, 768.0, 770.0, 770.0, 770.0, 770.0, 769.0, 769.0, 769.0, 769.0, 769.0, 770.0, 769.0, 769.0, 769.0, 770.0, 769.0, 769.0, 770.0, 770.0, 770.0, 770.0, 770.0, 769.0, 769.0, 769.0, 770.0, 771.0, 771.0, 770.0, 769.0, 769.0, 770.0, 772.0, 772.0, 771.0, 769.0, 768.0, 768.0, 768.0, 769.0, 769.0, 770.0, 770.0, 770.0, 770.0, 769.0, 769.0, 770.0, 768.0, 772.0, 766.0, 770.0, 766.0, 767.0, 769.0, 767.0, 773.0, 772.0, 771.0, 771.0, 770.0, 771.0, 769.0, 769.0, 767.0, 764.0, 765.0, 763.0, 769.0, 760.0, 766.0, 770.0, 770.0, 769.0, 769.0, 768.0, 769.0, 770.0, 769.0, 770.0, 769.0, 770.0, 768.0, 769.0, 768.0, 769.0, 771.0, 772.0, 770.0, 770.0, 770.0, 770.0, 771.0, 772.0, 771.0, 769.0, 769.0, 769.0, 770.0, 770.0, 770.0, 770.0, 771.0, 771.0, 771.0, 770.0, 769.0, 769.0, 770.0, 770.0, 770.0, 770.0, 770.0, 770.0, 771.0, 770.0, 770.0, 769.0, 769.0, 770.0, 770.0, 771.0, 769.0, 767.0, 767.0, 768.0, 768.0, 769.0, 768.0, 769.0, 768.0, 768.0, 768.0, 768.0, 768.0, 770.0, 769.0, 768.0, 766.0, 764.0, 765.0, 766.0, 768.0, 769.0, 770.0, 770.0, 771.0, 771.0, 770.0, 772.0, 771.0, 772.0, 772.0, 773.0, 773.0, 773.0, 772.0, 770.0, 771.0, 771.0, 772.0, 772.0, 767.0, 769.0, 768.0, 768.0, 767.0, 768.0, 769.0, 770.0, 771.0, 773.0, 772.0, 772.0, 772.0, 772.0],
      "WindowWidth": [1673.0, 1669.0, 1665.0, 1662.0, 1665.0, 1667.0, 1666.0, 1666.0, 1649.0, 1641.0, 1658.0, 1625.0, 1675.0, 1670.0, 1641.0, 1663.0, 1672.0, 1668.0, 1669.0, 1673.0, 1673.0, 1674.0, 1672.0, 1674.0, 1672.0, 1671.0, 1669.0, 1672.0, 1669.0, 1672.0, 1671.0, 1668.0, 1666.0, 1661.0, 1659.0, 1660.0, 1661.0, 1667.0, 1668.0, 1669.0, 1668.0, 1670.0, 1670.0, 1671.0, 1669.0, 1670.0, 1670.0, 1668.0, 1668.0, 1671.0, 1668.0, 1665.0, 1664.0, 1664.0, 1663.0, 1665.0, 1663.0, 1669.0, 1670.0, 1670.0, 1669.0, 1666.0, 1666.0, 1666.0, 1667.0, 1666.0, 1668.0, 1666.0, 1666.0, 1666.0, 1668.0, 1667.0, 1667.0, 1668.0, 1670.0, 1670.0, 1670.0, 1669.0, 1667.0, 1667.0, 1666.0, 1668.0, 1671.0, 1671.0, 1669.0, 1666.0, 1666.0, 1669.0, 1675.0, 1676.0, 1670.0, 1666.0, 1662.0, 1662.0, 1663.0, 1665.0, 1666.0, 1668.0, 1669.0, 1668.0, 1668.0, 1666.0, 1667.0, 1668.0, 1662.0, 1674.0, 1657.0, 1669.0, 1659.0, 1663.0, 1666.0, 1662.0, 1678.0, 1674.0, 1671.0, 1671.0, 1668.0, 1670.0, 1666.0, 1667.0, 1661.0, 1654.0, 1657.0, 1652.0, 1669.0, 1642.0, 1660.0, 1671.0, 1668.0, 1665.0, 1665.0, 1664.0, 1665.0, 1668.0, 1666.0, 1668.0, 1666.0, 1668.0, 1664.0, 1665.0, 1664.0, 1667.0, 1671.0, 1674.0, 1670.0, 1669.0, 1668.0, 1669.0, 1673.0, 1674.0, 1670.0, 1666.0, 1667.0, 1667.0, 1670.0, 1668.0, 1668.0, 1668.0, 1670.0, 1671.0, 1670.0, 1667.0, 1667.0, 1667.0, 1669.0, 1669.0, 1670.0, 1669.0, 1670.0, 1669.0, 1670.0, 1667.0, 1667.0, 1666.0, 1666.0, 1668.0, 1670.0, 1671.0, 1666.0, 1661.0, 1661.0, 1664.0, 1662.0, 1666.0, 1663.0, 1666.0, 1664.0, 1664.0, 1663.0, 1664.0, 1663.0, 1669.0, 1667.0, 1662.0, 1656.0, 1652.0, 1654.0, 1657.0, 1662.0, 1666.0, 1669.0, 1668.0, 1671.0, 1672.0, 1670.0, 1674.0, 1672.0, 1674.0, 1675.0, 1677.0, 1678.0, 1677.0, 1673.0, 1669.0, 1671.0, 1672.0, 1674.0, 1675.0, 1662.0, 1667.0, 1664.0, 1663.0, 1661.0, 1665.0, 1667.0, 1668.0, 1672.0, 1676.0, 1675.0, 1675.0, 1675.0, 1673.0]
    },
    "slices": {}
  }
}