{
  "AcquisitionMatrixPE": 100,
  "AcquisitionNumber": 1,
  "AcquisitionTime": "10:36:33.985000",
  "BandwidthPerPixelPhaseEncode": 18.519,
  "BaseResolution": 100,
  "BodyPartExamined": "BRAIN",
  "ConsistencyInfo": "N4_VE11C_LATEST_20160120",
  "ConversionSoftware": "dcm2niix",
  "ConversionSoftwareVersion": "v1.0.20180622 GCC4.9.2",
  "DerivedVendorReportedEchoSpacing": 0.000539986,
  "DeviceSerialNumber": "166078",
  "DwellTime": 2.1e-06,
  "EchoTime": 0.034,
  "EchoTrainLength": 100,
  "EffectiveEchoSpacing": 0.000539986,
  "FlipAngle": 90,
  "ImageOrientationPatientDICOM": [1, -0.000107063, -0.000556199, 1.02462e-08, 0.981977, -0.189002],
  "ImageType": [
    "ORIGINAL",
    "PRIMARY",
    "M",
    "ND",
    "MOSAIC"
],
  "InPlanePhaseEncodingDirectionDICOM": "COL",
  "InstitutionAddress": "Street_StreetNo_Bei_Jing_District_CN_ZIP",
  "InstitutionName": "BeiJing_Normal_University",
  "InstitutionalDepartmentName": "Department",
  "MRAcquisitionType": "2D",
  "MagneticFieldStrength": 3,
  "Manufacturer": "Siemens",
  "ManufacturersModelName": "Prisma",
  "Modality": "MR",
  "MultibandAccelerationFactor": 3,
  "PartialFourier": 1,
  "PatientPosition": "HFS",
  "PercentPhaseFOV": 100,
  "PhaseEncodingDirection": "j-",
  "PhaseEncodingSteps": 100,
  "PhaseResolution": 1,
  "PixelBandwidth": 2380,
  "ProcedureStepDescription": "BNU_P2018_64CH_Liu.Jia",
  "ProtocolName": "bold_100x100_s3_2x2x2_232",
  "PulseSequenceDetails": "%SiemensSeq%_ep2d_bold",
  "ReceiveCoilActiveElements": "HC1-7;NC1",
  "ReceiveCoilName": "HeadNeck_64",
  "ReconMatrixPE": 100,
  "RepetitionTime": 2,
  "SAR": 0.0673566,
  "ScanOptions": "FS",
  "ScanningSequence": "EP",
  "SequenceName": "_epfid2d1_100",
  "SequenceVariant": "SK",
  "SeriesDescription": "bold_100x100_s3_2x2x2_232",
  "SeriesNumber": 4,
  "ShimSetting": [-5458, -11507, -1280, 407, -44, -209, -165, 85],
  "SliceThickness": 2,
  "SliceTiming": [1.485, 0, 0.99, 0.0825, 1.0725, 0.165, 1.155, 0.2475, 1.2375, 0.33, 1.32, 0.4125, 1.4025, 0.5775, 1.5675, 0.66, 1.65, 0.7425, 1.7325, 0.825, 1.815, 0.9075, 1.8975, 0.495, 1.485, 0, 0.99, 0.0825, 1.0725, 0.165, 1.155, 0.2475, 1.2375, 0.33, 1.32, 0.4125, 1.4025, 0.5775, 1.5675, 0.66, 1.65, 0.7425, 1.7325, 0.825, 1.815, 0.9075, 1.8975, 0.495, 1.485, 0, 0.99, 0.0825, 1.0725, 0.165, 1.155, 0.2475, 1.2375, 0.33, 1.32, 0.4125, 1.4025, 0.5775, 1.5675, 0.66, 1.65, 0.7425, 1.7325, 0.825, 1.815, 0.9075, 1.8975, 0.495],
  "SoftwareVersions": "syngo_MR_E11",
  "SpacingBetweenSlices": 2,
  "StationName": "AWP166078",
  "TaskName": "motor",
  "TotalReadoutTime": 0.0534586,
  "TxRefAmp": 221.301,
  "dcmmeta_affine": [
    [-1.9999996423721313, 2.049231717649036e-08, -0.0011328199179843068, 101.350830078125],
    [0.00021412553905975074, 1.9639533758163452, -0.3780042827129364, -80.23090362548828],
    [-0.0011123988078907132, 0.3780043423175812, 1.9639530181884766, -94.81794738769531],
    [0.0, 0.0, 0.0, 1.0]
],
  "dcmmeta_reorient_transform": [
    [0.0, -1.0, 0.0, 99.0],
    [1.0, 0.0, 0.0, 0.0],
    [0.0, 0.0, 1.0, 0.0],
    [0.0, 0.0, 0.0, 1.0]
],
  "dcmmeta_shape": [100, 100, 72, 232],
  "dcmmeta_slice_dim": 2,
  "dcmmeta_version": 0.6,
  "global": {
    "const": {
      "AcquisitionMatrix": [100, 0, 0, 100],
      "AngioFlag": "N",
      "BitsAllocated": 16,
      "BitsStored": 12,
      "BodyPartExamined": "BRAIN",
      "Columns": 900,
      "EchoNumbers": 1,
      "EchoTime": 34.0,
      "EchoTrainLength": 100,
      "FlipAngle": 90.0,
      "HighBit": 11,
      "ImageOrientationPatient": [0.99999983958988, -0.0001070627665, -0.0005561994108, 1.0246159e-08, 0.98197667059432, -0.1890021650894],
      "ImagePositionPatient": [-901.35071543456, -899.69616061008, 94.251171543823],
      "ImageType": [
        "ORIGINAL",
        "PRIMARY",
        "M",
        "ND",
        "MOSAIC"
],
      "ImagedNucleus": "1H",
      "ImagingFrequency": 123.257833,
      "InPlanePhaseEncodingDirection": "COL",
      "MRAcquisitionType": "2D",
      "MagneticFieldStrength": 3.0,
      "Manufacturer": "SIEMENS",
      "ManufacturerModelName": "Prisma",
      "Modality": "MR",
      "NumberOfAverages": 1.0,
      "NumberOfPhaseEncodingSteps": 100,
      "PercentPhaseFieldOfView": 100.0,
      "PercentSampling": 100.0,
      "PerformedProcedureStepStartTime": "102529.662000",
      "PhotometricInterpretation": "MONOCHROME2",
      "PixelBandwidth": 2380.0,
      "PixelRepresentation": 0,
      "PixelSpacing": [2.0, 2.0],
      "ProtocolName": "bold_100x100_s3_2x2x2_232",
      "RepetitionTime": 2000.0,
      "Rows": 900,
      "SAR": 0.06735661028479,
      "SamplesPerPixel": 1,
      "ScanOptions": "FS",
      "ScanningSequence": "EP",
      "SequenceName": "*epfid2d1_100",
      "SequenceVariant": "SK",
      "SeriesDescription": "bold_100x100_s3_2x2x2_232",
      "SeriesNumber": 4,
      "SeriesTime": "103636.585000",
      "SliceLocation": -78.002592214855,
      "SliceThickness": 2.0,
      "SmallestImagePixelValue": 0,
      "SoftwareVersions": "syngo MR E11",
      "SpacingBetweenSlices": 2.000000019704,
      "SpecificCharacterSet": "ISO_IR 100",
      "StudyID": "1",
      "StudyTime": "102529.600000",
      "TransmitCoilName": "Body",
      "VariableFlipAngleFlag": "N",
      "WindowCenterWidthExplanation": "Algo1",
      "dBdt": 0.0},
    "slices": {}
  },
  "time": {
    "samples": {
      "AcquisitionNumber": [1, 2, 3, 4, 5, 6, 7, 8, 9, 10, 11, 12, 13, 14, 15, 16, 17, 18, 19, 20, 21, 22, 23, 24, 25, 26, 27, 28, 29, 30, 31, 32, 33, 34, 35, 36, 37, 38, 39, 40, 41, 42, 43, 44, 45, 46, 47, 48, 49, 50, 51, 52, 53, 54, 55, 56, 57, 58, 59, 60, 61, 62, 63, 64, 65, 66, 67, 68, 69, 70, 71, 72, 73, 74, 75, 76, 77, 78, 79, 80, 81, 82, 83, 84, 85, 86, 87, 88, 89, 90, 91, 92, 93, 94, 95, 96, 97, 98, 99, 100, 101, 102, 103, 104, 105, 106, 107, 108, 109, 110, 111, 112, 113, 114, 115, 116, 117, 118, 119, 120, 121, 122, 123, 124, 125, 126, 127, 128, 129, 130, 131, 132, 133, 134, 135, 136, 137, 138, 139, 140, 141, 142, 143, 144, 145, 146, 147, 148, 149, 150, 151, 152, 153, 154, 155, 156, 157, 158, 159, 160, 161, 162, 163, 164, 165, 166, 167, 168, 169, 170, 171, 172, 173, 174, 175, 176, 177, 178, 179, 180, 181, 182, 183, 184, 185, 186, 187, 188, 189, 190, 191, 192, 193, 194, 195, 196, 197, 198, 199, 200, 201, 202, 203, 204, 205, 206, 207, 208, 209, 210, 211, 212, 213, 214, 215, 216, 217, 218, 219, 220, 221, 222, 223, 224, 225, 226, 227, 228, 229, 230, 231, 232],
      "AcquisitionTime": ["103633.985000", "103635.985000", "103637.985000", "103639.985000", "103641.985000", "103643.985000", "103645.985000", "103647.985000", "103649.985000", "103651.985000", "103653.985000", "103655.985000", "103657.985000", "103659.985000", "103701.985000", "103703.985000", "103705.985000", "103707.985000", "103709.985000", "103711.985000", "103713.985000", "103715.985000", "103717.985000", "103719.985000", "103721.985000", "103723.985000", "103725.985000", "103727.985000", "103729.985000", "103731.985000", "103733.985000", "103735.985000", "103737.985000", "103739.985000", "103741.985000", "103743.985000", "103745.985000", "103747.985000", "103749.985000", "103751.985000", "103753.985000", "103755.985000", "103757.985000", "103759.985000", "103801.985000", "103803.985000", "103805.985000", "103807.985000", "103809.985000", "103811.985000", "103813.985000", "103815.985000", "103817.985000", "103819.985000", "103821.985000", "103823.985000", "103825.985000", "103827.985000", "103829.985000", "103831.985000", "103833.985000", "103835.985000", "103837.985000", "103839.985000", "103841.985000", "103843.985000", "103845.985000", "103847.985000", "103849.985000", "103851.985000", "103853.985000", "103855.985000", "103857.985000", "103859.985000", "103901.985000", "103903.985000", "103905.985000", "103907.985000", "103909.985000", "103911.985000", "103913.985000", "103915.985000", "103917.985000", "103919.985000", "103921.985000", "103923.985000", "103925.985000", "103927.985000", "103929.985000", "103931.985000", "103933.985000", "103935.985000", "103937.985000", "103939.985000", "103941.985000", "103943.985000", "103945.985000", "103947.985000", "103949.985000", "103951.985000", "103953.985000", "103955.985000", "103957.985000", "103959.985000", "104001.985000", "104003.985000", "104005.985000", "104007.985000", "104009.985000", "104011.985000", "104013.985000", "104015.985000", "104017.985000", "104019.985000", "104021.985000", "104023.985000", "104025.985000", "104027.985000", "104029.985000", "104031.985000", "104033.985000", "104035.985000", "104037.985000", "104039.985000", "104041.985000", "104043.985000", "104045.985000", "104047.985000", "104049.985000", "104051.985000", "104053.985000", "104055.985000", "104057.985000", "104059.985000", "104101.985000", "104103.985000", "104105.985000", "104107.985000", "104109.985000", "104111.985000", "104113.985000", "104115.985000", "104117.985000", "104119.985000", "104121.985000", "104123.985000", "104125.985000", "104127.985000", "104129.985000", "104131.985000", "104133.985000", "104135.985000", "104137.985000", "104139.985000", "104141.985000", "104143.985000", "104145.985000", "104147.985000", "104149.985000", "104151.985000", "104153.985000", "104155.985000", "104157.985000", "104159.985000", "104201.985000", "104203.985000", "104205.985000", "104207.985000", "104209.985000", "104211.985000", "104213.985000", "104215.985000", "104217.985000", "104219.985000", "104221.985000", "104223.985000", "104225.985000", "104227.985000", "104229.985000", "104231.985000", "104233.985000", "104235.985000", "104237.985000", "104239.985000", "104241.985000", "104243.985000", "104245.985000", "104247.985000", "104249.985000", "104251.985000", "104253.985000", "104255.985000", "104257.985000", "104259.985000", "104301.985000", "104303.985000", "104305.985000", "104307.985000", "104309.985000", "104311.985000", "104313.985000", "104315.985000", "104317.985000", "104319.985000", "104321.985000", "104323.985000", "104325.985000", "104327.985000", "104329.985000", "104331.985000", "104333.985000", "104335.985000", "104337.985000", "104339.985000", "104341.985000", "104343.985000", "104345.985000", "104347.985000", "104349.985000", "104351.985000", "104353.985000", "104355.985000", "104357.985000", "104359.985000", "104401.985000", "104403.985000", "104405.985000", "104407.985000", "104409.985000", "104411.985000", "104413.985000", "104415.985000"],
      "ContentTime": ["103636.588000", "103638.084000", "103640.084000", "103642.584000", "103644.584000", "103646.085000", "103648.085000", "103650.085000", "103652.086000", "103654.585000", "103656.584000", "103658.585000", "103700.584000", "103702.084000", "103704.085000", "103706.085000", "103708.086000", "103710.584000", "103712.584000", "103714.084000", "103716.584000", "103718.584000", "103720.085000", "103722.086000", "103724.085000", "103726.085000", "103728.084000", "103730.585000", "103732.584000", "103734.085000", "103736.085000", "103738.086000", "103740.085000", "103742.086000", "103744.085000", "103746.584000", "103748.084000", "103750.584000", "103752.084000", "103754.084000", "103756.085000", "103758.085000", "103800.086000", "103802.088000", "103804.084000", "103806.085000", "103808.084000", "103810.084000", "103812.585000", "103814.086000", "103816.086000", "103818.585000", "103820.584000", "103822.084000", "103824.084000", "103826.084000", "103828.085000", "103830.586000", "103832.586000", "103834.086000", "103836.586000", "103838.585000", "103840.586000", "103842.084000", "103844.085000", "103846.584000", "103848.585000", "103850.585000", "103852.586000", "103854.586000", "103856.586000", "103858.084000", "103900.084000", "103902.085000", "103904.584000", "103906.586000", "103908.085000", "103910.086000", "103912.585000", "103914.084000", "103916.584000", "103918.585000", "103920.084000", "103922.586000", "103924.086000", "103926.085000", "103928.585000", "103930.584000", "103932.584000", "103934.584000", "103936.085000", "103938.084000", "103940.086000", "103942.085000", "103944.086000", "103946.085000", "103948.084000", "103950.084000", "103952.084000", "103954.084000", "103956.584000", "103958.585000", "104000.585000", "104002.585000", "104004.585000", "104006.584000", "104008.584000", "104010.084000", "104012.084000", "104014.084000", "104016.585000", "104018.085000", "104020.585000", "104022.085000", "104024.084000", "104026.584000", "104028.085000", "104030.584000", "104032.085000", "104034.085000", "104036.085000", "104038.086000", "104040.086000", "104042.084000", "104044.586000", "104046.084000", "104048.584000", "104050.586000", "104052.586000", "104054.086000", "104056.585000", "104058.584000", "104100.584000", "104102.584000", "104104.584000", "104106.084000", "104108.087000", "104110.586000", "104112.086000", "104114.086000", "104116.585000", "104118.086000", "104120.585000", "104122.084000", "104124.084000", "104126.085000", "104128.585000", "104130.585000", "104132.086000", "104134.584000", "104136.084000", "104138.085000", "104140.085000", "104142.586000", "104144.585000", "104146.086000", "104148.085000", "104150.085000", "104152.585000", "104154.585000", "104156.584000", "104158.084000", "104200.086000", "104202.086000", "104204.585000", "104206.085000", "104208.584000", "104210.584000", "104212.085000", "104214.084000", "104216.084000", "104218.085000", "104220.585000", "104222.086000", "104224.586000", "104226.585000", "104228.085000", "104230.584000", "104232.584000", "104234.584000", "104236.086000", "104238.586000", "104240.585000", "104242.585000", "104244.584000", "104246.585000", "104248.584000", "104250.084000", "104252.085000", "104254.585000", "104256.086000", "104258.085000", "104300.584000", "104302.085000", "104304.085000", "104306.084000", "104308.084000", "104310.085000", "104312.085000", "104314.585000", "104316.086000", "104318.085000", "104320.585000", "104322.084000", "104324.084000", "104326.585000", "104328.586000", "104330.085000", "104332.086000", "104334.085000", "104336.085000", "104338.084000", "104340.584000", "104342.584000", "104344.084000", "104346.586000", "104348.085000", "104350.085000", "104352.586000", "104354.085000", "104356.085000", "104358.084000", "104400.084000", "104402.084000", "104404.085000", "104406.086000", "104408.086000", "104410.086000", "104412.085000", "104414.585000", "104416.585000", "104418.035000"],
      "InstanceCreationTime": ["103636.588000", "103638.084000", "103640.084000", "103642.584000", "103644.584000", "103646.085000", "103648.085000", "103650.085000", "103652.086000", "103654.585000", "103656.584000", "103658.585000", "103700.584000", "103702.084000", "103704.085000", "103706.085000", "103708.086000", "103710.584000", "103712.584000", "103714.084000", "103716.584000", "103718.584000", "103720.085000", "103722.086000", "103724.085000", "103726.085000", "103728.084000", "103730.585000", "103732.584000", "103734.085000", "103736.085000", "103738.086000", "103740.085000", "103742.086000", "103744.085000", "103746.584000", "103748.084000", "103750.584000", "103752.084000", "103754.084000", "103756.085000", "103758.085000", "103800.086000", "103802.088000", "103804.084000", "103806.085000", "103808.084000", "103810.084000", "103812.585000", "103814.086000", "103816.086000", "103818.585000", "103820.584000", "103822.084000", "103824.084000", "103826.084000", "103828.085000", "103830.586000", "103832.586000", "103834.086000", "103836.586000", "103838.585000", "103840.586000", "103842.084000", "103844.085000", "103846.584000", "103848.585000", "103850.585000", "103852.586000", "103854.586000", "103856.586000", "103858.084000", "103900.084000", "103902.085000", "103904.584000", "103906.586000", "103908.085000", "103910.086000", "103912.585000", "103914.084000", "103916.584000", "103918.585000", "103920.084000", "103922.586000", "103924.086000", "103926.085000", "103928.585000", "103930.584000", "103932.584000", "103934.584000", "103936.085000", "103938.084000", "103940.086000", "103942.085000", "103944.086000", "103946.085000", "103948.084000", "103950.084000", "103952.084000", "103954.084000", "103956.584000", "103958.585000", "104000.585000", "104002.585000", "104004.585000", "104006.584000", "104008.584000", "104010.084000", "104012.084000", "104014.084000", "104016.585000", "104018.085000", "104020.585000", "104022.085000", "104024.084000", "104026.584000", "104028.085000", "104030.584000", "104032.085000", "104034.085000", "104036.085000", "104038.086000", "104040.086000", "104042.084000", "104044.586000", "104046.084000", "104048.584000", "104050.586000", "104052.586000", "104054.086000", "104056.585000", "104058.584000", "104100.584000", "104102.584000", "104104.584000", "104106.084000", "104108.087000", "104110.586000", "104112.086000", "104114.086000", "104116.585000", "104118.086000", "104120.585000", "104122.084000", "104124.084000", "104126.085000", "104128.585000", "104130.585000", "104132.086000", "104134.584000", "104136.084000", "104138.085000", "104140.085000", "104142.586000", "104144.585000", "104146.086000", "104148.085000", "104150.085000", "104152.585000", "104154.585000", "104156.584000", "104158.084000", "104200.086000", "104202.086000", "104204.585000", "104206.085000", "104208.584000", "104210.584000", "104212.085000", "104214.084000", "104216.084000", "104218.085000", "104220.585000", "104222.086000", "104224.586000", "104226.585000", "104228.085000", "104230.584000", "104232.584000", "104234.584000", "104236.086000", "104238.586000", "104240.585000", "104242.585000", "104244.584000", "104246.585000", "104248.584000", "104250.084000", "104252.085000", "104254.585000", "104256.086000", "104258.085000", "104300.584000", "104302.085000", "104304.085000", "104306.084000", "104308.084000", "104310.085000", "104312.085000", "104314.585000", "104316.086000", "104318.085000", "104320.585000", "104322.084000", "104324.084000", "104326.585000", "104328.586000", "104330.085000", "104332.086000", "104334.085000", "104336.085000", "104338.084000", "104340.584000", "104342.584000", "104344.084000", "104346.586000", "104348.085000", "104350.085000", "104352.586000", "104354.085000", "104356.085000", "104358.084000", "104400.084000", "104402.084000", "104404.085000", "104406.086000", "104408.086000", "104410.086000", "104412.085000", "104414.585000", "104416.585000", "104418.035000"],
      "InstanceNumber": [1, 2, 3, 4, 5, 6, 7, 8, 9, 10, 11, 12, 13, 14, 15, 16, 17, 18, 19, 20, 21, 22, 23, 24, 25, 26, 27, 28, 29, 30, 31, 32, 33, 34, 35, 36, 37, 38, 39, 40, 41, 42, 43, 44, 45, 46, 47, 48, 49, 50, 51, 52, 53, 54, 55, 56, 57, 58, 59, 60, 61, 62, 63, 64, 65, 66, 67, 68, 69, 70, 71, 72, 73, 74, 75, 76, 77, 78, 79, 80, 81, 82, 83, 84, 85, 86, 87, 88, 89, 90, 91, 92, 93, 94, 95, 96, 97, 98, 99, 100, 101, 102, 103, 104, 105, 106, 107, 108, 109, 110, 111, 112, 113, 114, 115, 116, 117, 118, 119, 120, 121, 122, 123, 124, 125, 126, 127, 128, 129, 130, 131, 132, 133, 134, 135, 136, 137, 138, 139, 140, 141, 142, 143, 144, 145, 146, 147, 148, 149, 150, 151, 152, 153, 154, 155, 156, 157, 158, 159, 160, 161, 162, 163, 164, 165, 166, 167, 168, 169, 170, 171, 172, 173, 174, 175, 176, 177, 178, 179, 180, 181, 182, 183, 184, 185, 186, 187, 188, 189, 190, 191, 192, 193, 194, 195, 196, 197, 198, 199, 200, 201, 202, 203, 204, 205, 206, 207, 208, 209, 210, 211, 212, 213, 214, 215, 216, 217, 218, 219, 220, 221, 222, 223, 224, 225, 226, 227, 228, 229, 230, 231, 232],
      "LargestImagePixelValue": [3202, 3149, 3199, 3143, 3123, 3121, 3114, 3139, 3126, 3161, 3180, 3189, 3194, 3162, 3183, 3176, 3210, 3172, 3169, 3203, 3206, 3192, 3163, 3111, 3118, 3069, 3113, 3192, 3127, 3224, 3165, 3191, 3211, 3218, 3223, 3201, 3216, 3217, 3226, 3221, 3199, 3205, 3219, 3198, 3217, 3201, 3252, 3230, 3209, 3100, 3214, 3097, 3010, 3014, 3081, 3034, 3032, 2917, 2908, 2935, 2962, 2910, 2914, 2964, 2974, 2959, 2946, 2942, 2960, 2934, 2945, 2956, 2912, 2934, 2893, 2901, 2908, 2934, 2904, 2904, 2887, 2936, 2916, 2909, 2893, 2895, 2883, 2875, 2870, 3030, 3091, 3029, 3313, 3273, 3093, 3199, 2924, 2882, 2922, 2865, 2927, 2938, 2897, 2906, 2933, 2943, 2955, 2926, 2942, 2942, 2917, 2936, 2932, 2914, 2941, 3000, 2970, 2985, 2997, 2949, 2989, 2962, 2948, 2971, 2950, 2944, 2966, 2958, 2970, 2903, 2951, 2876, 2934, 2968, 2973, 2949, 2969, 3135, 3203, 3107, 3011, 3149, 3047, 3323, 2963, 2883, 2950, 2956, 2924, 2963, 2949, 2928, 2918, 2938, 2957, 2983, 2978, 3000, 2990, 3041, 2968, 3014, 3007, 3058, 2965, 3020, 2953, 2881, 2909, 3027, 2988, 2979, 2985, 2974, 2952, 2987, 2997, 2989, 2980, 3160, 2931, 3262, 3011, 2867, 2986, 2911, 2939, 2941, 2996, 2979, 3010, 3008, 3031, 3017, 2982, 2992, 2977, 2947, 3040, 2989, 3032, 2948, 2883, 2751, 2822, 2858, 2713, 2978, 2799, 2940, 2909, 2951, 2918, 2859, 2940, 2854, 2795, 2901, 2965, 2790, 2743, 2742, 2739, 2748, 2739, 2899, 2819, 2808, 2786, 2997, 2818, 2920],
      "WindowCenter": [756.0, 755.0, 755.0, 755.0, 753.0, 753.0, 753.0, 753.0, 753.0, 753.0, 753.0, 755.0, 755.0, 755.0, 755.0, 756.0, 756.0, 756.0, 756.0, 756.0, 756.0, 756.0, 755.0, 755.0, 755.0, 754.0, 756.0, 757.0, 756.0, 756.0, 756.0, 757.0, 757.0, 756.0, 757.0, 757.0, 756.0, 756.0, 757.0, 756.0, 755.0, 756.0, 756.0, 756.0, 757.0, 756.0, 757.0, 756.0, 755.0, 749.0, 755.0, 756.0, 747.0, 749.0, 753.0, 744.0, 742.0, 752.0, 752.0, 752.0, 751.0, 749.0, 749.0, 750.0, 750.0, 750.0, 749.0, 750.0, 750.0, 749.0, 750.0, 750.0, 749.0, 750.0, 750.0, 751.0, 751.0, 751.0, 751.0, 751.0, 749.0, 751.0, 750.0, 749.0, 749.0, 748.0, 748.0, 747.0, 747.0, 744.0, 742.0, 751.0, 742.0, 735.0, 751.0, 749.0, 748.0, 747.0, 748.0, 747.0, 749.0, 749.0, 748.0, 749.0, 750.0, 751.0, 751.0, 751.0, 751.0, 750.0, 751.0, 750.0, 750.0, 750.0, 752.0, 753.0, 751.0, 751.0, 750.0, 749.0, 750.0, 750.0, 749.0, 749.0, 749.0, 749.0, 749.0, 749.0, 750.0, 748.0, 750.0, 749.0, 750.0, 750.0, 751.0, 750.0, 751.0, 750.0, 756.0, 753.0, 743.0, 746.0, 753.0, 756.0, 745.0, 747.0, 750.0, 750.0, 749.0, 749.0, 749.0, 749.0, 748.0, 748.0, 749.0, 750.0, 750.0, 751.0, 750.0, 748.0, 747.0, 748.0, 749.0, 749.0, 748.0, 749.0, 748.0, 747.0, 746.0, 747.0, 747.0, 747.0, 747.0, 747.0, 747.0, 747.0, 747.0, 746.0, 740.0, 749.0, 747.0, 742.0, 745.0, 744.0, 746.0, 746.0, 748.0, 748.0, 748.0, 748.0, 748.0, 748.0, 748.0, 748.0, 748.0, 748.0, 748.0, 746.0, 748.0, 747.0, 748.0, 746.0, 746.0, 745.0, 744.0, 745.0, 741.0, 746.0, 742.0, 744.0, 745.0, 746.0, 746.0, 745.0, 747.0, 746.0, 745.0, 747.0, 749.0, 749.0, 748.0, 746.0, 746.0, 746.0, 747.0, 747.0, 745.0, 744.0, 743.0, 745.0, 744.0, 745.0],
      "WindowWidth": [1618.0, 1615.0, 1616.0, 1615.0, 1612.0, 1610.0, 1611.0, 1612.0, 1611.0, 1611.0, 1612.0, 1615.0, 1616.0, 1617.0, 1616.0, 1617.0, 1617.0, 1618.0, 1619.0, 1619.0, 1618.0, 1618.0, 1616.0, 1615.0, 1616.0, 1614.0, 1618.0, 1620.0, 1617.0, 1619.0, 1618.0, 1620.0, 1620.0, 1620.0, 1621.0, 1620.0, 1620.0, 1620.0, 1620.0, 1619.0, 1617.0, 1619.0, 1619.0, 1619.0, 1620.0, 1618.0, 1620.0, 1618.0, 1615.0, 1601.0, 1617.0, 1618.0, 1597.0, 1602.0, 1612.0, 1590.0, 1585.0, 1608.0, 1608.0, 1607.0, 1604.0, 1601.0, 1600.0, 1603.0, 1603.0, 1604.0, 1601.0, 1602.0, 1602.0, 1602.0, 1603.0, 1602.0, 1600.0, 1603.0, 1604.0, 1605.0, 1604.0, 1605.0, 1606.0, 1605.0, 1601.0, 1605.0, 1603.0, 1601.0, 1601.0, 1598.0, 1596.0, 1596.0, 1595.0, 1588.0, 1584.0, 1606.0, 1585.0, 1568.0, 1605.0, 1600.0, 1597.0, 1595.0, 1597.0, 1597.0, 1599.0, 1600.0, 1597.0, 1600.0, 1604.0, 1607.0, 1607.0, 1605.0, 1605.0, 1604.0, 1605.0, 1604.0, 1603.0, 1603.0, 1609.0, 1611.0, 1606.0, 1605.0, 1602.0, 1601.0, 1603.0, 1603.0, 1601.0, 1600.0, 1601.0, 1599.0, 1600.0, 1601.0, 1602.0, 1599.0, 1602.0, 1601.0, 1604.0, 1602.0, 1605.0, 1603.0, 1605.0, 1603.0, 1620.0, 1610.0, 1586.0, 1596.0, 1612.0, 1618.0, 1593.0, 1595.0, 1603.0, 1603.0, 1601.0, 1601.0, 1600.0, 1600.0, 1598.0, 1598.0, 1599.0, 1602.0, 1603.0, 1605.0, 1601.0, 1597.0, 1594.0, 1597.0, 1599.0, 1600.0, 1597.0, 1598.0, 1598.0, 1593.0, 1591.0, 1593.0, 1594.0, 1595.0, 1594.0, 1595.0, 1594.0, 1596.0, 1595.0, 1592.0, 1579.0, 1601.0, 1596.0, 1585.0, 1591.0, 1588.0, 1594.0, 1593.0, 1596.0, 1597.0, 1597.0, 1598.0, 1597.0, 1597.0, 1596.0, 1596.0, 1596.0, 1598.0, 1597.0, 1593.0, 1596.0, 1595.0, 1596.0, 1591.0, 1591.0, 1590.0, 1587.0, 1590.0, 1580.0, 1590.0, 1582.0, 1587.0, 1590.0, 1592.0, 1592.0, 1589.0, 1594.0, 1593.0, 1590.0, 1594.0, 1600.0, 1600.0, 1596.0, 1592.0, 1592.0, 1591.0, 1593.0, 1595.0, 1590.0, 1587.0, 1584.0, 1589.0, 1587.0, 1588.0]
    },
    "slices": {}
  }
}