{
  "AcquisitionMatrixPE": 100,
  "AcquisitionNumber": 1,
  "AcquisitionTime": "10:27:58.195000",
  "BandwidthPerPixelPhaseEncode": 18.519,
  "BaseResolution": 100,
  "BodyPartExamined": "BRAIN",
  "ConsistencyInfo": "N4_VE11C_LATEST_20160120",
  "ConversionSoftware": "dcm2niix",
  "ConversionSoftwareVersion": "v1.0.20180622 GCC4.9.2",
  "DerivedVendorReportedEchoSpacing": 0.000539986,
  "DeviceSerialNumber": "166078",
  "DwellTime": 2.1e-06,
  "EchoTime": 0.034,
  "EchoTrainLength": 100,
  "EffectiveEchoSpacing": 0.000539986,
  "FlipAngle": 90,
  "ImageOrientationPatientDICOM": [1, -0.000107063, -0.000556199, 1.02462e-08, 0.981977, -0.189002],
  "ImageType": [
    "ORIGINAL",
    "PRIMARY",
    "M",
    "ND",
    "MOSAIC"
],
  "InPlanePhaseEncodingDirectionDICOM": "COL",
  "InstitutionAddress": "Street_StreetNo_Bei_Jing_District_CN_ZIP",
  "InstitutionName": "BeiJing_Normal_University",
  "InstitutionalDepartmentName": "Department",
  "MRAcquisitionType": "2D",
  "MagneticFieldStrength": 3,
  "Manufacturer": "Siemens",
  "ManufacturersModelName": "Prisma",
  "Modality": "MR",
  "MultibandAccelerationFactor": 3,
  "PartialFourier": 1,
  "PatientPosition": "HFS",
  "PercentPhaseFOV": 100,
  "PhaseEncodingDirection": "j-",
  "PhaseEncodingSteps": 100,
  "PhaseResolution": 1,
  "PixelBandwidth": 2380,
  "ProcedureStepDescription": "BNU_P2018_64CH_Liu.Jia",
  "ProtocolName": "bold_100x100_s3_2x2x2_232",
  "PulseSequenceDetails": "%SiemensSeq%_ep2d_bold",
  "ReceiveCoilActiveElements": "HC1-7;NC1",
  "ReceiveCoilName": "HeadNeck_64",
  "ReconMatrixPE": 100,
  "RepetitionTime": 2,
  "SAR": 0.0673566,
  "ScanOptions": "FS",
  "ScanningSequence": "EP",
  "SequenceName": "_epfid2d1_100",
  "SequenceVariant": "SK",
  "SeriesDescription": "bold_100x100_s3_2x2x2_232",
  "SeriesNumber": 3,
  "ShimSetting": [-5458, -11507, -1280, 407, -44, -209, -165, 85],
  "SliceThickness": 2,
  "SliceTiming": [1.485, 0, 0.99, 0.0825, 1.0725, 0.165, 1.155, 0.2475, 1.2375, 0.33, 1.32, 0.4125, 1.4025, 0.5775, 1.5675, 0.66, 1.65, 0.7425, 1.7325, 0.825, 1.815, 0.9075, 1.8975, 0.495, 1.485, 0, 0.99, 0.0825, 1.0725, 0.165, 1.155, 0.2475, 1.2375, 0.33, 1.32, 0.4125, 1.4025, 0.5775, 1.5675, 0.66, 1.65, 0.7425, 1.7325, 0.825, 1.815, 0.9075, 1.8975, 0.495, 1.485, 0, 0.99, 0.0825, 1.0725, 0.165, 1.155, 0.2475, 1.2375, 0.33, 1.32, 0.4125, 1.4025, 0.5775, 1.5675, 0.66, 1.65, 0.7425, 1.7325, 0.825, 1.815, 0.9075, 1.8975, 0.495],
  "SoftwareVersions": "syngo_MR_E11",
  "SpacingBetweenSlices": 2,
  "StationName": "AWP166078",
  "TaskName": "motor",
  "TotalReadoutTime": 0.0534586,
  "TxRefAmp": 221.301,
  "dcmmeta_affine": [
    [-1.9999996423721313, 2.049231717649036e-08, -0.0011328199179843068, 101.350830078125],
    [0.00021412553905975074, 1.9639533758163452, -0.3780042827129364, -80.23090362548828],
    [-0.0011123988078907132, 0.3780043423175812, 1.9639530181884766, -94.81794738769531],
    [0.0, 0.0, 0.0, 1.0]
],
  "dcmmeta_reorient_transform": [
    [0.0, -1.0, 0.0, 99.0],
    [1.0, 0.0, 0.0, 0.0],
    [0.0, 0.0, 1.0, 0.0],
    [0.0, 0.0, 0.0, 1.0]
],
  "dcmmeta_shape": [100, 100, 72, 232],
  "dcmmeta_slice_dim": 2,
  "dcmmeta_version": 0.6,
  "global": {
    "const": {
      "AcquisitionMatrix": [100, 0, 0, 100],
      "AngioFlag": "N",
      "BitsAllocated": 16,
      "BitsStored": 12,
      "BodyPartExamined": "BRAIN",
      "Columns": 900,
      "EchoNumbers": 1,
      "EchoTime": 34.0,
      "EchoTrainLength": 100,
      "FlipAngle": 90.0,
      "HighBit": 11,
      "ImageOrientationPatient": [0.99999983958988, -0.0001070627665, -0.0005561994108, 1.0246159e-08, 0.98197667059432, -0.1890021650894],
      "ImagePositionPatient": [-901.35071543456, -899.69616061008, 94.251171543823],
      "ImageType": [
        "ORIGINAL",
        "PRIMARY",
        "M",
        "ND",
        "MOSAIC"
],
      "ImagedNucleus": "1H",
      "ImagingFrequency": 123.257823,
      "InPlanePhaseEncodingDirection": "COL",
      "MRAcquisitionType": "2D",
      "MagneticFieldStrength": 3.0,
      "Manufacturer": "SIEMENS",
      "ManufacturerModelName": "Prisma",
      "Modality": "MR",
      "NumberOfAverages": 1.0,
      "NumberOfPhaseEncodingSteps": 100,
      "PercentPhaseFieldOfView": 100.0,
      "PercentSampling": 100.0,
      "PerformedProcedureStepStartTime": "102529.662000",
      "PhotometricInterpretation": "MONOCHROME2",
      "PixelBandwidth": 2380.0,
      "PixelRepresentation": 0,
      "PixelSpacing": [2.0, 2.0],
      "ProtocolName": "bold_100x100_s3_2x2x2_232",
      "RepetitionTime": 2000.0,
      "Rows": 900,
      "SAR": 0.06735661028479,
      "SamplesPerPixel": 1,
      "ScanOptions": "FS",
      "ScanningSequence": "EP",
      "SequenceName": "*epfid2d1_100",
      "SequenceVariant": "SK",
      "SeriesDescription": "bold_100x100_s3_2x2x2_232",
      "SeriesNumber": 3,
      "SeriesTime": "102800.748000",
      "SliceLocation": -78.002592214855,
      "SliceThickness": 2.0,
      "SmallestImagePixelValue": 0,
      "SoftwareVersions": "syngo MR E11",
      "SpacingBetweenSlices": 2.000000019704,
      "SpecificCharacterSet": "ISO_IR 100",
      "StudyID": "1",
      "StudyTime": "102529.600000",
      "TransmitCoilName": "Body",
      "VariableFlipAngleFlag": "N",
      "WindowCenterWidthExplanation": "Algo1",
      "dBdt": 0.0},
    "slices": {}
  },
  "time": {
    "samples": {
      "AcquisitionNumber": [1, 2, 3, 4, 5, 6, 7, 8, 9, 10, 11, 12, 13, 14, 15, 16, 17, 18, 19, 20, 21, 22, 23, 24, 25, 26, 27, 28, 29, 30, 31, 32, 33, 34, 35, 36, 37, 38, 39, 40, 41, 42, 43, 44, 45, 46, 47, 48, 49, 50, 51, 52, 53, 54, 55, 56, 57, 58, 59, 60, 61, 62, 63, 64, 65, 66, 67, 68, 69, 70, 71, 72, 73, 74, 75, 76, 77, 78, 79, 80, 81, 82, 83, 84, 85, 86, 87, 88, 89, 90, 91, 92, 93, 94, 95, 96, 97, 98, 99, 100, 101, 102, 103, 104, 105, 106, 107, 108, 109, 110, 111, 112, 113, 114, 115, 116, 117, 118, 119, 120, 121, 122, 123, 124, 125, 126, 127, 128, 129, 130, 131, 132, 133, 134, 135, 136, 137, 138, 139, 140, 141, 142, 143, 144, 145, 146, 147, 148, 149, 150, 151, 152, 153, 154, 155, 156, 157, 158, 159, 160, 161, 162, 163, 164, 165, 166, 167, 168, 169, 170, 171, 172, 173, 174, 175, 176, 177, 178, 179, 180, 181, 182, 183, 184, 185, 186, 187, 188, 189, 190, 191, 192, 193, 194, 195, 196, 197, 198, 199, 200, 201, 202, 203, 204, 205, 206, 207, 208, 209, 210, 211, 212, 213, 214, 215, 216, 217, 218, 219, 220, 221, 222, 223, 224, 225, 226, 227, 228, 229, 230, 231, 232],
      "AcquisitionTime": ["102758.195000", "102800.195000", "102802.195000", "102804.195000", "102806.195000", "102808.195000", "102810.195000", "102812.195000", "102814.195000", "102816.195000", "102818.195000", "102820.195000", "102822.195000", "102824.195000", "102826.195000", "102828.195000", "102830.195000", "102832.195000", "102834.195000", "102836.195000", "102838.195000", "102840.195000", "102842.195000", "102844.195000", "102846.195000", "102848.195000", "102850.195000", "102852.195000", "102854.195000", "102856.195000", "102858.195000", "102900.195000", "102902.195000", "102904.195000", "102906.195000", "102908.195000", "102910.195000", "102912.195000", "102914.195000", "102916.195000", "102918.195000", "102920.195000", "102922.195000", "102924.195000", "102926.195000", "102928.195000", "102930.195000", "102932.195000", "102934.195000", "102936.195000", "102938.195000", "102940.195000", "102942.195000", "102944.195000", "102946.195000", "102948.195000", "102950.195000", "102952.195000", "102954.195000", "102956.195000", "102958.195000", "103000.195000", "103002.195000", "103004.195000", "103006.195000", "103008.195000", "103010.195000", "103012.195000", "103014.195000", "103016.195000", "103018.195000", "103020.195000", "103022.195000", "103024.195000", "103026.195000", "103028.195000", "103030.195000", "103032.195000", "103034.195000", "103036.195000", "103038.195000", "103040.195000", "103042.195000", "103044.195000", "103046.195000", "103048.195000", "103050.195000", "103052.195000", "103054.195000", "103056.195000", "103058.195000", "103100.195000", "103102.195000", "103104.195000", "103106.195000", "103108.195000", "103110.195000", "103112.195000", "103114.195000", "103116.195000", "103118.195000", "103120.195000", "103122.195000", "103124.195000", "103126.195000", "103128.195000", "103130.195000", "103132.195000", "103134.195000", "103136.195000", "103138.195000", "103140.195000", "103142.195000", "103144.195000", "103146.195000", "103148.195000", "103150.195000", "103152.195000", "103154.195000", "103156.195000", "103158.195000", "103200.195000", "103202.195000", "103204.195000", "103206.195000", "103208.195000", "103210.195000", "103212.195000", "103214.195000", "103216.195000", "103218.195000", "103220.195000", "103222.195000", "103224.195000", "103226.195000", "103228.195000", "103230.195000", "103232.195000", "103234.195000", "103236.195000", "103238.195000", "103240.195000", "103242.195000", "103244.195000", "103246.195000", "103248.195000", "103250.195000", "103252.195000", "103254.195000", "103256.195000", "103258.195000", "103300.195000", "103302.195000", "103304.195000", "103306.195000", "103308.195000", "103310.195000", "103312.195000", "103314.195000", "103316.195000", "103318.195000", "103320.195000", "103322.195000", "103324.195000", "103326.195000", "103328.195000", "103330.195000", "103332.195000", "103334.195000", "103336.195000", "103338.195000", "103340.195000", "103342.195000", "103344.195000", "103346.195000", "103348.195000", "103350.195000", "103352.195000", "103354.195000", "103356.195000", "103358.195000", "103400.195000", "103402.195000", "103404.195000", "103406.195000", "103408.195000", "103410.195000", "103412.195000", "103414.195000", "103416.195000", "103418.195000", "103420.195000", "103422.195000", "103424.195000", "103426.195000", "103428.195000", "103430.195000", "103432.195000", "103434.195000", "103436.195000", "103438.195000", "103440.195000", "103442.195000", "103444.195000", "103446.195000", "103448.195000", "103450.195000", "103452.195000", "103454.195000", "103456.195000", "103458.195000", "103500.195000", "103502.195000", "103504.195000", "103506.195000", "103508.195000", "103510.195000", "103512.195000", "103514.195000", "103516.195000", "103518.195000", "103520.195000", "103522.195000", "103524.195000", "103526.195000", "103528.195000", "103530.195000", "103532.195000", "103534.195000", "103536.195000", "103538.195000", "103540.195000"],
      "ContentTime": ["102800.752000", "102802.246000", "102804.246000", "102806.246000", "102808.246000", "102810.246000", "102812.246000", "102814.246000", "102816.246000", "102818.247000", "102820.246000", "102822.246000", "102824.246000", "102826.246000", "102828.246000", "102830.246000", "102832.246000", "102834.246000", "102836.247000", "102838.246000", "102840.246000", "102842.247000", "102844.246000", "102846.247000", "102848.247000", "102850.246000", "102852.246000", "102854.246000", "102856.246000", "102858.246000", "102900.246000", "102902.246000", "102904.246000", "102906.246000", "102908.246000", "102910.246000", "102912.247000", "102914.246000", "102916.247000", "102918.246000", "102920.246000", "102922.246000", "102924.247000", "102926.246000", "102928.247000", "102930.247000", "102932.246000", "102934.247000", "102936.246000", "102938.246000", "102940.246000", "102942.246000", "102944.247000", "102946.247000", "102948.246000", "102950.246000", "102952.247000", "102954.246000", "102956.247000", "102958.246000", "103000.247000", "103002.246000", "103004.246000", "103006.246000", "103008.246000", "103010.246000", "103012.246000", "103014.246000", "103016.247000", "103018.246000", "103020.246000", "103022.246000", "103024.246000", "103026.246000", "103028.247000", "103030.247000", "103032.246000", "103034.246000", "103036.246000", "103038.248000", "103040.246000", "103042.246000", "103044.247000", "103046.246000", "103048.247000", "103050.246000", "103052.246000", "103054.246000", "103056.247000", "103058.246000", "103100.246000", "103102.246000", "103104.246000", "103106.246000", "103108.246000", "103110.246000", "103112.247000", "103114.246000", "103116.246000", "103118.246000", "103120.246000", "103122.246000", "103124.246000", "103126.246000", "103128.246000", "103130.246000", "103132.246000", "103134.246000", "103136.246000", "103138.246000", "103140.246000", "103142.246000", "103144.246000", "103146.247000", "103148.247000", "103150.246000", "103152.246000", "103154.246000", "103156.246000", "103158.247000", "103200.247000", "103202.246000", "103204.246000", "103206.248000", "103208.246000", "103210.246000", "103212.246000", "103214.247000", "103216.246000", "103218.247000", "103220.247000", "103222.247000", "103224.247000", "103226.246000", "103228.246000", "103230.246000", "103232.246000", "103234.247000", "103236.246000", "103238.247000", "103240.246000", "103242.246000", "103244.246000", "103246.247000", "103248.246000", "103250.247000", "103252.246000", "103254.246000", "103256.246000", "103258.248000", "103300.246000", "103302.246000", "103304.247000", "103306.246000", "103308.246000", "103310.247000", "103312.247000", "103314.246000", "103316.247000", "103318.247000", "103320.246000", "103322.246000", "103324.246000", "103326.247000", "103328.248000", "103330.248000", "103332.246000", "103334.246000", "103336.247000", "103338.246000", "103340.246000", "103342.246000", "103344.246000", "103346.246000", "103348.246000", "103350.247000", "103352.247000", "103354.246000", "103356.247000", "103358.247000", "103400.246000", "103402.247000", "103404.246000", "103406.246000", "103408.247000", "103410.246000", "103412.246000", "103414.247000", "103416.246000", "103418.246000", "103420.246000", "103422.246000", "103424.246000", "103426.247000", "103428.247000", "103430.246000", "103432.246000", "103434.246000", "103436.260000", "103438.246000", "103440.247000", "103442.247000", "103444.246000", "103446.247000", "103448.246000", "103450.246000", "103452.246000", "103454.246000", "103456.246000", "103458.247000", "103500.247000", "103502.246000", "103504.247000", "103506.246000", "103508.246000", "103510.247000", "103512.246000", "103514.247000", "103516.247000", "103518.247000", "103520.246000", "103522.247000", "103524.247000", "103526.247000", "103528.246000", "103530.246000", "103532.246000", "103534.247000", "103536.247000", "103538.246000", "103540.246000", "103541.872000"],
      "InstanceCreationTime": ["102800.752000", "102802.246000", "102804.246000", "102806.246000", "102808.246000", "102810.246000", "102812.246000", "102814.246000", "102816.246000", "102818.247000", "102820.246000", "102822.246000", "102824.246000", "102826.246000", "102828.246000", "102830.246000", "102832.246000", "102834.246000", "102836.247000", "102838.246000", "102840.246000", "102842.247000", "102844.246000", "102846.247000", "102848.247000", "102850.246000", "102852.246000", "102854.246000", "102856.246000", "102858.246000", "102900.246000", "102902.246000", "102904.246000", "102906.246000", "102908.246000", "102910.246000", "102912.247000", "102914.246000", "102916.247000", "102918.246000", "102920.246000", "102922.246000", "102924.247000", "102926.246000", "102928.247000", "102930.247000", "102932.246000", "102934.247000", "102936.246000", "102938.246000", "102940.246000", "102942.246000", "102944.247000", "102946.247000", "102948.246000", "102950.246000", "102952.247000", "102954.246000", "102956.247000", "102958.246000", "103000.247000", "103002.246000", "103004.246000", "103006.246000", "103008.246000", "103010.246000", "103012.246000", "103014.246000", "103016.247000", "103018.246000", "103020.246000", "103022.246000", "103024.246000", "103026.246000", "103028.247000", "103030.247000", "103032.246000", "103034.246000", "103036.246000", "103038.248000", "103040.246000", "103042.246000", "103044.247000", "103046.246000", "103048.247000", "103050.246000", "103052.246000", "103054.246000", "103056.247000", "103058.246000", "103100.246000", "103102.246000", "103104.246000", "103106.246000", "103108.246000", "103110.246000", "103112.247000", "103114.246000", "103116.246000", "103118.246000", "103120.246000", "103122.246000", "103124.246000", "103126.246000", "103128.246000", "103130.246000", "103132.246000", "103134.246000", "103136.246000", "103138.246000", "103140.246000", "103142.246000", "103144.246000", "103146.247000", "103148.247000", "103150.246000", "103152.246000", "103154.246000", "103156.246000", "103158.247000", "103200.247000", "103202.246000", "103204.246000", "103206.248000", "103208.246000", "103210.246000", "103212.246000", "103214.247000", "103216.246000", "103218.247000", "103220.247000", "103222.247000", "103224.247000", "103226.246000", "103228.246000", "103230.246000", "103232.246000", "103234.247000", "103236.246000", "103238.247000", "103240.246000", "103242.246000", "103244.246000", "103246.247000", "103248.246000", "103250.247000", "103252.246000", "103254.246000", "103256.246000", "103258.248000", "103300.246000", "103302.246000", "103304.247000", "103306.246000", "103308.246000", "103310.247000", "103312.247000", "103314.246000", "103316.247000", "103318.247000", "103320.246000", "103322.246000", "103324.246000", "103326.247000", "103328.248000", "103330.248000", "103332.246000", "103334.246000", "103336.247000", "103338.246000", "103340.246000", "103342.246000", "103344.246000", "103346.246000", "103348.246000", "103350.247000", "103352.247000", "103354.246000", "103356.247000", "103358.247000", "103400.246000", "103402.247000", "103404.246000", "103406.246000", "103408.247000", "103410.246000", "103412.246000", "103414.247000", "103416.246000", "103418.246000", "103420.246000", "103422.246000", "103424.246000", "103426.247000", "103428.247000", "103430.246000", "103432.246000", "103434.246000", "103436.260000", "103438.246000", "103440.247000", "103442.247000", "103444.246000", "103446.247000", "103448.246000", "103450.246000", "103452.246000", "103454.246000", "103456.246000", "103458.247000", "103500.247000", "103502.246000", "103504.247000", "103506.246000", "103508.246000", "103510.247000", "103512.246000", "103514.247000", "103516.247000", "103518.247000", "103520.246000", "103522.247000", "103524.247000", "103526.247000", "103528.246000", "103530.246000", "103532.246000", "103534.247000", "103536.247000", "103538.246000", "103540.246000", "103541.872000"],
      "InstanceNumber": [1, 2, 3, 4, 5, 6, 7, 8, 9, 10, 11, 12, 13, 14, 15, 16, 17, 18, 19, 20, 21, 22, 23, 24, 25, 26, 27, 28, 29, 30, 31, 32, 33, 34, 35, 36, 37, 38, 39, 40, 41, 42, 43, 44, 45, 46, 47, 48, 49, 50, 51, 52, 53, 54, 55, 56, 57, 58, 59, 60, 61, 62, 63, 64, 65, 66, 67, 68, 69, 70, 71, 72, 73, 74, 75, 76, 77, 78, 79, 80, 81, 82, 83, 84, 85, 86, 87, 88, 89, 90, 91, 92, 93, 94, 95, 96, 97, 98, 99, 100, 101, 102, 103, 104, 105, 106, 107, 108, 109, 110, 111, 112, 113, 114, 115, 116, 117, 118, 119, 120, 121, 122, 123, 124, 125, 126, 127, 128, 129, 130, 131, 132, 133, 134, 135, 136, 137, 138, 139, 140, 141, 142, 143, 144, 145, 146, 147, 148, 149, 150, 151, 152, 153, 154, 155, 156, 157, 158, 159, 160, 161, 162, 163, 164, 165, 166, 167, 168, 169, 170, 171, 172, 173, 174, 175, 176, 177, 178, 179, 180, 181, 182, 183, 184, 185, 186, 187, 188, 189, 190, 191, 192, 193, 194, 195, 196, 197, 198, 199, 200, 201, 202, 203, 204, 205, 206, 207, 208, 209, 210, 211, 212, 213, 214, 215, 216, 217, 218, 219, 220, 221, 222, 223, 224, 225, 226, 227, 228, 229, 230, 231, 232],
      "LargestImagePixelValue": [3051, 3099, 3104, 3081, 3122, 3073, 3131, 3060, 3069, 3092, 3073, 3090, 3126, 3085, 3103, 3117, 3072, 3094, 3111, 3101, 3107, 3088, 3114, 3053, 3072, 3051, 3067, 3090, 3086, 3035, 3081, 3095, 3051, 3089, 3047, 2972, 2955, 2941, 2912, 2917, 2956, 2923, 2953, 2986, 3055, 3105, 3075, 3014, 3020, 3197, 3066, 3032, 3062, 3351, 3050, 3144, 2994, 2963, 2954, 2928, 2898, 2903, 2892, 2860, 2875, 2861, 2918, 2995, 2951, 2910, 2956, 2984, 2948, 2947, 2861, 2894, 2871, 2860, 2908, 2841, 2910, 2964, 2958, 3299, 2959, 2996, 3486, 3191, 3091, 3076, 2928, 2928, 3026, 2936, 2888, 3038, 2981, 2950, 2883, 2906, 2877, 2890, 2904, 2922, 2892, 3000, 2897, 2979, 2982, 2975, 2903, 2932, 2958, 2912, 2884, 2934, 2865, 2903, 2891, 2908, 2898, 2963, 2892, 2884, 2905, 2895, 2913, 2884, 2940, 2934, 2925, 2925, 2940, 2968, 2955, 2986, 2963, 2968, 3030, 3047, 3128, 2979, 3020, 2975, 3044, 3266, 3201, 2933, 3019, 2962, 3146, 2956, 3065, 2912, 2999, 2971, 3023, 3063, 3029, 3040, 2907, 2868, 3036, 3043, 2939, 2957, 2989, 2959, 2942, 2941, 2967, 2961, 2962, 2998, 3004, 2976, 2987, 2913, 3190, 3134, 2942, 2864, 3204, 2968, 2997, 3016, 3032, 2999, 3061, 3072, 3053, 3094, 3102, 3111, 3171, 3161, 3108, 3157, 3158, 3172, 3015, 3046, 3017, 3086, 3104, 3062, 3077, 3108, 3048, 3110, 3134, 3071, 3111, 3088, 3059, 3043, 2986, 3053, 3071, 3071, 3043, 3066, 3121, 3099, 3153, 3102, 3053, 3059, 3036, 3088, 3144, 3094],
      "WindowCenter": [755.0, 754.0, 754.0, 754.0, 754.0, 753.0, 754.0, 753.0, 753.0, 754.0, 755.0, 757.0, 756.0, 755.0, 755.0, 756.0, 756.0, 756.0, 756.0, 756.0, 756.0, 757.0, 758.0, 757.0, 757.0, 757.0, 757.0, 758.0, 757.0, 758.0, 758.0, 757.0, 757.0, 758.0, 759.0, 758.0, 756.0, 754.0, 752.0, 752.0, 753.0, 754.0, 755.0, 756.0, 758.0, 758.0, 758.0, 758.0, 759.0, 760.0, 761.0, 759.0, 752.0, 755.0, 755.0, 740.0, 756.0, 753.0, 754.0, 754.0, 754.0, 752.0, 752.0, 752.0, 752.0, 751.0, 752.0, 755.0, 753.0, 751.0, 752.0, 752.0, 751.0, 752.0, 750.0, 750.0, 750.0, 749.0, 750.0, 750.0, 750.0, 752.0, 747.0, 751.0, 749.0, 745.0, 745.0, 741.0, 749.0, 754.0, 753.0, 754.0, 754.0, 754.0, 753.0, 754.0, 752.0, 752.0, 751.0, 750.0, 749.0, 749.0, 751.0, 751.0, 751.0, 753.0, 752.0, 752.0, 752.0, 751.0, 751.0, 751.0, 751.0, 751.0, 752.0, 754.0, 751.0, 750.0, 749.0, 749.0, 749.0, 749.0, 748.0, 747.0, 748.0, 748.0, 748.0, 747.0, 749.0, 749.0, 748.0, 747.0, 748.0, 749.0, 749.0, 749.0, 750.0, 751.0, 754.0, 755.0, 756.0, 752.0, 752.0, 751.0, 753.0, 749.0, 748.0, 744.0, 752.0, 742.0, 751.0, 749.0, 746.0, 751.0, 752.0, 752.0, 752.0, 752.0, 750.0, 752.0, 750.0, 749.0, 753.0, 753.0, 752.0, 751.0, 752.0, 750.0, 748.0, 749.0, 748.0, 748.0, 748.0, 748.0, 749.0, 748.0, 748.0, 749.0, 748.0, 751.0, 748.0, 737.0, 753.0, 752.0, 749.0, 750.0, 752.0, 752.0, 752.0, 752.0, 752.0, 753.0, 752.0, 753.0, 754.0, 754.0, 753.0, 753.0, 754.0, 754.0, 750.0, 753.0, 753.0, 752.0, 753.0, 752.0, 752.0, 753.0, 753.0, 753.0, 754.0, 752.0, 752.0, 751.0, 752.0, 751.0, 750.0, 752.0, 754.0, 754.0, 753.0, 752.0, 753.0, 754.0, 755.0, 755.0, 753.0, 752.0, 752.0, 754.0, 753.0, 751.0],
      "WindowWidth": [1618.0, 1614.0, 1616.0, 1616.0, 1614.0, 1613.0, 1613.0, 1613.0, 1612.0, 1614.0, 1618.0, 1623.0, 1620.0, 1618.0, 1618.0, 1619.0, 1619.0, 1621.0, 1621.0, 1621.0, 1619.0, 1623.0, 1625.0, 1623.0, 1623.0, 1623.0, 1622.0, 1625.0, 1623.0, 1625.0, 1626.0, 1623.0, 1622.0, 1626.0, 1627.0, 1625.0, 1619.0, 1615.0, 1610.0, 1610.0, 1612.0, 1615.0, 1617.0, 1619.0, 1625.0, 1623.0, 1624.0, 1625.0, 1626.0, 1630.0, 1633.0, 1629.0, 1612.0, 1619.0, 1619.0, 1584.0, 1622.0, 1613.0, 1614.0, 1615.0, 1612.0, 1609.0, 1609.0, 1609.0, 1607.0, 1606.0, 1610.0, 1615.0, 1610.0, 1605.0, 1607.0, 1609.0, 1607.0, 1607.0, 1605.0, 1604.0, 1603.0, 1601.0, 1603.0, 1602.0, 1603.0, 1607.0, 1598.0, 1606.0, 1602.0, 1592.0, 1593.0, 1584.0, 1604.0, 1612.0, 1611.0, 1613.0, 1614.0, 1612.0, 1611.0, 1613.0, 1607.0, 1608.0, 1607.0, 1603.0, 1601.0, 1600.0, 1605.0, 1607.0, 1607.0, 1611.0, 1609.0, 1609.0, 1609.0, 1607.0, 1607.0, 1606.0, 1606.0, 1607.0, 1609.0, 1612.0, 1607.0, 1603.0, 1600.0, 1599.0, 1600.0, 1602.0, 1597.0, 1597.0, 1597.0, 1598.0, 1597.0, 1597.0, 1601.0, 1602.0, 1599.0, 1597.0, 1600.0, 1601.0, 1600.0, 1601.0, 1603.0, 1605.0, 1613.0, 1616.0, 1617.0, 1606.0, 1607.0, 1606.0, 1611.0, 1604.0, 1598.0, 1590.0, 1609.0, 1584.0, 1606.0, 1600.0, 1594.0, 1605.0, 1608.0, 1607.0, 1608.0, 1607.0, 1603.0, 1608.0, 1603.0, 1602.0, 1611.0, 1611.0, 1607.0, 1606.0, 1606.0, 1603.0, 1597.0, 1600.0, 1598.0, 1597.0, 1598.0, 1598.0, 1599.0, 1598.0, 1598.0, 1601.0, 1599.0, 1606.0, 1597.0, 1571.0, 1612.0, 1608.0, 1600.0, 1601.0, 1607.0, 1607.0, 1607.0, 1608.0, 1606.0, 1609.0, 1606.0, 1610.0, 1611.0, 1612.0, 1610.0, 1610.0, 1613.0, 1613.0, 1604.0, 1610.0, 1610.0, 1608.0, 1609.0, 1607.0, 1607.0, 1611.0, 1609.0, 1611.0, 1613.0, 1608.0, 1607.0, 1606.0, 1607.0, 1605.0, 1603.0, 1607.0, 1612.0, 1613.0, 1610.0, 1608.0, 1610.0, 1613.0, 1615.0, 1615.0, 1611.0, 1606.0, 1608.0, 1611.0, 1610.0, 1606.0]
    },
    "slices": {}
  }
}