{
  "AcquisitionMatrixPE": 100,
  "AcquisitionNumber": 1,
  "AcquisitionTime": "10:45:14.907500",
  "BandwidthPerPixelPhaseEncode": 18.519,
  "BaseResolution": 100,
  "BodyPartExamined": "BRAIN",
  "ConsistencyInfo": "N4_VE11C_LATEST_20160120",
  "ConversionSoftware": "dcm2niix",
  "ConversionSoftwareVersion": "v1.0.20180622 GCC4.9.2",
  "DerivedVendorReportedEchoSpacing": 0.000539986,
  "DeviceSerialNumber": "166078",
  "DwellTime": 2.1e-06,
  "EchoTime": 0.034,
  "EchoTrainLength": 100,
  "EffectiveEchoSpacing": 0.000539986,
  "FlipAngle": 90,
  "ImageOrientationPatientDICOM": [1, -0.000107063, -0.000556199, 1.02462e-08, 0.981977, -0.189002],
  "ImageType": [
    "ORIGINAL",
    "PRIMARY",
    "M",
    "ND",
    "MOSAIC"
],
  "InPlanePhaseEncodingDirectionDICOM": "COL",
  "InstitutionAddress": "Street_StreetNo_Bei_Jing_District_CN_ZIP",
  "InstitutionName": "BeiJing_Normal_University",
  "InstitutionalDepartmentName": "Department",
  "MRAcquisitionType": "2D",
  "MagneticFieldStrength": 3,
  "Manufacturer": "Siemens",
  "ManufacturersModelName": "Prisma",
  "Modality": "MR",
  "MultibandAccelerationFactor": 3,
  "PartialFourier": 1,
  "PatientPosition": "HFS",
  "PercentPhaseFOV": 100,
  "PhaseEncodingDirection": "j-",
  "PhaseEncodingSteps": 100,
  "PhaseResolution": 1,
  "PixelBandwidth": 2380,
  "ProcedureStepDescription": "BNU_P2018_64CH_Liu.Jia",
  "ProtocolName": "bold_100x100_s3_2x2x2_232",
  "PulseSequenceDetails": "%SiemensSeq%_ep2d_bold",
  "ReceiveCoilActiveElements": "HC1-7;NC1",
  "ReceiveCoilName": "HeadNeck_64",
  "ReconMatrixPE": 100,
  "RepetitionTime": 2,
  "SAR": 0.0673566,
  "ScanOptions": "FS",
  "ScanningSequence": "EP",
  "SequenceName": "_epfid2d1_100",
  "SequenceVariant": "SK",
  "SeriesDescription": "bold_100x100_s3_2x2x2_232",
  "SeriesNumber": 5,
  "ShimSetting": [-5458, -11507, -1280, 407, -44, -209, -165, 85],
  "SliceThickness": 2,
  "SliceTiming": [1.485, 0, 0.99, 0.0825, 1.0725, 0.165, 1.155, 0.2475, 1.2375, 0.33, 1.32, 0.4125, 1.4025, 0.5775, 1.5675, 0.66, 1.65, 0.7425, 1.7325, 0.825, 1.815, 0.9075, 1.8975, 0.495, 1.485, 0, 0.99, 0.0825, 1.0725, 0.165, 1.155, 0.2475, 1.2375, 0.33, 1.32, 0.4125, 1.4025, 0.5775, 1.5675, 0.66, 1.65, 0.7425, 1.7325, 0.825, 1.815, 0.9075, 1.8975, 0.495, 1.485, 0, 0.99, 0.0825, 1.0725, 0.165, 1.155, 0.2475, 1.2375, 0.33, 1.32, 0.4125, 1.4025, 0.5775, 1.5675, 0.66, 1.65, 0.7425, 1.7325, 0.825, 1.815, 0.9075, 1.8975, 0.495],
  "SoftwareVersions": "syngo_MR_E11",
  "SpacingBetweenSlices": 2,
  "StationName": "AWP166078",
  "TaskName": "motor",
  "TotalReadoutTime": 0.0534586,
  "TxRefAmp": 221.301,
  "dcmmeta_affine": [
    [-1.9999996423721313, 2.049231717649036e-08, -0.0011328199179843068, 101.350830078125],
    [0.00021412553905975074, 1.9639533758163452, -0.3780042827129364, -80.23090362548828],
    [-0.0011123988078907132, 0.3780043423175812, 1.9639530181884766, -94.81794738769531],
    [0.0, 0.0, 0.0, 1.0]
],
  "dcmmeta_reorient_transform": [
    [0.0, -1.0, 0.0, 99.0],
    [1.0, 0.0, 0.0, 0.0],
    [0.0, 0.0, 1.0, 0.0],
    [0.0, 0.0, 0.0, 1.0]
],
  "dcmmeta_shape": [100, 100, 72, 232],
  "dcmmeta_slice_dim": 2,
  "dcmmeta_version": 0.6,
  "global": {
    "const": {
      "AcquisitionMatrix": [100, 0, 0, 100],
      "AngioFlag": "N",
      "BitsAllocated": 16,
      "BitsStored": 12,
      "BodyPartExamined": "BRAIN",
      "Columns": 900,
      "EchoNumbers": 1,
      "EchoTime": 34.0,
      "EchoTrainLength": 100,
      "FlipAngle": 90.0,
      "HighBit": 11,
      "ImageOrientationPatient": [0.99999983958988, -0.0001070627665, -0.0005561994108, 1.0246159e-08, 0.98197667059432, -0.1890021650894],
      "ImagePositionPatient": [-901.35071543456, -899.69616061008, 94.251171543823],
      "ImageType": [
        "ORIGINAL",
        "PRIMARY",
        "M",
        "ND",
        "MOSAIC"
],
      "ImagedNucleus": "1H",
      "ImagingFrequency": 123.257839,
      "InPlanePhaseEncodingDirection": "COL",
      "MRAcquisitionType": "2D",
      "MagneticFieldStrength": 3.0,
      "Manufacturer": "SIEMENS",
      "ManufacturerModelName": "Prisma",
      "Modality": "MR",
      "NumberOfAverages": 1.0,
      "NumberOfPhaseEncodingSteps": 100,
      "PercentPhaseFieldOfView": 100.0,
      "PercentSampling": 100.0,
      "PerformedProcedureStepStartTime": "102529.662000",
      "PhotometricInterpretation": "MONOCHROME2",
      "PixelBandwidth": 2380.0,
      "PixelRepresentation": 0,
      "PixelSpacing": [2.0, 2.0],
      "ProtocolName": "bold_100x100_s3_2x2x2_232",
      "RepetitionTime": 2000.0,
      "Rows": 900,
      "SAR": 0.06735661028479,
      "SamplesPerPixel": 1,
      "ScanOptions": "FS",
      "ScanningSequence": "EP",
      "SequenceName": "*epfid2d1_100",
      "SequenceVariant": "SK",
      "SeriesDescription": "bold_100x100_s3_2x2x2_232",
      "SeriesNumber": 5,
      "SeriesTime": "104517.727000",
      "SliceLocation": -78.002592214855,
      "SliceThickness": 2.0,
      "SmallestImagePixelValue": 0,
      "SoftwareVersions": "syngo MR E11",
      "SpacingBetweenSlices": 2.000000019704,
      "SpecificCharacterSet": "ISO_IR 100",
      "StudyID": "1",
      "StudyTime": "102529.600000",
      "TransmitCoilName": "Body",
      "VariableFlipAngleFlag": "N",
      "WindowCenterWidthExplanation": "Algo1",
      "dBdt": 0.0},
    "slices": {}
  },
  "time": {
    "samples": {
      "AcquisitionNumber": [1, 2, 3, 4, 5, 6, 7, 8, 9, 10, 11, 12, 13, 14, 15, 16, 17, 18, 19, 20, 21, 22, 23, 24, 25, 26, 27, 28, 29, 30, 31, 32, 33, 34, 35, 36, 37, 38, 39, 40, 41, 42, 43, 44, 45, 46, 47, 48, 49, 50, 51, 52, 53, 54, 55, 56, 57, 58, 59, 60, 61, 62, 63, 64, 65, 66, 67, 68, 69, 70, 71, 72, 73, 74, 75, 76, 77, 78, 79, 80, 81, 82, 83, 84, 85, 86, 87, 88, 89, 90, 91, 92, 93, 94, 95, 96, 97, 98, 99, 100, 101, 102, 103, 104, 105, 106, 107, 108, 109, 110, 111, 112, 113, 114, 115, 116, 117, 118, 119, 120, 121, 122, 123, 124, 125, 126, 127, 128, 129, 130, 131, 132, 133, 134, 135, 136, 137, 138, 139, 140, 141, 142, 143, 144, 145, 146, 147, 148, 149, 150, 151, 152, 153, 154, 155, 156, 157, 158, 159, 160, 161, 162, 163, 164, 165, 166, 167, 168, 169, 170, 171, 172, 173, 174, 175, 176, 177, 178, 179, 180, 181, 182, 183, 184, 185, 186, 187, 188, 189, 190, 191, 192, 193, 194, 195, 196, 197, 198, 199, 200, 201, 202, 203, 204, 205, 206, 207, 208, 209, 210, 211, 212, 213, 214, 215, 216, 217, 218, 219, 220, 221, 222, 223, 224, 225, 226, 227, 228, 229, 230, 231, 232],
      "AcquisitionTime": ["104514.907500", "104516.907500", "104518.907500", "104520.907500", "104522.907500", "104524.907500", "104526.907500", "104528.907500", "104530.907500", "104532.907500", "104534.907500", "104536.907500", "104538.907500", "104540.907500", "104542.907500", "104544.907500", "104546.907500", "104548.907500", "104550.907500", "104552.907500", "104554.907500", "104556.907500", "104558.907500", "104600.907500", "104602.907500", "104604.907500", "104606.907500", "104608.907500", "104610.907500", "104612.907500", "104614.907500", "104616.907500", "104618.907500", "104620.907500", "104622.907500", "104624.907500", "104626.907500", "104628.907500", "104630.907500", "104632.907500", "104634.907500", "104636.907500", "104638.907500", "104640.907500", "104642.907500", "104644.907500", "104646.907500", "104648.907500", "104650.907500", "104652.907500", "104654.907500", "104656.907500", "104658.907500", "104700.907500", "104702.907500", "104704.907500", "104706.907500", "104708.907500", "104710.907500", "104712.907500", "104714.907500", "104716.907500", "104718.907500", "104720.907500", "104722.907500", "104724.907500", "104726.907500", "104728.907500", "104730.907500", "104732.907500", "104734.907500", "104736.907500", "104738.907500", "104740.907500", "104742.907500", "104744.907500", "104746.907500", "104748.907500", "104750.907500", "104752.907500", "104754.907500", "104756.907500", "104758.907500", "104800.907500", "104802.907500", "104804.907500", "104806.907500", "104808.907500", "104810.907500", "104812.907500", "104814.907500", "104816.907500", "104818.907500", "104820.907500", "104822.907500", "104824.907500", "104826.907500", "104828.907500", "104830.907500", "104832.907500", "104834.907500", "104836.907500", "104838.907500", "104840.907500", "104842.907500", "104844.907500", "104846.907500", "104848.907500", "104850.907500", "104852.907500", "104854.907500", "104856.907500", "104858.907500", "104900.907500", "104902.907500", "104904.907500", "104906.907500", "104908.907500", "104910.907500", "104912.907500", "104914.907500", "104916.907500", "104918.907500", "104920.907500", "104922.907500", "104924.907500", "104926.907500", "104928.907500", "104930.907500", "104932.907500", "104934.907500", "104936.907500", "104938.907500", "104940.907500", "104942.907500", "104944.907500", "104946.907500", "104948.907500", "104950.907500", "104952.907500", "104954.907500", "104956.907500", "104958.907500", "105000.907500", "105002.907500", "105004.907500", "105006.907500", "105008.907500", "105010.907500", "105012.907500", "105014.907500", "105016.907500", "105018.907500", "105020.907500", "105022.907500", "105024.907500", "105026.907500", "105028.907500", "105030.907500", "105032.907500", "105034.907500", "105036.907500", "105038.907500", "105040.907500", "105042.907500", "105044.907500", "105046.907500", "105048.907500", "105050.907500", "105052.907500", "105054.907500", "105056.907500", "105058.907500", "105100.907500", "105102.907500", "105104.907500", "105106.907500", "105108.907500", "105110.907500", "105112.907500", "105114.907500", "105116.907500", "105118.907500", "105120.907500", "105122.907500", "105124.907500", "105126.907500", "105128.907500", "105130.907500", "105132.907500", "105134.907500", "105136.907500", "105138.907500", "105140.907500", "105142.907500", "105144.907500", "105146.907500", "105148.907500", "105150.907500", "105152.907500", "105154.907500", "105156.907500", "105158.907500", "105200.907500", "105202.907500", "105204.907500", "105206.907500", "105208.907500", "105210.907500", "105212.907500", "105214.907500", "105216.907500", "105218.907500", "105220.907500", "105222.907500", "105224.907500", "105226.907500", "105228.907500", "105230.907500", "105232.907500", "105234.907500", "105236.907500", "105238.907500", "105240.907500", "105242.907500", "105244.907500", "105246.907500", "105248.907500", "105250.907500", "105252.907500", "105254.907500", "105256.907500"],
      "ContentTime": ["104517.731000", "104519.226000", "104521.226000", "104523.226000", "104525.226000", "104527.226000", "104529.226000", "104531.227000", "104533.226000", "104535.227000", "104537.226000", "104539.227000", "104541.227000", "104543.226000", "104545.226000", "104547.227000", "104549.226000", "104551.226000", "104553.226000", "104555.727000", "104557.226000", "104559.227000", "104601.226000", "104603.227000", "104605.226000", "104607.226000", "104609.226000", "104611.226000", "104613.227000", "104615.226000", "104617.226000", "104619.226000", "104621.227000", "104623.226000", "104625.227000", "104627.227000", "104629.226000", "104631.226000", "104633.227000", "104635.226000", "104637.226000", "104639.226000", "104641.226000", "104643.227000", "104645.226000", "104647.226000", "104649.226000", "104651.226000", "104653.226000", "104655.227000", "104657.227000", "104659.226000", "104701.226000", "104703.226000", "104705.226000", "104707.226000", "104709.226000", "104711.227000", "104713.226000", "104715.226000", "104717.226000", "104719.227000", "104721.227000", "104723.227000", "104725.226000", "104727.226000", "104729.226000", "104731.226000", "104733.227000", "104735.226000", "104737.227000", "104739.227000", "104741.226000", "104743.226000", "104745.226000", "104747.226000", "104749.226000", "104751.227000", "104753.227000", "104755.226000", "104757.227000", "104759.227000", "104801.226000", "104803.226000", "104805.226000", "104807.227000", "104809.226000", "104811.226000", "104813.226000", "104815.227000", "104817.226000", "104819.227000", "104821.227000", "104823.227000", "104825.227000", "104827.226000", "104829.226000", "104831.226000", "104833.226000", "104835.226000", "104837.227000", "104839.226000", "104841.227000", "104843.226000", "104845.226000", "104847.227000", "104849.227000", "104851.227000", "104853.226000", "104855.226000", "104857.227000", "104859.226000", "104901.226000", "104903.226000", "104905.227000", "104907.226000", "104909.226000", "104911.226000", "104913.226000", "104915.226000", "104917.227000", "104919.727000", "104921.726000", "104923.226000", "104925.227000", "104927.226000", "104929.226000", "104931.226000", "104933.226000", "104935.227000", "104937.226000", "104939.227000", "104941.227000", "104943.227000", "104945.226000", "104947.226000", "104949.226000", "104951.226000", "104953.227000", "104955.227000", "104957.228000", "104959.226000", "105001.227000", "105003.226000", "105005.227000", "105007.226000", "105009.226000", "105011.227000", "105013.226000", "105015.226000", "105017.226000", "105019.226000", "105021.226000", "105023.226000", "105025.226000", "105027.227000", "105029.227000", "105031.226000", "105033.226000", "105035.226000", "105037.226000", "105039.226000", "105041.226000", "105043.227000", "105045.226000", "105047.226000", "105049.227000", "105051.227000", "105053.226000", "105055.227000", "105057.226000", "105059.227000", "105101.226000", "105103.227000", "105105.226000", "105107.226000", "105109.226000", "105111.226000", "105113.227000", "105115.727000", "105117.226000", "105119.226000", "105121.226000", "105123.226000", "105125.227000", "105127.226000", "105129.226000", "105131.226000", "105133.226000", "105135.226000", "105137.227000", "105139.226000", "105141.226000", "105143.226000", "105145.226000", "105147.227000", "105149.227000", "105151.226000", "105153.226000", "105155.227000", "105157.226000", "105159.227000", "105201.226000", "105203.227000", "105205.226000", "105207.227000", "105209.227000", "105211.227000", "105213.226000", "105215.226000", "105217.226000", "105219.227000", "105221.226000", "105223.226000", "105225.226000", "105227.226000", "105229.228000", "105231.227000", "105233.227000", "105235.226000", "105237.226000", "105239.226000", "105241.226000", "105243.227000", "105245.226000", "105247.227000", "105249.226000", "105251.227000", "105253.227000", "105255.226000", "105257.226000", "105259.061000"],
      "InstanceCreationTime": ["104517.731000", "104519.226000", "104521.226000", "104523.226000", "104525.226000", "104527.226000", "104529.226000", "104531.227000", "104533.226000", "104535.227000", "104537.226000", "104539.227000", "104541.227000", "104543.226000", "104545.226000", "104547.227000", "104549.226000", "104551.226000", "104553.226000", "104555.727000", "104557.226000", "104559.227000", "104601.226000", "104603.227000", "104605.226000", "104607.226000", "104609.226000", "104611.226000", "104613.227000", "104615.226000", "104617.226000", "104619.226000", "104621.227000", "104623.226000", "104625.227000", "104627.227000", "104629.226000", "104631.226000", "104633.227000", "104635.226000", "104637.226000", "104639.226000", "104641.226000", "104643.227000", "104645.226000", "104647.226000", "104649.226000", "104651.226000", "104653.226000", "104655.227000", "104657.227000", "104659.226000", "104701.226000", "104703.226000", "104705.226000", "104707.226000", "104709.226000", "104711.227000", "104713.226000", "104715.226000", "104717.226000", "104719.227000", "104721.227000", "104723.227000", "104725.226000", "104727.226000", "104729.226000", "104731.226000", "104733.227000", "104735.226000", "104737.227000", "104739.227000", "104741.226000", "104743.226000", "104745.226000", "104747.226000", "104749.226000", "104751.227000", "104753.227000", "104755.226000", "104757.227000", "104759.227000", "104801.226000", "104803.226000", "104805.226000", "104807.227000", "104809.226000", "104811.226000", "104813.226000", "104815.227000", "104817.226000", "104819.227000", "104821.227000", "104823.227000", "104825.227000", "104827.226000", "104829.226000", "104831.226000", "104833.226000", "104835.226000", "104837.227000", "104839.226000", "104841.227000", "104843.226000", "104845.226000", "104847.227000", "104849.227000", "104851.227000", "104853.226000", "104855.226000", "104857.227000", "104859.226000", "104901.226000", "104903.226000", "104905.227000", "104907.226000", "104909.226000", "104911.226000", "104913.226000", "104915.226000", "104917.227000", "104919.727000", "104921.726000", "104923.226000", "104925.227000", "104927.226000", "104929.226000", "104931.226000", "104933.226000", "104935.227000", "104937.226000", "104939.227000", "104941.227000", "104943.227000", "104945.226000", "104947.226000", "104949.226000", "104951.226000", "104953.227000", "104955.227000", "104957.228000", "104959.226000", "105001.227000", "105003.226000", "105005.227000", "105007.226000", "105009.226000", "105011.227000", "105013.226000", "105015.226000", "105017.226000", "105019.226000", "105021.226000", "105023.226000", "105025.226000", "105027.227000", "105029.227000", "105031.226000", "105033.226000", "105035.226000", "105037.226000", "105039.226000", "105041.226000", "105043.227000", "105045.226000", "105047.226000", "105049.227000", "105051.227000", "105053.226000", "105055.227000", "105057.226000", "105059.227000", "105101.226000", "105103.227000", "105105.226000", "105107.226000", "105109.226000", "105111.226000", "105113.227000", "105115.727000", "105117.226000", "105119.226000", "105121.226000", "105123.226000", "105125.227000", "105127.226000", "105129.226000", "105131.226000", "105133.226000", "105135.226000", "105137.227000", "105139.226000", "105141.226000", "105143.226000", "105145.226000", "105147.227000", "105149.227000", "105151.226000", "105153.226000", "105155.227000", "105157.226000", "105159.227000", "105201.226000", "105203.227000", "105205.226000", "105207.227000", "105209.227000", "105211.227000", "105213.226000", "105215.226000", "105217.226000", "105219.227000", "105221.226000", "105223.226000", "105225.226000", "105227.226000", "105229.228000", "105231.227000", "105233.227000", "105235.226000", "105237.226000", "105239.226000", "105241.226000", "105243.227000", "105245.226000", "105247.227000", "105249.226000", "105251.227000", "105253.227000", "105255.226000", "105257.226000", "105259.061000"],
      "InstanceNumber": [1, 2, 3, 4, 5, 6, 7, 8, 9, 10, 11, 12, 13, 14, 15, 16, 17, 18, 19, 20, 21, 22, 23, 24, 25, 26, 27, 28, 29, 30, 31, 32, 33, 34, 35, 36, 37, 38, 39, 40, 41, 42, 43, 44, 45, 46, 47, 48, 49, 50, 51, 52, 53, 54, 55, 56, 57, 58, 59, 60, 61, 62, 63, 64, 65, 66, 67, 68, 69, 70, 71, 72, 73, 74, 75, 76, 77, 78, 79, 80, 81, 82, 83, 84, 85, 86, 87, 88, 89, 90, 91, 92, 93, 94, 95, 96, 97, 98, 99, 100, 101, 102, 103, 104, 105, 106, 107, 108, 109, 110, 111, 112, 113, 114, 115, 116, 117, 118, 119, 120, 121, 122, 123, 124, 125, 126, 127, 128, 129, 130, 131, 132, 133, 134, 135, 136, 137, 138, 139, 140, 141, 142, 143, 144, 145, 146, 147, 148, 149, 150, 151, 152, 153, 154, 155, 156, 157, 158, 159, 160, 161, 162, 163, 164, 165, 166, 167, 168, 169, 170, 171, 172, 173, 174, 175, 176, 177, 178, 179, 180, 181, 182, 183, 184, 185, 186, 187, 188, 189, 190, 191, 192, 193, 194, 195, 196, 197, 198, 199, 200, 201, 202, 203, 204, 205, 206, 207, 208, 209, 210, 211, 212, 213, 214, 215, 216, 217, 218, 219, 220, 221, 222, 223, 224, 225, 226, 227, 228, 229, 230, 231, 232],
      "LargestImagePixelValue": [2897, 2759, 2726, 2712, 2961, 2692, 2724, 2816, 2731, 2750, 2756, 2691, 2722, 2795, 2751, 2961, 2739, 2745, 2734, 2745, 2823, 2685, 2700, 2705, 2905, 2780, 2699, 2885, 2701, 2681, 2684, 2868, 2700, 2703, 2751, 2700, 2864, 2792, 2752, 2934, 2811, 2770, 2866, 2806, 2983, 2818, 2810, 2900, 2772, 2846, 2791, 2816, 2774, 2789, 2758, 2825, 2755, 2881, 2942, 3078, 2973, 3220, 2964, 2930, 2896, 2952, 2949, 2913, 2982, 2895, 2938, 2968, 2934, 2945, 2981, 2920, 2931, 2910, 2872, 2855, 2828, 2807, 2814, 2835, 2847, 2819, 2850, 2879, 2853, 2827, 2852, 2755, 2854, 2891, 2853, 2915, 2900, 2783, 2829, 2909, 2754, 2826, 2815, 2800, 2786, 2843, 2785, 2907, 2853, 2738, 2941, 2808, 2883, 2841, 3016, 3038, 2848, 2807, 2875, 2833, 2870, 2817, 2852, 2898, 2848, 2781, 2819, 2957, 2734, 3092, 2862, 2862, 2962, 2921, 2850, 2913, 2897, 2894, 2850, 2807, 2816, 2759, 2776, 2808, 2895, 2779, 2859, 2746, 2732, 2764, 2798, 2816, 2872, 2786, 3055, 2936, 2777, 2800, 2741, 2734, 2789, 2904, 2841, 2833, 2815, 2812, 2918, 2806, 2856, 2949, 2858, 2829, 2781, 2847, 2947, 2830, 2995, 2843, 2952, 2931, 3198, 2919, 2991, 2821, 2801, 2904, 3117, 2850, 3003, 2949, 2810, 2714, 3101, 3044, 2971, 3221, 3014, 3052, 2970, 3009, 3012, 2956, 3046, 3018, 3000, 3000, 3075, 3164, 2967, 3051, 2985, 3001, 3036, 2965, 3009, 3019, 2971, 3096, 2936, 3009, 2923, 3078, 2942, 2991, 3013, 2902, 3161, 2920, 2924, 3031, 2914, 3190],
      "WindowCenter": [746.0, 743.0, 743.0, 742.0, 744.0, 741.0, 743.0, 743.0, 742.0, 742.0, 743.0, 742.0, 741.0, 741.0, 741.0, 744.0, 743.0, 743.0, 743.0, 743.0, 743.0, 741.0, 741.0, 742.0, 745.0, 743.0, 742.0, 743.0, 741.0, 741.0, 741.0, 743.0, 742.0, 743.0, 744.0, 742.0, 745.0, 743.0, 742.0, 744.0, 743.0, 745.0, 741.0, 744.0, 747.0, 737.0, 746.0, 745.0, 743.0, 746.0, 747.0, 747.0, 746.0, 744.0, 745.0, 745.0, 744.0, 744.0, 745.0, 747.0, 746.0, 748.0, 745.0, 745.0, 745.0, 746.0, 745.0, 744.0, 745.0, 744.0, 745.0, 745.0, 745.0, 746.0, 746.0, 747.0, 748.0, 747.0, 747.0, 746.0, 745.0, 744.0, 744.0, 744.0, 743.0, 744.0, 745.0, 744.0, 745.0, 746.0, 747.0, 746.0, 747.0, 747.0, 745.0, 745.0, 745.0, 744.0, 745.0, 744.0, 743.0, 743.0, 743.0, 743.0, 742.0, 740.0, 745.0, 744.0, 744.0, 739.0, 746.0, 744.0, 744.0, 744.0, 746.0, 747.0, 745.0, 745.0, 745.0, 744.0, 743.0, 742.0, 743.0, 743.0, 743.0, 743.0, 741.0, 743.0, 734.0, 749.0, 745.0, 744.0, 745.0, 746.0, 744.0, 744.0, 744.0, 745.0, 745.0, 745.0, 745.0, 744.0, 744.0, 744.0, 744.0, 743.0, 744.0, 743.0, 742.0, 742.0, 743.0, 743.0, 744.0, 745.0, 749.0, 748.0, 747.0, 745.0, 743.0, 745.0, 745.0, 746.0, 743.0, 743.0, 744.0, 745.0, 744.0, 743.0, 744.0, 745.0, 744.0, 745.0, 745.0, 745.0, 745.0, 744.0, 746.0, 745.0, 746.0, 745.0, 746.0, 744.0, 745.0, 743.0, 743.0, 736.0, 747.0, 742.0, 743.0, 746.0, 743.0, 740.0, 750.0, 747.0, 748.0, 750.0, 747.0, 747.0, 746.0, 747.0, 747.0, 746.0, 748.0, 746.0, 746.0, 746.0, 747.0, 747.0, 745.0, 747.0, 746.0, 745.0, 746.0, 746.0, 745.0, 745.0, 744.0, 749.0, 749.0, 748.0, 745.0, 746.0, 745.0, 746.0, 746.0, 745.0, 748.0, 744.0, 743.0, 746.0, 745.0, 748.0],
      "WindowWidth": [1593.0, 1585.0, 1583.0, 1581.0, 1587.0, 1581.0, 1585.0, 1585.0, 1581.0, 1581.0, 1585.0, 1582.0, 1580.0, 1580.0, 1580.0, 1586.0, 1583.0, 1585.0, 1584.0, 1583.0, 1583.0, 1580.0, 1580.0, 1582.0, 1588.0, 1585.0, 1583.0, 1584.0, 1580.0, 1580.0, 1581.0, 1585.0, 1583.0, 1584.0, 1587.0, 1583.0, 1588.0, 1585.0, 1583.0, 1587.0, 1583.0, 1590.0, 1581.0, 1589.0, 1595.0, 1571.0, 1592.0, 1591.0, 1585.0, 1591.0, 1596.0, 1593.0, 1591.0, 1587.0, 1591.0, 1590.0, 1587.0, 1587.0, 1590.0, 1594.0, 1591.0, 1596.0, 1590.0, 1590.0, 1589.0, 1592.0, 1589.0, 1587.0, 1589.0, 1588.0, 1590.0, 1590.0, 1590.0, 1591.0, 1592.0, 1595.0, 1596.0, 1593.0, 1593.0, 1593.0, 1589.0, 1588.0, 1588.0, 1588.0, 1585.0, 1587.0, 1588.0, 1587.0, 1589.0, 1591.0, 1594.0, 1591.0, 1595.0, 1593.0, 1588.0, 1588.0, 1589.0, 1587.0, 1589.0, 1587.0, 1584.0, 1585.0, 1583.0, 1583.0, 1581.0, 1577.0, 1588.0, 1587.0, 1586.0, 1575.0, 1591.0, 1586.0, 1587.0, 1585.0, 1592.0, 1593.0, 1588.0, 1589.0, 1590.0, 1585.0, 1584.0, 1581.0, 1584.0, 1584.0, 1586.0, 1585.0, 1579.0, 1584.0, 1562.0, 1599.0, 1588.0, 1587.0, 1588.0, 1592.0, 1588.0, 1586.0, 1587.0, 1589.0, 1589.0, 1588.0, 1588.0, 1585.0, 1585.0, 1586.0, 1586.0, 1584.0, 1587.0, 1583.0, 1581.0, 1581.0, 1583.0, 1584.0, 1587.0, 1590.0, 1599.0, 1597.0, 1593.0, 1588.0, 1583.0, 1587.0, 1589.0, 1591.0, 1585.0, 1583.0, 1586.0, 1588.0, 1587.0, 1583.0, 1587.0, 1590.0, 1587.0, 1588.0, 1589.0, 1588.0, 1589.0, 1586.0, 1590.0, 1589.0, 1592.0, 1589.0, 1590.0, 1586.0, 1589.0, 1583.0, 1583.0, 1568.0, 1595.0, 1584.0, 1585.0, 1591.0, 1584.0, 1579.0, 1601.0, 1594.0, 1595.0, 1601.0, 1593.0, 1595.0, 1592.0, 1593.0, 1594.0, 1592.0, 1595.0, 1591.0, 1590.0, 1590.0, 1593.0, 1594.0, 1590.0, 1594.0, 1591.0, 1590.0, 1590.0, 1590.0, 1589.0, 1588.0, 1587.0, 1598.0, 1600.0, 1596.0, 1589.0, 1590.0, 1588.0, 1590.0, 1591.0, 1589.0, 1595.0, 1587.0, 1585.0, 1590.0, 1588.0, 1595.0]
    },
    "slices": {}
  }
}