{
  "AcquisitionMatrixPE": 100,
  "AcquisitionNumber": 1,
  "AcquisitionTime": "11:14:12.977500",
  "BandwidthPerPixelPhaseEncode": 18.519,
  "BaseResolution": 100,
  "BodyPartExamined": "BRAIN",
  "ConsistencyInfo": "N4_VE11C_LATEST_20160120",
  "ConversionSoftware": "dcm2niix",
  "ConversionSoftwareVersion": "v1.0.20180622 GCC4.9.2",
  "DerivedVendorReportedEchoSpacing": 0.000539986,
  "DeviceSerialNumber": "166078",
  "DwellTime": 2.1e-06,
  "EchoTime": 0.034,
  "EchoTrainLength": 100,
  "EffectiveEchoSpacing": 0.000539986,
  "FlipAngle": 90,
  "ImageOrientationPatientDICOM": [1, -0.000107063, -0.000556199, 1.02462e-08, 0.981977, -0.189002],
  "ImageType": [
    "ORIGINAL",
    "PRIMARY",
    "M",
    "ND",
    "MOSAIC"
],
  "InPlanePhaseEncodingDirectionDICOM": "COL",
  "InstitutionAddress": "Street_StreetNo_Bei_Jing_District_CN_ZIP",
  "InstitutionName": "BeiJing_Normal_University",
  "InstitutionalDepartmentName": "Department",
  "MRAcquisitionType": "2D",
  "MagneticFieldStrength": 3,
  "Manufacturer": "Siemens",
  "ManufacturersModelName": "Prisma",
  "Modality": "MR",
  "MultibandAccelerationFactor": 3,
  "PartialFourier": 1,
  "PatientPosition": "HFS",
  "PercentPhaseFOV": 100,
  "PhaseEncodingDirection": "j-",
  "PhaseEncodingSteps": 100,
  "PhaseResolution": 1,
  "PixelBandwidth": 2380,
  "ProcedureStepDescription": "BNU_P2018_64CH_Liu.Jia",
  "ProtocolName": "bold_100x100_s3_2x2x2_232",
  "PulseSequenceDetails": "%SiemensSeq%_ep2d_bold",
  "ReceiveCoilActiveElements": "HC1-7;NC1",
  "ReceiveCoilName": "HeadNeck_64",
  "ReconMatrixPE": 100,
  "RepetitionTime": 2,
  "SAR": 0.0673566,
  "ScanOptions": "FS",
  "ScanningSequence": "EP",
  "SequenceName": "_epfid2d1_100",
  "SequenceVariant": "SK",
  "SeriesDescription": "bold_100x100_s3_2x2x2_232",
  "SeriesNumber": 10,
  "ShimSetting": [-5458, -11507, -1280, 407, -44, -209, -165, 85],
  "SliceThickness": 2,
  "SliceTiming": [1.485, 0, 0.99, 0.0825, 1.0725, 0.165, 1.155, 0.2475, 1.2375, 0.33, 1.32, 0.4125, 1.4025, 0.5775, 1.5675, 0.66, 1.65, 0.7425, 1.7325, 0.825, 1.815, 0.9075, 1.8975, 0.495, 1.485, 0, 0.99, 0.0825, 1.0725, 0.165, 1.155, 0.2475, 1.2375, 0.33, 1.32, 0.4125, 1.4025, 0.5775, 1.5675, 0.66, 1.65, 0.7425, 1.7325, 0.825, 1.815, 0.9075, 1.8975, 0.495, 1.485, 0, 0.99, 0.0825, 1.0725, 0.165, 1.155, 0.2475, 1.2375, 0.33, 1.32, 0.4125, 1.4025, 0.5775, 1.5675, 0.66, 1.65, 0.7425, 1.7325, 0.825, 1.815, 0.9075, 1.8975, 0.495],
  "SoftwareVersions": "syngo_MR_E11",
  "SpacingBetweenSlices": 2,
  "StationName": "AWP166078",
  "TaskName": "motor",
  "TotalReadoutTime": 0.0534586,
  "TxRefAmp": 221.301,
  "dcmmeta_affine": [
    [-1.9999996423721313, 2.049231717649036e-08, -0.0011328199179843068, 101.350830078125],
    [0.00021412553905975074, 1.9639533758163452, -0.3780042827129364, -80.23090362548828],
    [-0.0011123988078907132, 0.3780043423175812, 1.9639530181884766, -94.81794738769531],
    [0.0, 0.0, 0.0, 1.0]
],
  "dcmmeta_reorient_transform": [
    [0.0, -1.0, 0.0, 99.0],
    [1.0, 0.0, 0.0, 0.0],
    [0.0, 0.0, 1.0, 0.0],
    [0.0, 0.0, 0.0, 1.0]
],
  "dcmmeta_shape": [100, 100, 72, 232],
  "dcmmeta_slice_dim": 2,
  "dcmmeta_version": 0.6,
  "global": {
    "const": {
      "AcquisitionMatrix": [100, 0, 0, 100],
      "AngioFlag": "N",
      "BitsAllocated": 16,
      "BitsStored": 12,
      "BodyPartExamined": "BRAIN",
      "Columns": 900,
      "EchoNumbers": 1,
      "EchoTime": 34.0,
      "EchoTrainLength": 100,
      "FlipAngle": 90.0,
      "HighBit": 11,
      "ImageOrientationPatient": [0.99999983958988, -0.0001070627665, -0.0005561994108, 1.0246159e-08, 0.98197667059432, -0.1890021650894],
      "ImagePositionPatient": [-901.35071543456, -899.69616061008, 94.251171543823],
      "ImageType": [
        "ORIGINAL",
        "PRIMARY",
        "M",
        "ND",
        "MOSAIC"
],
      "ImagedNucleus": "1H",
      "ImagingFrequency": 123.257849,
      "InPlanePhaseEncodingDirection": "COL",
      "MRAcquisitionType": "2D",
      "MagneticFieldStrength": 3.0,
      "Manufacturer": "SIEMENS",
      "ManufacturerModelName": "Prisma",
      "Modality": "MR",
      "NumberOfAverages": 1.0,
      "NumberOfPhaseEncodingSteps": 100,
      "PercentPhaseFieldOfView": 100.0,
      "PercentSampling": 100.0,
      "PerformedProcedureStepStartTime": "102529.662000",
      "PhotometricInterpretation": "MONOCHROME2",
      "PixelBandwidth": 2380.0,
      "PixelRepresentation": 0,
      "PixelSpacing": [2.0, 2.0],
      "ProtocolName": "bold_100x100_s3_2x2x2_232",
      "RepetitionTime": 2000.0,
      "Rows": 900,
      "SAR": 0.06735661028479,
      "SamplesPerPixel": 1,
      "ScanOptions": "FS",
      "ScanningSequence": "EP",
      "SequenceName": "*epfid2d1_100",
      "SequenceVariant": "SK",
      "SeriesDescription": "bold_100x100_s3_2x2x2_232",
      "SeriesNumber": 10,
      "SeriesTime": "111415.610000",
      "SliceLocation": -78.002592214855,
      "SliceThickness": 2.0,
      "SmallestImagePixelValue": 0,
      "SoftwareVersions": "syngo MR E11",
      "SpacingBetweenSlices": 2.000000019704,
      "SpecificCharacterSet": "ISO_IR 100",
      "StudyID": "1",
      "StudyTime": "102529.600000",
      "TransmitCoilName": "Body",
      "VariableFlipAngleFlag": "N",
      "WindowCenterWidthExplanation": "Algo1",
      "dBdt": 0.0},
    "slices": {}
  },
  "time": {
    "samples": {
      "AcquisitionNumber": [1, 2, 3, 4, 5, 6, 7, 8, 9, 10, 11, 12, 13, 14, 15, 16, 17, 18, 19, 20, 21, 22, 23, 24, 25, 26, 27, 28, 29, 30, 31, 32, 33, 34, 35, 36, 37, 38, 39, 40, 41, 42, 43, 44, 45, 46, 47, 48, 49, 50, 51, 52, 53, 54, 55, 56, 57, 58, 59, 60, 61, 62, 63, 64, 65, 66, 67, 68, 69, 70, 71, 72, 73, 74, 75, 76, 77, 78, 79, 80, 81, 82, 83, 84, 85, 86, 87, 88, 89, 90, 91, 92, 93, 94, 95, 96, 97, 98, 99, 100, 101, 102, 103, 104, 105, 106, 107, 108, 109, 110, 111, 112, 113, 114, 115, 116, 117, 118, 119, 120, 121, 122, 123, 124, 125, 126, 127, 128, 129, 130, 131, 132, 133, 134, 135, 136, 137, 138, 139, 140, 141, 142, 143, 144, 145, 146, 147, 148, 149, 150, 151, 152, 153, 154, 155, 156, 157, 158, 159, 160, 161, 162, 163, 164, 165, 166, 167, 168, 169, 170, 171, 172, 173, 174, 175, 176, 177, 178, 179, 180, 181, 182, 183, 184, 185, 186, 187, 188, 189, 190, 191, 192, 193, 194, 195, 196, 197, 198, 199, 200, 201, 202, 203, 204, 205, 206, 207, 208, 209, 210, 211, 212, 213, 214, 215, 216, 217, 218, 219, 220, 221, 222, 223, 224, 225, 226, 227, 228, 229, 230, 231, 232],
      "AcquisitionTime": ["111412.977500", "111414.977500", "111416.977500", "111418.977500", "111420.977500", "111422.977500", "111424.977500", "111426.977500", "111428.977500", "111430.977500", "111432.977500", "111434.977500", "111436.977500", "111438.977500", "111440.977500", "111442.977500", "111444.977500", "111446.977500", "111448.977500", "111450.977500", "111452.977500", "111454.977500", "111456.977500", "111458.977500", "111500.977500", "111502.977500", "111504.977500", "111506.977500", "111508.977500", "111510.977500", "111512.977500", "111514.977500", "111516.977500", "111518.977500", "111520.977500", "111522.977500", "111524.977500", "111526.977500", "111528.977500", "111530.977500", "111532.977500", "111534.977500", "111536.977500", "111538.977500", "111540.977500", "111542.977500", "111544.977500", "111546.977500", "111548.977500", "111550.977500", "111552.977500", "111554.977500", "111556.977500", "111558.977500", "111600.977500", "111602.977500", "111604.977500", "111606.977500", "111608.977500", "111610.977500", "111612.977500", "111614.977500", "111616.977500", "111618.977500", "111620.977500", "111622.977500", "111624.977500", "111626.977500", "111628.977500", "111630.977500", "111632.977500", "111634.977500", "111636.977500", "111638.977500", "111640.977500", "111642.977500", "111644.977500", "111646.977500", "111648.977500", "111650.977500", "111652.977500", "111654.977500", "111656.977500", "111658.977500", "111700.977500", "111702.977500", "111704.977500", "111706.977500", "111708.977500", "111710.977500", "111712.977500", "111714.977500", "111716.977500", "111718.977500", "111720.977500", "111722.977500", "111724.977500", "111726.977500", "111728.977500", "111730.977500", "111732.977500", "111734.977500", "111736.977500", "111738.977500", "111740.977500", "111742.977500", "111744.977500", "111746.977500", "111748.977500", "111750.977500", "111752.977500", "111754.977500", "111756.977500", "111758.977500", "111800.977500", "111802.977500", "111804.977500", "111806.977500", "111808.977500", "111810.977500", "111812.977500", "111814.977500", "111816.977500", "111818.977500", "111820.977500", "111822.977500", "111824.977500", "111826.977500", "111828.977500", "111830.977500", "111832.977500", "111834.977500", "111836.977500", "111838.977500", "111840.977500", "111842.977500", "111844.977500", "111846.977500", "111848.977500", "111850.977500", "111852.977500", "111854.977500", "111856.977500", "111858.977500", "111900.977500", "111902.977500", "111904.977500", "111906.977500", "111908.977500", "111910.977500", "111912.977500", "111914.977500", "111916.977500", "111918.977500", "111920.977500", "111922.977500", "111924.977500", "111926.977500", "111928.977500", "111930.977500", "111932.977500", "111934.977500", "111936.977500", "111938.977500", "111940.977500", "111942.977500", "111944.977500", "111946.977500", "111948.977500", "111950.977500", "111952.977500", "111954.977500", "111956.977500", "111958.977500", "112000.977500", "112002.977500", "112004.977500", "112006.977500", "112008.977500", "112010.977500", "112012.977500", "112014.977500", "112016.977500", "112018.977500", "112020.977500", "112022.977500", "112024.977500", "112026.977500", "112028.977500", "112030.977500", "112032.977500", "112034.977500", "112036.977500", "112038.977500", "112040.977500", "112042.977500", "112044.977500", "112046.977500", "112048.977500", "112050.977500", "112052.977500", "112054.977500", "112056.977500", "112058.977500", "112100.977500", "112102.977500", "112104.977500", "112106.977500", "112108.977500", "112110.977500", "112112.977500", "112114.977500", "112116.977500", "112118.977500", "112120.977500", "112122.977500", "112124.977500", "112126.977500", "112128.977500", "112130.977500", "112132.977500", "112134.977500", "112136.977500", "112138.977500", "112140.977500", "112142.977500", "112144.977500", "112146.977500", "112148.977500", "112150.977500", "112152.977500", "112154.977500"],
      "ContentTime": ["111415.614000", "111417.110000", "111419.109000", "111421.110000", "111423.610000", "111425.611000", "111427.109000", "111429.609000", "111431.109000", "111433.109000", "111435.109000", "111437.110000", "111439.110000", "111441.110000", "111443.610000", "111445.109000", "111447.609000", "111449.109000", "111451.110000", "111453.609000", "111455.109000", "111457.610000", "111459.110000", "111501.109000", "111503.109000", "111505.109000", "111507.110000", "111509.109000", "111511.109000", "111513.610000", "111515.110000", "111517.110000", "111519.609000", "111521.110000", "111523.109000", "111525.109000", "111527.109000", "111529.109000", "111531.111000", "111533.110000", "111535.110000", "111537.109000", "111539.109000", "111541.109000", "111543.609000", "111545.109000", "111547.609000", "111549.610000", "111551.110000", "111553.110000", "111555.109000", "111557.110000", "111559.110000", "111601.110000", "111603.110000", "111605.109000", "111607.110000", "111609.611000", "111611.109000", "111613.110000", "111615.609000", "111617.109000", "111619.109000", "111621.109000", "111623.110000", "111625.111000", "111627.111000", "111629.109000", "111631.109000", "111633.110000", "111635.110000", "111637.110000", "111639.109000", "111641.110000", "111643.110000", "111645.111000", "111647.109000", "111649.110000", "111651.610000", "111653.110000", "111655.109000", "111657.609000", "111659.111000", "111701.111000", "111703.110000", "111705.609000", "111707.109000", "111709.110000", "111711.110000", "111713.110000", "111715.110000", "111717.111000", "111719.110000", "111721.109000", "111723.109000", "111725.109000", "111727.110000", "111729.109000", "111731.110000", "111733.610000", "111735.110000", "111737.110000", "111739.609000", "111741.610000", "111743.609000", "111745.110000", "111747.109000", "111749.110000", "111751.611000", "111753.111000", "111755.110000", "111757.109000", "111759.110000", "111801.609000", "111803.109000", "111805.109000", "111807.110000", "111809.111000", "111811.110000", "111813.110000", "111815.109000", "111817.109000", "111819.610000", "111821.109000", "111823.610000", "111825.610000", "111827.110000", "111829.111000", "111831.110000", "111833.109000", "111835.109000", "111837.110000", "111839.609000", "111841.109000", "111843.110000", "111845.110000", "111847.610000", "111849.109000", "111851.109000", "111853.110000", "111855.610000", "111857.109000", "111859.109000", "111901.111000", "111903.111000", "111905.110000", "111907.610000", "111909.109000", "111911.109000", "111913.109000", "111915.110000", "111917.110000", "111919.111000", "111921.111000", "111923.111000", "111925.609000", "111927.609000", "111929.109000", "111931.110000", "111933.109000", "111935.110000", "111937.111000", "111939.110000", "111941.110000", "111943.110000", "111945.110000", "111947.110000", "111949.109000", "111951.609000", "111953.611000", "111955.110000", "111957.110000", "111959.109000", "112001.109000", "112003.109000", "112005.609000", "112007.110000", "112009.109000", "112011.111000", "112013.110000", "112015.110000", "112017.110000", "112019.109000", "112021.110000", "112023.110000", "112025.109000", "112027.109000", "112029.110000", "112031.110000", "112033.110000", "112035.109000", "112037.109000", "112039.110000", "112041.109000", "112043.109000", "112045.110000", "112047.110000", "112049.610000", "112051.609000", "112053.609000", "112055.109000", "112057.110000", "112059.109000", "112101.110000", "112103.110000", "112105.110000", "112107.110000", "112109.609000", "112111.110000", "112113.109000", "112115.609000", "112117.110000", "112119.109000", "112121.110000", "112123.110000", "112125.110000", "112127.110000", "112129.110000", "112131.110000", "112133.110000", "112135.110000", "112137.110000", "112139.111000", "112141.111000", "112143.110000", "112145.109000", "112147.110000", "112149.110000", "112151.110000", "112153.109000", "112155.110000", "112157.034000"],
      "InstanceCreationTime": ["111415.614000", "111417.110000", "111419.109000", "111421.110000", "111423.610000", "111425.611000", "111427.109000", "111429.609000", "111431.109000", "111433.109000", "111435.109000", "111437.110000", "111439.110000", "111441.110000", "111443.610000", "111445.109000", "111447.609000", "111449.109000", "111451.110000", "111453.609000", "111455.109000", "111457.610000", "111459.110000", "111501.109000", "111503.109000", "111505.109000", "111507.110000", "111509.109000", "111511.109000", "111513.610000", "111515.110000", "111517.110000", "111519.609000", "111521.110000", "111523.109000", "111525.109000", "111527.109000", "111529.109000", "111531.111000", "111533.110000", "111535.110000", "111537.109000", "111539.109000", "111541.109000", "111543.609000", "111545.109000", "111547.609000", "111549.610000", "111551.110000", "111553.110000", "111555.109000", "111557.110000", "111559.110000", "111601.110000", "111603.110000", "111605.109000", "111607.110000", "111609.611000", "111611.109000", "111613.110000", "111615.609000", "111617.109000", "111619.109000", "111621.109000", "111623.110000", "111625.111000", "111627.111000", "111629.109000", "111631.109000", "111633.110000", "111635.110000", "111637.110000", "111639.109000", "111641.110000", "111643.110000", "111645.111000", "111647.109000", "111649.110000", "111651.610000", "111653.110000", "111655.109000", "111657.609000", "111659.111000", "111701.111000", "111703.110000", "111705.609000", "111707.109000", "111709.110000", "111711.110000", "111713.110000", "111715.110000", "111717.111000", "111719.110000", "111721.109000", "111723.109000", "111725.109000", "111727.110000", "111729.109000", "111731.110000", "111733.610000", "111735.110000", "111737.110000", "111739.609000", "111741.610000", "111743.609000", "111745.110000", "111747.109000", "111749.110000", "111751.611000", "111753.111000", "111755.110000", "111757.109000", "111759.110000", "111801.609000", "111803.109000", "111805.109000", "111807.110000", "111809.111000", "111811.110000", "111813.110000", "111815.109000", "111817.109000", "111819.610000", "111821.109000", "111823.610000", "111825.610000", "111827.110000", "111829.111000", "111831.110000", "111833.109000", "111835.109000", "111837.110000", "111839.609000", "111841.109000", "111843.110000", "111845.110000", "111847.610000", "111849.109000", "111851.109000", "111853.110000", "111855.610000", "111857.109000", "111859.109000", "111901.111000", "111903.111000", "111905.110000", "111907.610000", "111909.109000", "111911.109000", "111913.109000", "111915.110000", "111917.110000", "111919.111000", "111921.111000", "111923.111000", "111925.609000", "111927.609000", "111929.109000", "111931.110000", "111933.109000", "111935.110000", "111937.111000", "111939.110000", "111941.110000", "111943.110000", "111945.110000", "111947.110000", "111949.109000", "111951.609000", "111953.611000", "111955.110000", "111957.110000", "111959.109000", "112001.109000", "112003.109000", "112005.609000", "112007.110000", "112009.109000", "112011.111000", "112013.110000", "112015.110000", "112017.110000", "112019.109000", "112021.110000", "112023.110000", "112025.109000", "112027.109000", "112029.110000", "112031.110000", "112033.110000", "112035.109000", "112037.109000", "112039.110000", "112041.109000", "112043.109000", "112045.110000", "112047.110000", "112049.610000", "112051.609000", "112053.609000", "112055.109000", "112057.110000", "112059.109000", "112101.110000", "112103.110000", "112105.110000", "112107.110000", "112109.609000", "112111.110000", "112113.109000", "112115.609000", "112117.110000", "112119.109000", "112121.110000", "112123.110000", "112125.110000", "112127.110000", "112129.110000", "112131.110000", "112133.110000", "112135.110000", "112137.110000", "112139.111000", "112141.111000", "112143.110000", "112145.109000", "112147.110000", "112149.110000", "112151.110000", "112153.109000", "112155.110000", "112157.034000"],
      "InstanceNumber": [1, 2, 3, 4, 5, 6, 7, 8, 9, 10, 11, 12, 13, 14, 15, 16, 17, 18, 19, 20, 21, 22, 23, 24, 25, 26, 27, 28, 29, 30, 31, 32, 33, 34, 35, 36, 37, 38, 39, 40, 41, 42, 43, 44, 45, 46, 47, 48, 49, 50, 51, 52, 53, 54, 55, 56, 57, 58, 59, 60, 61, 62, 63, 64, 65, 66, 67, 68, 69, 70, 71, 72, 73, 74, 75, 76, 77, 78, 79, 80, 81, 82, 83, 84, 85, 86, 87, 88, 89, 90, 91, 92, 93, 94, 95, 96, 97, 98, 99, 100, 101, 102, 103, 104, 105, 106, 107, 108, 109, 110, 111, 112, 113, 114, 115, 116, 117, 118, 119, 120, 121, 122, 123, 124, 125, 126, 127, 128, 129, 130, 131, 132, 133, 134, 135, 136, 137, 138, 139, 140, 141, 142, 143, 144, 145, 146, 147, 148, 149, 150, 151, 152, 153, 154, 155, 156, 157, 158, 159, 160, 161, 162, 163, 164, 165, 166, 167, 168, 169, 170, 171, 172, 173, 174, 175, 176, 177, 178, 179, 180, 181, 182, 183, 184, 185, 186, 187, 188, 189, 190, 191, 192, 193, 194, 195, 196, 197, 198, 199, 200, 201, 202, 203, 204, 205, 206, 207, 208, 209, 210, 211, 212, 213, 214, 215, 216, 217, 218, 219, 220, 221, 222, 223, 224, 225, 226, 227, 228, 229, 230, 231, 232],
      "LargestImagePixelValue": [3053, 2830, 3065, 3376, 2976, 3364, 3124, 2875, 3334, 2854, 2845, 2804, 2823, 3150, 2842, 2763, 3209, 3015, 2783, 2980, 2842, 3416, 3173, 2848, 2967, 2794, 3455, 3232, 2778, 3315, 2821, 2774, 3263, 2767, 3254, 3288, 2834, 2897, 3341, 2781, 3165, 2981, 2790, 3088, 3193, 3058, 3219, 2854, 3147, 3082, 2718, 3127, 2788, 3249, 2778, 2731, 3045, 2813, 3261, 2842, 2799, 2804, 3170, 2784, 3141, 2725, 2787, 2795, 2771, 2813, 3169, 2859, 2768, 2751, 3071, 2825, 2726, 3184, 2818, 3297, 3223, 3040, 2808, 2972, 3077, 2761, 2814, 2844, 2839, 2832, 2760, 3128, 3421, 2792, 2833, 3083, 2795, 3112, 2906, 2652, 3076, 2704, 2962, 2735, 3400, 2863, 2835, 2880, 3258, 2857, 3277, 2810, 2917, 3373, 3007, 2810, 3195, 3269, 2799, 3168, 2777, 3229, 3455, 2905, 3435, 2802, 3203, 3150, 2779, 2764, 2872, 2924, 2902, 2759, 2790, 2843, 3296, 3061, 2767, 3420, 3022, 3003, 3322, 2972, 2808, 2759, 2964, 3049, 2889, 2913, 2805, 3004, 3379, 2697, 2796, 2858, 2912, 2892, 3145, 2906, 3119, 2869, 2919, 3279, 2862, 2996, 2860, 2883, 3148, 3061, 2873, 3253, 2852, 2874, 2844, 3147, 3044, 2880, 2883, 3008, 2878, 3093, 2835, 3130, 3259, 2912, 3095, 2943, 2958, 3122, 2931, 3030, 3276, 2930, 2968, 2781, 3062, 2747, 2979, 2818, 2794, 2849, 2788, 2812, 2833, 2954, 2851, 3048, 2888, 3105, 3139, 2869, 2966, 2851, 2871, 2893, 2927, 2906, 2895, 2870, 2829, 3088, 2838, 2858, 2878, 2832, 3095, 2871, 2825, 2798, 3157, 2844],
      "WindowCenter": [746.0, 743.0, 744.0, 745.0, 742.0, 746.0, 744.0, 741.0, 745.0, 742.0, 742.0, 741.0, 741.0, 744.0, 742.0, 740.0, 744.0, 743.0, 744.0, 745.0, 742.0, 745.0, 745.0, 742.0, 743.0, 741.0, 746.0, 743.0, 740.0, 746.0, 742.0, 740.0, 744.0, 741.0, 738.0, 748.0, 736.0, 741.0, 738.0, 741.0, 746.0, 744.0, 742.0, 744.0, 745.0, 744.0, 746.0, 743.0, 744.0, 744.0, 741.0, 745.0, 741.0, 746.0, 741.0, 740.0, 743.0, 742.0, 746.0, 741.0, 740.0, 739.0, 743.0, 739.0, 742.0, 739.0, 739.0, 739.0, 738.0, 738.0, 742.0, 740.0, 740.0, 740.0, 745.0, 742.0, 740.0, 745.0, 743.0, 748.0, 746.0, 744.0, 741.0, 743.0, 742.0, 739.0, 737.0, 738.0, 738.0, 741.0, 739.0, 743.0, 746.0, 743.0, 743.0, 744.0, 741.0, 744.0, 746.0, 737.0, 740.0, 740.0, 745.0, 740.0, 747.0, 744.0, 744.0, 745.0, 747.0, 743.0, 745.0, 741.0, 743.0, 747.0, 744.0, 742.0, 745.0, 745.0, 742.0, 744.0, 740.0, 745.0, 747.0, 743.0, 746.0, 740.0, 744.0, 743.0, 740.0, 733.0, 737.0, 743.0, 740.0, 736.0, 739.0, 743.0, 746.0, 745.0, 742.0, 747.0, 744.0, 744.0, 748.0, 744.0, 741.0, 743.0, 745.0, 744.0, 742.0, 743.0, 742.0, 743.0, 745.0, 742.0, 744.0, 743.0, 743.0, 743.0, 746.0, 745.0, 746.0, 745.0, 745.0, 748.0, 743.0, 745.0, 744.0, 744.0, 747.0, 746.0, 745.0, 748.0, 744.0, 743.0, 742.0, 745.0, 743.0, 742.0, 745.0, 746.0, 743.0, 744.0, 742.0, 746.0, 747.0, 744.0, 746.0, 743.0, 743.0, 744.0, 744.0, 745.0, 746.0, 738.0, 744.0, 741.0, 742.0, 738.0, 738.0, 742.0, 741.0, 745.0, 742.0, 743.0, 744.0, 745.0, 744.0, 746.0, 744.0, 746.0, 747.0, 745.0, 745.0, 743.0, 742.0, 744.0, 745.0, 746.0, 745.0, 743.0, 742.0, 744.0, 742.0, 742.0, 742.0, 742.0, 745.0, 743.0, 742.0, 741.0, 744.0, 741.0],
      "WindowWidth": [1592.0, 1583.0, 1585.0, 1588.0, 1582.0, 1589.0, 1585.0, 1577.0, 1587.0, 1582.0, 1580.0, 1578.0, 1578.0, 1586.0, 1581.0, 1578.0, 1584.0, 1584.0, 1587.0, 1588.0, 1580.0, 1587.0, 1587.0, 1581.0, 1583.0, 1578.0, 1588.0, 1583.0, 1577.0, 1590.0, 1580.0, 1575.0, 1586.0, 1578.0, 1572.0, 1595.0, 1567.0, 1580.0, 1573.0, 1580.0, 1591.0, 1584.0, 1580.0, 1585.0, 1588.0, 1586.0, 1591.0, 1583.0, 1586.0, 1586.0, 1579.0, 1589.0, 1580.0, 1589.0, 1579.0, 1577.0, 1583.0, 1580.0, 1589.0, 1578.0, 1576.0, 1574.0, 1583.0, 1573.0, 1581.0, 1574.0, 1574.0, 1573.0, 1572.0, 1572.0, 1581.0, 1576.0, 1575.0, 1576.0, 1587.0, 1580.0, 1575.0, 1586.0, 1584.0, 1594.0, 1589.0, 1584.0, 1578.0, 1583.0, 1580.0, 1572.0, 1569.0, 1570.0, 1571.0, 1577.0, 1572.0, 1582.0, 1589.0, 1582.0, 1583.0, 1585.0, 1579.0, 1584.0, 1593.0, 1571.0, 1575.0, 1577.0, 1587.0, 1577.0, 1594.0, 1586.0, 1586.0, 1588.0, 1593.0, 1582.0, 1586.0, 1578.0, 1582.0, 1591.0, 1586.0, 1582.0, 1587.0, 1588.0, 1580.0, 1586.0, 1576.0, 1587.0, 1593.0, 1582.0, 1590.0, 1576.0, 1585.0, 1583.0, 1576.0, 1560.0, 1571.0, 1582.0, 1576.0, 1566.0, 1574.0, 1583.0, 1591.0, 1587.0, 1580.0, 1592.0, 1586.0, 1587.0, 1595.0, 1585.0, 1580.0, 1582.0, 1587.0, 1585.0, 1580.0, 1582.0, 1579.0, 1582.0, 1587.0, 1580.0, 1585.0, 1582.0, 1582.0, 1582.0, 1590.0, 1587.0, 1591.0, 1589.0, 1589.0, 1594.0, 1583.0, 1588.0, 1586.0, 1586.0, 1593.0, 1591.0, 1589.0, 1594.0, 1585.0, 1584.0, 1582.0, 1587.0, 1583.0, 1581.0, 1587.0, 1589.0, 1582.0, 1586.0, 1581.0, 1589.0, 1592.0, 1585.0, 1590.0, 1583.0, 1582.0, 1585.0, 1584.0, 1587.0, 1590.0, 1572.0, 1587.0, 1579.0, 1581.0, 1571.0, 1571.0, 1582.0, 1579.0, 1587.0, 1582.0, 1583.0, 1586.0, 1588.0, 1586.0, 1590.0, 1586.0, 1590.0, 1593.0, 1587.0, 1587.0, 1583.0, 1581.0, 1584.0, 1588.0, 1591.0, 1587.0, 1582.0, 1580.0, 1586.0, 1581.0, 1581.0, 1581.0, 1580.0, 1588.0, 1584.0, 1581.0, 1579.0, 1585.0, 1579.0]
    },
    "slices": {}
  }
}