{
  "AcquisitionMatrixPE": 100,
  "AcquisitionNumber": 1,
  "AcquisitionTime": "10:57:2.425000",
  "BandwidthPerPixelPhaseEncode": 18.519,
  "BaseResolution": 100,
  "BodyPartExamined": "BRAIN",
  "ConsistencyInfo": "N4_VE11C_LATEST_20160120",
  "ConversionSoftware": "dcm2niix",
  "ConversionSoftwareVersion": "v1.0.20180622 GCC4.9.2",
  "DerivedVendorReportedEchoSpacing": 0.000539986,
  "DeviceSerialNumber": "166078",
  "DwellTime": 2.1e-06,
  "EchoTime": 0.034,
  "EchoTrainLength": 100,
  "EffectiveEchoSpacing": 0.000539986,
  "FlipAngle": 90,
  "ImageOrientationPatientDICOM": [1, -0.000107063, -0.000556199, 1.02462e-08, 0.981977, -0.189002],
  "ImageType": [
    "ORIGINAL",
    "PRIMARY",
    "M",
    "ND",
    "MOSAIC"
],
  "InPlanePhaseEncodingDirectionDICOM": "COL",
  "InstitutionAddress": "Street_StreetNo_Bei_Jing_District_CN_ZIP",
  "InstitutionName": "BeiJing_Normal_University",
  "InstitutionalDepartmentName": "Department",
  "MRAcquisitionType": "2D",
  "MagneticFieldStrength": 3,
  "Manufacturer": "Siemens",
  "ManufacturersModelName": "Prisma",
  "Modality": "MR",
  "MultibandAccelerationFactor": 3,
  "PartialFourier": 1,
  "PatientPosition": "HFS",
  "PercentPhaseFOV": 100,
  "PhaseEncodingDirection": "j-",
  "PhaseEncodingSteps": 100,
  "PhaseResolution": 1,
  "PixelBandwidth": 2380,
  "ProcedureStepDescription": "BNU_P2018_64CH_Liu.Jia",
  "ProtocolName": "bold_100x100_s3_2x2x2_232",
  "PulseSequenceDetails": "%SiemensSeq%_ep2d_bold",
  "ReceiveCoilActiveElements": "HC1-7;NC1",
  "ReceiveCoilName": "HeadNeck_64",
  "ReconMatrixPE": 100,
  "RepetitionTime": 2,
  "SAR": 0.0673566,
  "ScanOptions": "FS",
  "ScanningSequence": "EP",
  "SequenceName": "_epfid2d1_100",
  "SequenceVariant": "SK",
  "SeriesDescription": "bold_100x100_s3_2x2x2_232",
  "SeriesNumber": 8,
  "ShimSetting": [-5458, -11507, -1280, 407, -44, -209, -165, 85],
  "SliceThickness": 2,
  "SliceTiming": [1.485, 0, 0.99, 0.0825, 1.0725, 0.165, 1.155, 0.2475, 1.2375, 0.33, 1.32, 0.4125, 1.4025, 0.5775, 1.5675, 0.66, 1.65, 0.7425, 1.7325, 0.825, 1.815, 0.9075, 1.8975, 0.495, 1.485, 0, 0.99, 0.0825, 1.0725, 0.165, 1.155, 0.2475, 1.2375, 0.33, 1.32, 0.4125, 1.4025, 0.5775, 1.5675, 0.66, 1.65, 0.7425, 1.7325, 0.825, 1.815, 0.9075, 1.8975, 0.495, 1.485, 0, 0.99, 0.0825, 1.0725, 0.165, 1.155, 0.2475, 1.2375, 0.33, 1.32, 0.4125, 1.4025, 0.5775, 1.5675, 0.66, 1.65, 0.7425, 1.7325, 0.825, 1.815, 0.9075, 1.8975, 0.495],
  "SoftwareVersions": "syngo_MR_E11",
  "SpacingBetweenSlices": 2,
  "StationName": "AWP166078",
  "TaskName": "motor",
  "TotalReadoutTime": 0.0534586,
  "TxRefAmp": 221.301,
  "dcmmeta_affine": [
    [-1.9999996423721313, 2.049231717649036e-08, -0.0011328199179843068, 101.350830078125],
    [0.00021412553905975074, 1.9639533758163452, -0.3780042827129364, -80.23090362548828],
    [-0.0011123988078907132, 0.3780043423175812, 1.9639530181884766, -94.81794738769531],
    [0.0, 0.0, 0.0, 1.0]
],
  "dcmmeta_reorient_transform": [
    [0.0, -1.0, 0.0, 99.0],
    [1.0, 0.0, 0.0, 0.0],
    [0.0, 0.0, 1.0, 0.0],
    [0.0, 0.0, 0.0, 1.0]
],
  "dcmmeta_shape": [100, 100, 72, 232],
  "dcmmeta_slice_dim": 2,
  "dcmmeta_version": 0.6,
  "global": {
    "const": {
      "AcquisitionMatrix": [100, 0, 0, 100],
      "AngioFlag": "N",
      "BitsAllocated": 16,
      "BitsStored": 12,
      "BodyPartExamined": "BRAIN",
      "Columns": 900,
      "EchoNumbers": 1,
      "EchoTime": 34.0,
      "EchoTrainLength": 100,
      "FlipAngle": 90.0,
      "HighBit": 11,
      "ImageOrientationPatient": [0.99999983958988, -0.0001070627665, -0.0005561994108, 1.0246159e-08, 0.98197667059432, -0.1890021650894],
      "ImagePositionPatient": [-901.35071543456, -899.69616061008, 94.251171543823],
      "ImageType": [
        "ORIGINAL",
        "PRIMARY",
        "M",
        "ND",
        "MOSAIC"
],
      "ImagedNucleus": "1H",
      "ImagingFrequency": 123.257839,
      "InPlanePhaseEncodingDirection": "COL",
      "MRAcquisitionType": "2D",
      "MagneticFieldStrength": 3.0,
      "Manufacturer": "SIEMENS",
      "ManufacturerModelName": "Prisma",
      "Modality": "MR",
      "NumberOfAverages": 1.0,
      "NumberOfPhaseEncodingSteps": 100,
      "PercentPhaseFieldOfView": 100.0,
      "PercentSampling": 100.0,
      "PerformedProcedureStepStartTime": "102529.662000",
      "PhotometricInterpretation": "MONOCHROME2",
      "PixelBandwidth": 2380.0,
      "PixelRepresentation": 0,
      "PixelSpacing": [2.0, 2.0],
      "ProtocolName": "bold_100x100_s3_2x2x2_232",
      "RepetitionTime": 2000.0,
      "Rows": 900,
      "SAR": 0.06735661028479,
      "SamplesPerPixel": 1,
      "ScanOptions": "FS",
      "ScanningSequence": "EP",
      "SequenceName": "*epfid2d1_100",
      "SequenceVariant": "SK",
      "SeriesDescription": "bold_100x100_s3_2x2x2_232",
      "SeriesNumber": 8,
      "SeriesTime": "105705.088000",
      "SliceLocation": -78.002592214855,
      "SliceThickness": 2.0,
      "SmallestImagePixelValue": 0,
      "SoftwareVersions": "syngo MR E11",
      "SpacingBetweenSlices": 2.000000019704,
      "SpecificCharacterSet": "ISO_IR 100",
      "StudyID": "1",
      "StudyTime": "102529.600000",
      "TransmitCoilName": "Body",
      "VariableFlipAngleFlag": "N",
      "WindowCenterWidthExplanation": "Algo1",
      "dBdt": 0.0},
    "slices": {}
  },
  "time": {
    "samples": {
      "AcquisitionNumber": [1, 2, 3, 4, 5, 6, 7, 8, 9, 10, 11, 12, 13, 14, 15, 16, 17, 18, 19, 20, 21, 22, 23, 24, 25, 26, 27, 28, 29, 30, 31, 32, 33, 34, 35, 36, 37, 38, 39, 40, 41, 42, 43, 44, 45, 46, 47, 48, 49, 50, 51, 52, 53, 54, 55, 56, 57, 58, 59, 60, 61, 62, 63, 64, 65, 66, 67, 68, 69, 70, 71, 72, 73, 74, 75, 76, 77, 78, 79, 80, 81, 82, 83, 84, 85, 86, 87, 88, 89, 90, 91, 92, 93, 94, 95, 96, 97, 98, 99, 100, 101, 102, 103, 104, 105, 106, 107, 108, 109, 110, 111, 112, 113, 114, 115, 116, 117, 118, 119, 120, 121, 122, 123, 124, 125, 126, 127, 128, 129, 130, 131, 132, 133, 134, 135, 136, 137, 138, 139, 140, 141, 142, 143, 144, 145, 146, 147, 148, 149, 150, 151, 152, 153, 154, 155, 156, 157, 158, 159, 160, 161, 162, 163, 164, 165, 166, 167, 168, 169, 170, 171, 172, 173, 174, 175, 176, 177, 178, 179, 180, 181, 182, 183, 184, 185, 186, 187, 188, 189, 190, 191, 192, 193, 194, 195, 196, 197, 198, 199, 200, 201, 202, 203, 204, 205, 206, 207, 208, 209, 210, 211, 212, 213, 214, 215, 216, 217, 218, 219, 220, 221, 222, 223, 224, 225, 226, 227, 228, 229, 230, 231, 232],
      "AcquisitionTime": ["105702.425000", "105704.425000", "105706.425000", "105708.425000", "105710.425000", "105712.425000", "105714.425000", "105716.425000", "105718.425000", "105720.425000", "105722.425000", "105724.425000", "105726.425000", "105728.425000", "105730.425000", "105732.425000", "105734.425000", "105736.425000", "105738.425000", "105740.425000", "105742.425000", "105744.425000", "105746.425000", "105748.425000", "105750.425000", "105752.425000", "105754.425000", "105756.425000", "105758.425000", "105800.425000", "105802.425000", "105804.425000", "105806.425000", "105808.425000", "105810.425000", "105812.425000", "105814.425000", "105816.425000", "105818.425000", "105820.425000", "105822.425000", "105824.425000", "105826.425000", "105828.425000", "105830.425000", "105832.425000", "105834.425000", "105836.425000", "105838.425000", "105840.425000", "105842.425000", "105844.425000", "105846.425000", "105848.425000", "105850.425000", "105852.425000", "105854.425000", "105856.425000", "105858.425000", "105900.425000", "105902.425000", "105904.425000", "105906.425000", "105908.425000", "105910.425000", "105912.425000", "105914.425000", "105916.425000", "105918.425000", "105920.425000", "105922.425000", "105924.425000", "105926.425000", "105928.425000", "105930.425000", "105932.425000", "105934.425000", "105936.425000", "105938.425000", "105940.425000", "105942.425000", "105944.425000", "105946.425000", "105948.425000", "105950.425000", "105952.425000", "105954.425000", "105956.425000", "105958.425000", "110000.425000", "110002.425000", "110004.425000", "110006.425000", "110008.425000", "110010.425000", "110012.425000", "110014.425000", "110016.425000", "110018.425000", "110020.425000", "110022.425000", "110024.425000", "110026.425000", "110028.425000", "110030.425000", "110032.425000", "110034.425000", "110036.425000", "110038.425000", "110040.425000", "110042.425000", "110044.425000", "110046.425000", "110048.425000", "110050.425000", "110052.425000", "110054.425000", "110056.425000", "110058.425000", "110100.425000", "110102.425000", "110104.425000", "110106.425000", "110108.425000", "110110.425000", "110112.425000", "110114.425000", "110116.425000", "110118.425000", "110120.425000", "110122.425000", "110124.425000", "110126.425000", "110128.425000", "110130.425000", "110132.425000", "110134.425000", "110136.425000", "110138.425000", "110140.425000", "110142.425000", "110144.425000", "110146.425000", "110148.425000", "110150.425000", "110152.425000", "110154.425000", "110156.425000", "110158.425000", "110200.425000", "110202.425000", "110204.425000", "110206.425000", "110208.425000", "110210.425000", "110212.425000", "110214.425000", "110216.425000", "110218.425000", "110220.425000", "110222.425000", "110224.425000", "110226.425000", "110228.425000", "110230.425000", "110232.425000", "110234.425000", "110236.425000", "110238.425000", "110240.425000", "110242.425000", "110244.425000", "110246.425000", "110248.425000", "110250.425000", "110252.425000", "110254.425000", "110256.425000", "110258.425000", "110300.425000", "110302.425000", "110304.425000", "110306.425000", "110308.425000", "110310.425000", "110312.425000", "110314.425000", "110316.425000", "110318.425000", "110320.425000", "110322.425000", "110324.425000", "110326.425000", "110328.425000", "110330.425000", "110332.425000", "110334.425000", "110336.425000", "110338.425000", "110340.425000", "110342.425000", "110344.425000", "110346.425000", "110348.425000", "110350.425000", "110352.425000", "110354.425000", "110356.425000", "110358.425000", "110400.425000", "110402.425000", "110404.425000", "110406.425000", "110408.425000", "110410.425000", "110412.425000", "110414.425000", "110416.425000", "110418.425000", "110420.425000", "110422.425000", "110424.425000", "110426.425000", "110428.425000", "110430.425000", "110432.425000", "110434.425000", "110436.425000", "110438.425000", "110440.425000", "110442.425000", "110444.425000"],
      "ContentTime": ["105705.092000", "105706.586000", "105708.586000", "105710.587000", "105712.587000", "105714.587000", "105716.588000", "105718.587000", "105720.588000", "105722.587000", "105724.587000", "105726.587000", "105728.587000", "105730.587000", "105732.587000", "105734.587000", "105736.587000", "105738.587000", "105740.587000", "105742.586000", "105744.588000", "105746.588000", "105749.087000", "105750.588000", "105752.588000", "105754.587000", "105756.587000", "105758.588000", "105800.586000", "105802.587000", "105804.587000", "105806.587000", "105808.587000", "105811.087000", "105812.588000", "105814.587000", "105816.586000", "105818.586000", "105820.588000", "105822.587000", "105824.588000", "105826.587000", "105828.588000", "105830.587000", "105832.588000", "105834.586000", "105836.587000", "105838.587000", "105840.588000", "105842.587000", "105844.587000", "105846.587000", "105848.588000", "105850.587000", "105852.587000", "105854.587000", "105856.587000", "105858.587000", "105900.588000", "105902.587000", "105904.588000", "105906.587000", "105908.588000", "105910.587000", "105912.588000", "105914.587000", "105916.588000", "105918.588000", "105920.588000", "105922.587000", "105924.587000", "105926.587000", "105928.586000", "105930.588000", "105932.588000", "105934.587000", "105936.587000", "105938.587000", "105940.587000", "105942.587000", "105944.587000", "105946.588000", "105948.588000", "105950.587000", "105952.587000", "105954.588000", "105956.587000", "105958.587000", "110000.587000", "110002.586000", "110004.587000", "110006.587000", "110008.587000", "110010.587000", "110012.587000", "110015.088000", "110016.588000", "110018.587000", "110020.586000", "110022.587000", "110024.587000", "110026.587000", "110028.587000", "110030.587000", "110032.588000", "110034.588000", "110036.586000", "110038.586000", "110040.588000", "110042.588000", "110044.588000", "110046.588000", "110048.587000", "110050.588000", "110052.587000", "110054.587000", "110056.587000", "110058.588000", "110100.588000", "110102.587000", "110104.587000", "110106.588000", "110108.587000", "110110.587000", "110112.586000", "110114.588000", "110116.588000", "110118.587000", "110120.587000", "110123.087000", "110124.587000", "110126.587000", "110128.587000", "110130.586000", "110132.587000", "110134.587000", "110136.588000", "110138.588000", "110140.588000", "110142.587000", "110144.588000", "110146.587000", "110148.586000", "110150.588000", "110152.588000", "110154.588000", "110156.588000", "110158.588000", "110200.587000", "110202.587000", "110204.586000", "110206.587000", "110208.587000", "110210.587000", "110212.587000", "110214.588000", "110216.587000", "110218.587000", "110220.588000", "110222.587000", "110224.588000", "110226.587000", "110228.587000", "110230.587000", "110232.588000", "110234.588000", "110236.587000", "110238.587000", "110240.587000", "110242.587000", "110244.588000", "110246.588000", "110248.587000", "110251.088000", "110252.587000", "110254.587000", "110256.586000", "110258.586000", "110300.588000", "110302.588000", "110304.587000", "110306.587000", "110308.587000", "110310.587000", "110312.588000", "110314.586000", "110316.587000", "110318.600000", "110320.588000", "110322.588000", "110324.588000", "110326.587000", "110328.588000", "110330.588000", "110332.586000", "110334.587000", "110336.587000", "110338.587000", "110340.588000", "110342.588000", "110344.587000", "110346.588000", "110348.587000", "110350.586000", "110352.588000", "110354.587000", "110356.588000", "110358.588000", "110400.587000", "110402.588000", "110404.588000", "110406.587000", "110408.588000", "110410.588000", "110412.588000", "110414.587000", "110416.588000", "110418.588000", "110420.587000", "110422.588000", "110424.586000", "110426.588000", "110428.588000", "110430.588000", "110432.588000", "110434.587000", "110436.588000", "110438.588000", "110440.587000", "110442.586000", "110444.588000", "110446.464000"],
      "InstanceCreationTime": ["105705.092000", "105706.586000", "105708.586000", "105710.587000", "105712.587000", "105714.587000", "105716.588000", "105718.587000", "105720.588000", "105722.587000", "105724.587000", "105726.587000", "105728.587000", "105730.587000", "105732.587000", "105734.587000", "105736.587000", "105738.587000", "105740.587000", "105742.586000", "105744.588000", "105746.588000", "105749.087000", "105750.588000", "105752.588000", "105754.587000", "105756.587000", "105758.588000", "105800.586000", "105802.587000", "105804.587000", "105806.587000", "105808.587000", "105811.087000", "105812.588000", "105814.587000", "105816.586000", "105818.586000", "105820.588000", "105822.587000", "105824.588000", "105826.587000", "105828.588000", "105830.587000", "105832.588000", "105834.586000", "105836.587000", "105838.587000", "105840.588000", "105842.587000", "105844.587000", "105846.587000", "105848.588000", "105850.587000", "105852.587000", "105854.587000", "105856.587000", "105858.587000", "105900.588000", "105902.587000", "105904.588000", "105906.587000", "105908.588000", "105910.587000", "105912.588000", "105914.587000", "105916.588000", "105918.588000", "105920.588000", "105922.587000", "105924.587000", "105926.587000", "105928.586000", "105930.588000", "105932.588000", "105934.587000", "105936.587000", "105938.587000", "105940.587000", "105942.587000", "105944.587000", "105946.588000", "105948.588000", "105950.587000", "105952.587000", "105954.588000", "105956.587000", "105958.587000", "110000.587000", "110002.586000", "110004.587000", "110006.587000", "110008.587000", "110010.587000", "110012.587000", "110015.088000", "110016.588000", "110018.587000", "110020.586000", "110022.587000", "110024.587000", "110026.587000", "110028.587000", "110030.587000", "110032.588000", "110034.588000", "110036.586000", "110038.586000", "110040.588000", "110042.588000", "110044.588000", "110046.588000", "110048.587000", "110050.588000", "110052.587000", "110054.587000", "110056.587000", "110058.588000", "110100.588000", "110102.587000", "110104.587000", "110106.588000", "110108.587000", "110110.587000", "110112.586000", "110114.588000", "110116.588000", "110118.587000", "110120.587000", "110123.087000", "110124.587000", "110126.587000", "110128.587000", "110130.586000", "110132.587000", "110134.587000", "110136.588000", "110138.588000", "110140.588000", "110142.587000", "110144.588000", "110146.587000", "110148.586000", "110150.588000", "110152.588000", "110154.588000", "110156.588000", "110158.588000", "110200.587000", "110202.587000", "110204.586000", "110206.587000", "110208.587000", "110210.587000", "110212.587000", "110214.588000", "110216.587000", "110218.587000", "110220.588000", "110222.587000", "110224.588000", "110226.587000", "110228.587000", "110230.587000", "110232.588000", "110234.588000", "110236.587000", "110238.587000", "110240.587000", "110242.587000", "110244.588000", "110246.588000", "110248.587000", "110251.088000", "110252.587000", "110254.587000", "110256.586000", "110258.586000", "110300.588000", "110302.588000", "110304.587000", "110306.587000", "110308.587000", "110310.587000", "110312.588000", "110314.586000", "110316.587000", "110318.600000", "110320.588000", "110322.588000", "110324.588000", "110326.587000", "110328.588000", "110330.588000", "110332.586000", "110334.587000", "110336.587000", "110338.587000", "110340.588000", "110342.588000", "110344.587000", "110346.588000", "110348.587000", "110350.586000", "110352.588000", "110354.587000", "110356.588000", "110358.588000", "110400.587000", "110402.588000", "110404.588000", "110406.587000", "110408.588000", "110410.588000", "110412.588000", "110414.587000", "110416.588000", "110418.588000", "110420.587000", "110422.588000", "110424.586000", "110426.588000", "110428.588000", "110430.588000", "110432.588000", "110434.587000", "110436.588000", "110438.588000", "110440.587000", "110442.586000", "110444.588000", "110446.464000"],
      "InstanceNumber": [1, 2, 3, 4, 5, 6, 7, 8, 9, 10, 11, 12, 13, 14, 15, 16, 17, 18, 19, 20, 21, 22, 23, 24, 25, 26, 27, 28, 29, 30, 31, 32, 33, 34, 35, 36, 37, 38, 39, 40, 41, 42, 43, 44, 45, 46, 47, 48, 49, 50, 51, 52, 53, 54, 55, 56, 57, 58, 59, 60, 61, 62, 63, 64, 65, 66, 67, 68, 69, 70, 71, 72, 73, 74, 75, 76, 77, 78, 79, 80, 81, 82, 83, 84, 85, 86, 87, 88, 89, 90, 91, 92, 93, 94, 95, 96, 97, 98, 99, 100, 101, 102, 103, 104, 105, 106, 107, 108, 109, 110, 111, 112, 113, 114, 115, 116, 117, 118, 119, 120, 121, 122, 123, 124, 125, 126, 127, 128, 129, 130, 131, 132, 133, 134, 135, 136, 137, 138, 139, 140, 141, 142, 143, 144, 145, 146, 147, 148, 149, 150, 151, 152, 153, 154, 155, 156, 157, 158, 159, 160, 161, 162, 163, 164, 165, 166, 167, 168, 169, 170, 171, 172, 173, 174, 175, 176, 177, 178, 179, 180, 181, 182, 183, 184, 185, 186, 187, 188, 189, 190, 191, 192, 193, 194, 195, 196, 197, 198, 199, 200, 201, 202, 203, 204, 205, 206, 207, 208, 209, 210, 211, 212, 213, 214, 215, 216, 217, 218, 219, 220, 221, 222, 223, 224, 225, 226, 227, 228, 229, 230, 231, 232],
      "LargestImagePixelValue": [3070, 3019, 3027, 3234, 2980, 2996, 2988, 2971, 2989, 3188, 2992, 3118, 3015, 3057, 3037, 3027, 3028, 3232, 3055, 2867, 2751, 3142, 2952, 2995, 3177, 3067, 2951, 2855, 2884, 2792, 2772, 2998, 2928, 2977, 2967, 2931, 2914, 2945, 3141, 2945, 3232, 2933, 3303, 2965, 3029, 3088, 2818, 3265, 2877, 2853, 3031, 2805, 2815, 2875, 2862, 2978, 2777, 3155, 3142, 2810, 2813, 3049, 3250, 3123, 3029, 2992, 2864, 3155, 3304, 2870, 2849, 3237, 2835, 2899, 2828, 2868, 2838, 2863, 2980, 3222, 3102, 2841, 2798, 2859, 3183, 2888, 2808, 3116, 3175, 2842, 2759, 3034, 3122, 2784, 2785, 2929, 2976, 2990, 2787, 3172, 3012, 3175, 2955, 2834, 2928, 3146, 2907, 3137, 2870, 3203, 2841, 3145, 2904, 3103, 3271, 2980, 2894, 3090, 2851, 2851, 3174, 2837, 3080, 2846, 2913, 3137, 3198, 3150, 3061, 2948, 3114, 3239, 3016, 2900, 2918, 3147, 3074, 2831, 2905, 3052, 2857, 2787, 2989, 2984, 3179, 2821, 2776, 3007, 3134, 2801, 2752, 2796, 2790, 2865, 2792, 3001, 2755, 2941, 2999, 2869, 2883, 2774, 2801, 2820, 3032, 2798, 2925, 2814, 2774, 2861, 2949, 2791, 2921, 3108, 2782, 2797, 2885, 3087, 3020, 2932, 2759, 2739, 2755, 3109, 3029, 3211, 2995, 2821, 3055, 3024, 2783, 2956, 2972, 2794, 3130, 2790, 2805, 2839, 2959, 3026, 2763, 2877, 2744, 2844, 2893, 3093, 2834, 2833, 2728, 2969, 2775, 3093, 2959, 2885, 3003, 2818, 2909, 2947, 2965, 2970, 3124, 2949, 2894, 3027, 3064, 2928, 3052, 3088, 2939, 2830, 2868, 2907],
      "WindowCenter": [749.0, 747.0, 748.0, 749.0, 746.0, 746.0, 745.0, 745.0, 745.0, 747.0, 745.0, 746.0, 746.0, 747.0, 746.0, 745.0, 747.0, 750.0, 745.0, 744.0, 736.0, 749.0, 744.0, 744.0, 749.0, 744.0, 745.0, 742.0, 743.0, 739.0, 736.0, 736.0, 734.0, 739.0, 742.0, 743.0, 743.0, 745.0, 748.0, 747.0, 750.0, 747.0, 751.0, 747.0, 748.0, 749.0, 746.0, 750.0, 746.0, 746.0, 747.0, 744.0, 744.0, 745.0, 744.0, 745.0, 744.0, 746.0, 746.0, 743.0, 744.0, 746.0, 747.0, 745.0, 745.0, 744.0, 741.0, 745.0, 746.0, 741.0, 742.0, 746.0, 743.0, 743.0, 745.0, 746.0, 743.0, 742.0, 744.0, 746.0, 746.0, 743.0, 742.0, 742.0, 746.0, 743.0, 742.0, 745.0, 747.0, 745.0, 744.0, 746.0, 746.0, 743.0, 743.0, 744.0, 744.0, 740.0, 733.0, 747.0, 744.0, 739.0, 735.0, 737.0, 743.0, 746.0, 743.0, 746.0, 743.0, 746.0, 743.0, 746.0, 743.0, 746.0, 747.0, 743.0, 742.0, 744.0, 742.0, 742.0, 746.0, 743.0, 745.0, 742.0, 743.0, 747.0, 747.0, 746.0, 744.0, 742.0, 734.0, 745.0, 745.0, 740.0, 740.0, 742.0, 744.0, 742.0, 744.0, 745.0, 744.0, 743.0, 746.0, 746.0, 748.0, 743.0, 742.0, 743.0, 745.0, 743.0, 741.0, 740.0, 741.0, 742.0, 743.0, 745.0, 742.0, 743.0, 744.0, 743.0, 744.0, 742.0, 740.0, 740.0, 743.0, 742.0, 744.0, 743.0, 742.0, 743.0, 743.0, 742.0, 743.0, 745.0, 741.0, 741.0, 742.0, 744.0, 744.0, 742.0, 740.0, 740.0, 740.0, 743.0, 743.0, 746.0, 745.0, 741.0, 744.0, 744.0, 740.0, 743.0, 743.0, 741.0, 745.0, 742.0, 742.0, 742.0, 743.0, 743.0, 740.0, 742.0, 739.0, 739.0, 740.0, 741.0, 736.0, 734.0, 731.0, 722.0, 735.0, 743.0, 744.0, 741.0, 745.0, 744.0, 747.0, 747.0, 748.0, 747.0, 749.0, 747.0, 747.0, 747.0, 748.0, 747.0, 747.0, 747.0, 743.0, 742.0, 742.0, 743.0],
      "WindowWidth": [1599.0, 1594.0, 1595.0, 1598.0, 1591.0, 1591.0, 1588.0, 1588.0, 1589.0, 1594.0, 1589.0, 1591.0, 1590.0, 1592.0, 1591.0, 1590.0, 1592.0, 1601.0, 1589.0, 1587.0, 1566.0, 1599.0, 1587.0, 1586.0, 1600.0, 1587.0, 1589.0, 1581.0, 1581.0, 1572.0, 1567.0, 1565.0, 1561.0, 1573.0, 1580.0, 1583.0, 1584.0, 1588.0, 1596.0, 1593.0, 1599.0, 1594.0, 1602.0, 1593.0, 1595.0, 1597.0, 1590.0, 1600.0, 1592.0, 1591.0, 1593.0, 1587.0, 1586.0, 1588.0, 1586.0, 1590.0, 1585.0, 1591.0, 1592.0, 1585.0, 1586.0, 1590.0, 1593.0, 1589.0, 1587.0, 1586.0, 1580.0, 1587.0, 1590.0, 1580.0, 1580.0, 1590.0, 1583.0, 1584.0, 1588.0, 1590.0, 1585.0, 1581.0, 1584.0, 1589.0, 1591.0, 1584.0, 1580.0, 1581.0, 1589.0, 1583.0, 1582.0, 1588.0, 1592.0, 1587.0, 1587.0, 1590.0, 1589.0, 1583.0, 1582.0, 1585.0, 1585.0, 1578.0, 1561.0, 1593.0, 1586.0, 1575.0, 1566.0, 1572.0, 1584.0, 1589.0, 1584.0, 1589.0, 1582.0, 1590.0, 1584.0, 1590.0, 1584.0, 1591.0, 1591.0, 1582.0, 1581.0, 1585.0, 1581.0, 1582.0, 1591.0, 1583.0, 1587.0, 1580.0, 1583.0, 1592.0, 1593.0, 1589.0, 1586.0, 1583.0, 1561.0, 1588.0, 1589.0, 1575.0, 1576.0, 1581.0, 1584.0, 1580.0, 1585.0, 1589.0, 1584.0, 1584.0, 1590.0, 1590.0, 1594.0, 1583.0, 1580.0, 1582.0, 1587.0, 1582.0, 1579.0, 1575.0, 1578.0, 1582.0, 1584.0, 1587.0, 1579.0, 1582.0, 1585.0, 1582.0, 1586.0, 1580.0, 1576.0, 1575.0, 1583.0, 1580.0, 1586.0, 1584.0, 1581.0, 1582.0, 1583.0, 1580.0, 1584.0, 1587.0, 1579.0, 1578.0, 1581.0, 1584.0, 1584.0, 1580.0, 1577.0, 1577.0, 1575.0, 1583.0, 1583.0, 1590.0, 1588.0, 1579.0, 1585.0, 1584.0, 1576.0, 1582.0, 1582.0, 1579.0, 1588.0, 1581.0, 1580.0, 1581.0, 1582.0, 1582.0, 1576.0, 1580.0, 1573.0, 1572.0, 1574.0, 1576.0, 1565.0, 1560.0, 1553.0, 1537.0, 1566.0, 1583.0, 1587.0, 1580.0, 1587.0, 1587.0, 1592.0, 1594.0, 1595.0, 1593.0, 1597.0, 1593.0, 1593.0, 1592.0, 1595.0, 1592.0, 1594.0, 1592.0, 1584.0, 1580.0, 1582.0, 1584.0]
    },
    "slices": {}
  }
}