{
  "AcquisitionMatrixPE": 100,
  "AcquisitionNumber": 1,
  "AcquisitionTime": "12:12:10.912500",
  "BandwidthPerPixelPhaseEncode": 18.519,
  "BaseResolution": 100,
  "BodyPartExamined": "BRAIN",
  "ConsistencyInfo": "N4_VE11C_LATEST_20160120",
  "ConversionSoftware": "dcm2niix",
  "ConversionSoftwareVersion": "v1.0.20180622 GCC4.9.2",
  "DerivedVendorReportedEchoSpacing": 0.000539986,
  "DeviceSerialNumber": "166078",
  "DwellTime": 2.1e-06,
  "EchoTime": 0.034,
  "EchoTrainLength": 100,
  "EffectiveEchoSpacing": 0.000539986,
  "FlipAngle": 90,
  "ImageOrientationPatientDICOM": [1, 0, 0, 0, 0.98796, -0.15471],
  "ImageType": [
    "ORIGINAL",
    "PRIMARY",
    "M",
    "ND",
    "MOSAIC"
],
  "InPlanePhaseEncodingDirectionDICOM": "COL",
  "InstitutionAddress": "Street_StreetNo_Bei_Jing_District_CN_ZIP",
  "InstitutionName": "BeiJing_Normal_University",
  "InstitutionalDepartmentName": "Department",
  "MRAcquisitionType": "2D",
  "MagneticFieldStrength": 3,
  "Manufacturer": "Siemens",
  "ManufacturersModelName": "Prisma",
  "Modality": "MR",
  "MultibandAccelerationFactor": 3,
  "PartialFourier": 1,
  "PatientPosition": "HFS",
  "PercentPhaseFOV": 100,
  "PhaseEncodingDirection": "j-",
  "PhaseEncodingSteps": 100,
  "PhaseResolution": 1,
  "PixelBandwidth": 2380,
  "ProcedureStepDescription": "BNU_P2018_64CH_Liu.Jia",
  "ProtocolName": "bold_100x100_s3_2x2x2_232",
  "PulseSequenceDetails": "%SiemensSeq%_ep2d_bold",
  "ReceiveCoilActiveElements": "HC1-7;NC1",
  "ReceiveCoilName": "HeadNeck_64",
  "ReconMatrixPE": 100,
  "RepetitionTime": 2,
  "SAR": 0.0634291,
  "ScanOptions": "FS",
  "ScanningSequence": "EP",
  "SequenceName": "_epfid2d1_100",
  "SequenceVariant": "SK",
  "SeriesDescription": "bold_100x100_s3_2x2x2_232",
  "SeriesNumber": 9,
  "ShimSetting": [-5468, -11476, -1235, 181, -76, -110, -121, 56],
  "SliceThickness": 2,
  "SliceTiming": [1.485, 0, 0.99, 0.0825, 1.0725, 0.165, 1.155, 0.2475, 1.2375, 0.33, 1.32, 0.4125, 1.4025, 0.5775, 1.5675, 0.66, 1.65, 0.7425, 1.7325, 0.825, 1.815, 0.9075, 1.8975, 0.495, 1.485, 0, 0.99, 0.0825, 1.0725, 0.165, 1.155, 0.2475, 1.2375, 0.33, 1.32, 0.4125, 1.4025, 0.5775, 1.5675, 0.66, 1.65, 0.7425, 1.7325, 0.825, 1.815, 0.9075, 1.8975, 0.495, 1.485, 0, 0.99, 0.0825, 1.0725, 0.165, 1.155, 0.2475, 1.2375, 0.33, 1.32, 0.4125, 1.4025, 0.5775, 1.5675, 0.66, 1.65, 0.7425, 1.7325, 0.825, 1.815, 0.9075, 1.8975, 0.495],
  "SoftwareVersions": "syngo_MR_E11",
  "SpacingBetweenSlices": 2,
  "StationName": "AWP166078",
  "TaskName": "motor",
  "TotalReadoutTime": 0.0534586,
  "TxRefAmp": 229.179,
  "dcmmeta_affine": [
    [-2.0, 0.0, 0.0, 101.34939575195312],
    [0.0, 1.9759197235107422, -0.30942079424858093, -82.67900085449219],
    [0.0, 0.30942079424858093, 1.9759197235107422, -79.23448181152344],
    [0.0, 0.0, 0.0, 1.0]
],
  "dcmmeta_reorient_transform": [
    [0.0, -1.0, 0.0, 99.0],
    [1.0, 0.0, 0.0, 0.0],
    [0.0, 0.0, 1.0, 0.0],
    [0.0, 0.0, 0.0, 1.0]
],
  "dcmmeta_shape": [100, 100, 72, 232],
  "dcmmeta_slice_dim": 2,
  "dcmmeta_version": 0.6,
  "global": {
    "const": {
      "AcquisitionMatrix": [100, 0, 0, 100],
      "AngioFlag": "N",
      "BitsAllocated": 16,
      "BitsStored": 12,
      "BodyPartExamined": "BRAIN",
      "Columns": 900,
      "EchoNumbers": 1,
      "EchoTime": 34.0,
      "EchoTrainLength": 100,
      "FlipAngle": 90.0,
      "HighBit": 11,
      "ImageOrientationPatient": [1.0, 0.0, 0.0, 0.0, 0.98795986467944, -0.1547103932598],
      "ImagePositionPatient": [-901.34939754009, -903.30494190168, 75.166493216011],
      "ImageType": [
        "ORIGINAL",
        "PRIMARY",
        "M",
        "ND",
        "MOSAIC"
],
      "ImagedNucleus": "1H",
      "ImagingFrequency": 123.257819,
      "InPlanePhaseEncodingDirection": "COL",
      "MRAcquisitionType": "2D",
      "MagneticFieldStrength": 3.0,
      "Manufacturer": "SIEMENS",
      "ManufacturerModelName": "Prisma",
      "Modality": "MR",
      "NumberOfAverages": 1.0,
      "NumberOfPhaseEncodingSteps": 100,
      "PercentPhaseFieldOfView": 100.0,
      "PercentSampling": 100.0,
      "PerformedProcedureStepStartTime": "113037.217000",
      "PhotometricInterpretation": "MONOCHROME2",
      "PixelBandwidth": 2380.0,
      "PixelRepresentation": 0,
      "PixelSpacing": [2.0, 2.0],
      "ProtocolName": "bold_100x100_s3_2x2x2_232",
      "RepetitionTime": 2000.0,
      "Rows": 900,
      "SAR": 0.06342912847427,
      "SamplesPerPixel": 1,
      "ScanOptions": "FS",
      "ScanningSequence": "EP",
      "SequenceName": "*epfid2d1_100",
      "SequenceVariant": "SK",
      "SeriesDescription": "bold_100x100_s3_2x2x2_232",
      "SeriesNumber": 9,
      "SeriesTime": "121213.467000",
      "SliceLocation": -65.489184328976,
      "SliceThickness": 2.0,
      "SmallestImagePixelValue": 0,
      "SoftwareVersions": "syngo MR E11",
      "SpacingBetweenSlices": 1.9999999646563,
      "SpecificCharacterSet": "ISO_IR 100",
      "StudyID": "1",
      "StudyTime": "113037.140000",
      "TransmitCoilName": "Body",
      "VariableFlipAngleFlag": "N",
      "WindowCenterWidthExplanation": "Algo1",
      "dBdt": 0.0},
    "slices": {}
  },
  "time": {
    "samples": {
      "AcquisitionNumber": [1, 2, 3, 4, 5, 6, 7, 8, 9, 10, 11, 12, 13, 14, 15, 16, 17, 18, 19, 20, 21, 22, 23, 24, 25, 26, 27, 28, 29, 30, 31, 32, 33, 34, 35, 36, 37, 38, 39, 40, 41, 42, 43, 44, 45, 46, 47, 48, 49, 50, 51, 52, 53, 54, 55, 56, 57, 58, 59, 60, 61, 62, 63, 64, 65, 66, 67, 68, 69, 70, 71, 72, 73, 74, 75, 76, 77, 78, 79, 80, 81, 82, 83, 84, 85, 86, 87, 88, 89, 90, 91, 92, 93, 94, 95, 96, 97, 98, 99, 100, 101, 102, 103, 104, 105, 106, 107, 108, 109, 110, 111, 112, 113, 114, 115, 116, 117, 118, 119, 120, 121, 122, 123, 124, 125, 126, 127, 128, 129, 130, 131, 132, 133, 134, 135, 136, 137, 138, 139, 140, 141, 142, 143, 144, 145, 146, 147, 148, 149, 150, 151, 152, 153, 154, 155, 156, 157, 158, 159, 160, 161, 162, 163, 164, 165, 166, 167, 168, 169, 170, 171, 172, 173, 174, 175, 176, 177, 178, 179, 180, 181, 182, 183, 184, 185, 186, 187, 188, 189, 190, 191, 192, 193, 194, 195, 196, 197, 198, 199, 200, 201, 202, 203, 204, 205, 206, 207, 208, 209, 210, 211, 212, 213, 214, 215, 216, 217, 218, 219, 220, 221, 222, 223, 224, 225, 226, 227, 228, 229, 230, 231, 232],
      "AcquisitionTime": ["121210.912500", "121212.912500", "121214.912500", "121216.912500", "121218.912500", "121220.912500", "121222.912500", "121224.912500", "121226.912500", "121228.912500", "121230.912500", "121232.912500", "121234.912500", "121236.912500", "121238.912500", "121240.912500", "121242.912500", "121244.912500", "121246.912500", "121248.912500", "121250.912500", "121252.912500", "121254.912500", "121256.912500", "121258.912500", "121300.912500", "121302.912500", "121304.912500", "121306.912500", "121308.912500", "121310.912500", "121312.912500", "121314.912500", "121316.912500", "121318.912500", "121320.912500", "121322.912500", "121324.912500", "121326.912500", "121328.912500", "121330.912500", "121332.912500", "121334.912500", "121336.912500", "121338.912500", "121340.912500", "121342.912500", "121344.912500", "121346.912500", "121348.912500", "121350.912500", "121352.912500", "121354.912500", "121356.912500", "121358.912500", "121400.912500", "121402.912500", "121404.912500", "121406.912500", "121408.912500", "121410.912500", "121412.912500", "121414.912500", "121416.912500", "121418.912500", "121420.912500", "121422.912500", "121424.912500", "121426.912500", "121428.912500", "121430.912500", "121432.912500", "121434.912500", "121436.912500", "121438.912500", "121440.912500", "121442.912500", "121444.912500", "121446.912500", "121448.912500", "121450.912500", "121452.912500", "121454.912500", "121456.912500", "121458.912500", "121500.912500", "121502.912500", "121504.912500", "121506.912500", "121508.912500", "121510.912500", "121512.912500", "121514.912500", "121516.912500", "121518.912500", "121520.912500", "121522.912500", "121524.912500", "121526.912500", "121528.912500", "121530.912500", "121532.912500", "121534.912500", "121536.912500", "121538.912500", "121540.912500", "121542.912500", "121544.912500", "121546.912500", "121548.912500", "121550.912500", "121552.912500", "121554.912500", "121556.912500", "121558.912500", "121600.912500", "121602.912500", "121604.912500", "121606.912500", "121608.912500", "121610.912500", "121612.912500", "121614.912500", "121616.912500", "121618.912500", "121620.912500", "121622.912500", "121624.912500", "121626.912500", "121628.912500", "121630.912500", "121632.912500", "121634.912500", "121636.912500", "121638.912500", "121640.912500", "121642.912500", "121644.912500", "121646.912500", "121648.912500", "121650.912500", "121652.912500", "121654.912500", "121656.912500", "121658.912500", "121700.912500", "121702.912500", "121704.912500", "121706.912500", "121708.912500", "121710.912500", "121712.912500", "121714.912500", "121716.912500", "121718.912500", "121720.912500", "121722.912500", "121724.912500", "121726.912500", "121728.912500", "121730.912500", "121732.912500", "121734.912500", "121736.912500", "121738.912500", "121740.912500", "121742.912500", "121744.912500", "121746.912500", "121748.912500", "121750.912500", "121752.912500", "121754.912500", "121756.912500", "121758.912500", "121800.912500", "121802.912500", "121804.912500", "121806.912500", "121808.912500", "121810.912500", "121812.912500", "121814.912500", "121816.912500", "121818.912500", "121820.912500", "121822.912500", "121824.912500", "121826.912500", "121828.912500", "121830.912500", "121832.912500", "121834.912500", "121836.912500", "121838.912500", "121840.912500", "121842.912500", "121844.912500", "121846.912500", "121848.912500", "121850.912500", "121852.912500", "121854.912500", "121856.912500", "121858.912500", "121900.912500", "121902.912500", "121904.912500", "121906.912500", "121908.912500", "121910.912500", "121912.912500", "121914.912500", "121916.912500", "121918.912500", "121920.912500", "121922.912500", "121924.912500", "121926.912500", "121928.912500", "121930.912500", "121932.912500", "121934.912500", "121936.912500", "121938.912500", "121940.912500", "121942.912500", "121944.912500", "121946.912500", "121948.912500", "121950.912500", "121952.912500"],
      "ContentTime": ["121213.471000", "121215.467000", "121216.967000", "121218.966000", "121220.965000", "121222.965000", "121224.965000", "121226.966000", "121228.966000", "121230.966000", "121232.966000", "121234.967000", "121236.966000", "121238.965000", "121240.965000", "121242.965000", "121244.966000", "121246.966000", "121248.966000", "121250.966000", "121252.966000", "121254.966000", "121256.965000", "121258.966000", "121300.966000", "121302.967000", "121304.966000", "121306.966000", "121308.967000", "121310.966000", "121312.965000", "121314.965000", "121316.965000", "121318.967000", "121320.966000", "121322.966000", "121324.966000", "121326.966000", "121328.966000", "121330.966000", "121332.967000", "121335.465000", "121336.967000", "121338.966000", "121340.966000", "121342.966000", "121344.966000", "121346.966000", "121348.965000", "121350.965000", "121352.965000", "121354.966000", "121356.966000", "121358.966000", "121400.966000", "121402.966000", "121404.967000", "121406.965000", "121408.965000", "121410.966000", "121412.966000", "121414.967000", "121416.967000", "121418.966000", "121420.966000", "121423.465000", "121424.965000", "121426.966000", "121428.966000", "121430.966000", "121433.467000", "121434.966000", "121436.966000", "121438.967000", "121441.465000", "121442.965000", "121444.966000", "121446.967000", "121448.966000", "121450.966000", "121452.966000", "121454.966000", "121456.966000", "121458.965000", "121500.965000", "121502.965000", "121504.966000", "121506.966000", "121508.966000", "121510.966000", "121512.966000", "121514.966000", "121517.465000", "121519.466000", "121520.966000", "121522.967000", "121524.966000", "121526.967000", "121528.966000", "121530.967000", "121532.965000", "121534.965000", "121537.466000", "121538.966000", "121540.966000", "121542.966000", "121544.966000", "121546.966000", "121548.967000", "121550.965000", "121552.965000", "121554.965000", "121556.966000", "121558.966000", "121600.966000", "121602.967000", "121604.966000", "121606.966000", "121608.965000", "121610.965000", "121612.965000", "121614.966000", "121616.967000", "121618.966000", "121620.966000", "121622.966000", "121624.966000", "121626.965000", "121628.966000", "121630.966000", "121632.966000", "121634.966000", "121636.966000", "121638.966000", "121640.966000", "121642.965000", "121644.965000", "121646.965000", "121649.466000", "121650.966000", "121652.966000", "121654.966000", "121657.466000", "121658.967000", "121700.965000", "121702.965000", "121704.965000", "121706.966000", "121708.966000", "121710.966000", "121712.966000", "121714.966000", "121716.967000", "121718.965000", "121720.976000", "121722.966000", "121724.966000", "121726.966000", "121728.966000", "121730.967000", "121733.467000", "121734.966000", "121737.466000", "121738.965000", "121740.966000", "121742.966000", "121744.966000", "121746.966000", "121748.967000", "121750.967000", "121752.965000", "121754.965000", "121756.965000", "121758.966000", "121800.967000", "121802.966000", "121804.967000", "121806.966000", "121808.967000", "121810.965000", "121812.965000", "121815.465000", "121816.966000", "121818.966000", "121820.966000", "121822.966000", "121824.966000", "121826.966000", "121828.966000", "121830.965000", "121832.965000", "121834.967000", "121836.966000", "121838.967000", "121840.967000", "121842.966000", "121844.966000", "121846.966000", "121848.966000", "121850.967000", "121852.966000", "121854.966000", "121856.966000", "121858.966000", "121900.966000", "121902.965000", "121904.966000", "121907.466000", "121908.966000", "121910.967000", "121912.966000", "121914.967000", "121916.966000", "121919.467000", "121920.965000", "121923.465000", "121924.965000", "121926.967000", "121928.966000", "121930.966000", "121932.966000", "121934.966000", "121936.966000", "121938.966000", "121940.966000", "121942.965000", "121944.967000", "121946.966000", "121948.966000", "121950.966000", "121952.967000", "121954.872000"],
      "InstanceCreationTime": ["121213.471000", "121215.467000", "121216.967000", "121218.966000", "121220.965000", "121222.965000", "121224.965000", "121226.966000", "121228.966000", "121230.966000", "121232.966000", "121234.967000", "121236.966000", "121238.965000", "121240.965000", "121242.965000", "121244.966000", "121246.966000", "121248.966000", "121250.966000", "121252.966000", "121254.966000", "121256.965000", "121258.966000", "121300.966000", "121302.967000", "121304.966000", "121306.966000", "121308.967000", "121310.966000", "121312.965000", "121314.965000", "121316.965000", "121318.967000", "121320.966000", "121322.966000", "121324.966000", "121326.966000", "121328.966000", "121330.966000", "121332.967000", "121335.465000", "121336.967000", "121338.966000", "121340.966000", "121342.966000", "121344.966000", "121346.966000", "121348.965000", "121350.965000", "121352.965000", "121354.966000", "121356.966000", "121358.966000", "121400.966000", "121402.966000", "121404.967000", "121406.965000", "121408.965000", "121410.966000", "121412.966000", "121414.967000", "121416.967000", "121418.966000", "121420.966000", "121423.465000", "121424.965000", "121426.966000", "121428.966000", "121430.966000", "121433.467000", "121434.966000", "121436.966000", "121438.967000", "121441.465000", "121442.965000", "121444.966000", "121446.967000", "121448.966000", "121450.966000", "121452.966000", "121454.966000", "121456.966000", "121458.965000", "121500.965000", "121502.965000", "121504.966000", "121506.966000", "121508.966000", "121510.966000", "121512.966000", "121514.966000", "121517.465000", "121519.466000", "121520.966000", "121522.967000", "121524.966000", "121526.967000", "121528.966000", "121530.967000", "121532.965000", "121534.965000", "121537.466000", "121538.966000", "121540.966000", "121542.966000", "121544.966000", "121546.966000", "121548.967000", "121550.965000", "121552.965000", "121554.965000", "121556.966000", "121558.966000", "121600.966000", "121602.967000", "121604.966000", "121606.966000", "121608.965000", "121610.965000", "121612.965000", "121614.966000", "121616.967000", "121618.966000", "121620.966000", "121622.966000", "121624.966000", "121626.965000", "121628.966000", "121630.966000", "121632.966000", "121634.966000", "121636.966000", "121638.966000", "121640.966000", "121642.965000", "121644.965000", "121646.965000", "121649.466000", "121650.966000", "121652.966000", "121654.966000", "121657.466000", "121658.967000", "121700.965000", "121702.965000", "121704.965000", "121706.966000", "121708.966000", "121710.966000", "121712.966000", "121714.966000", "121716.967000", "121718.965000", "121720.976000", "121722.966000", "121724.966000", "121726.966000", "121728.966000", "121730.967000", "121733.467000", "121734.966000", "121737.466000", "121738.965000", "121740.966000", "121742.966000", "121744.966000", "121746.966000", "121748.967000", "121750.967000", "121752.965000", "121754.965000", "121756.965000", "121758.966000", "121800.967000", "121802.966000", "121804.967000", "121806.966000", "121808.967000", "121810.965000", "121812.965000", "121815.465000", "121816.966000", "121818.966000", "121820.966000", "121822.966000", "121824.966000", "121826.966000", "121828.966000", "121830.965000", "121832.965000", "121834.967000", "121836.966000", "121838.967000", "121840.967000", "121842.966000", "121844.966000", "121846.966000", "121848.966000", "121850.967000", "121852.966000", "121854.966000", "121856.966000", "121858.966000", "121900.966000", "121902.965000", "121904.966000", "121907.466000", "121908.966000", "121910.967000", "121912.966000", "121914.967000", "121916.966000", "121919.467000", "121920.965000", "121923.465000", "121924.965000", "121926.967000", "121928.966000", "121930.966000", "121932.966000", "121934.966000", "121936.966000", "121938.966000", "121940.966000", "121942.965000", "121944.967000", "121946.966000", "121948.966000", "121950.966000", "121952.967000", "121954.872000"],
      "InstanceNumber": [1, 2, 3, 4, 5, 6, 7, 8, 9, 10, 11, 12, 13, 14, 15, 16, 17, 18, 19, 20, 21, 22, 23, 24, 25, 26, 27, 28, 29, 30, 31, 32, 33, 34, 35, 36, 37, 38, 39, 40, 41, 42, 43, 44, 45, 46, 47, 48, 49, 50, 51, 52, 53, 54, 55, 56, 57, 58, 59, 60, 61, 62, 63, 64, 65, 66, 67, 68, 69, 70, 71, 72, 73, 74, 75, 76, 77, 78, 79, 80, 81, 82, 83, 84, 85, 86, 87, 88, 89, 90, 91, 92, 93, 94, 95, 96, 97, 98, 99, 100, 101, 102, 103, 104, 105, 106, 107, 108, 109, 110, 111, 112, 113, 114, 115, 116, 117, 118, 119, 120, 121, 122, 123, 124, 125, 126, 127, 128, 129, 130, 131, 132, 133, 134, 135, 136, 137, 138, 139, 140, 141, 142, 143, 144, 145, 146, 147, 148, 149, 150, 151, 152, 153, 154, 155, 156, 157, 158, 159, 160, 161, 162, 163, 164, 165, 166, 167, 168, 169, 170, 171, 172, 173, 174, 175, 176, 177, 178, 179, 180, 181, 182, 183, 184, 185, 186, 187, 188, 189, 190, 191, 192, 193, 194, 195, 196, 197, 198, 199, 200, 201, 202, 203, 204, 205, 206, 207, 208, 209, 210, 211, 212, 213, 214, 215, 216, 217, 218, 219, 220, 221, 222, 223, 224, 225, 226, 227, 228, 229, 230, 231, 232],
      "LargestImagePixelValue": [3566, 3762, 3655, 3700, 3676, 3631, 3613, 3800, 3706, 3676, 3766, 3781, 3824, 3842, 3923, 3899, 3979, 3949, 3932, 4003, 3975, 3967, 3949, 3922, 3974, 3925, 3987, 4040, 3858, 3897, 3887, 3904, 3857, 3959, 3923, 3968, 3936, 3895, 3838, 3791, 3793, 3693, 3949, 3915, 3742, 3683, 3860, 3884, 3484, 3559, 3620, 3574, 3578, 4014, 3596, 3651, 3794, 3603, 3673, 3757, 3864, 3922, 3885, 3950, 3919, 3871, 3976, 4015, 3983, 3895, 4026, 4010, 3940, 4003, 3925, 3978, 3954, 3910, 3916, 3989, 3911, 3924, 3932, 3845, 3903, 3866, 3968, 4036, 3933, 3966, 3986, 3957, 3951, 3916, 3958, 3962, 4035, 3913, 3713, 3656, 3582, 3548, 3478, 3530, 3495, 3756, 3835, 3853, 4000, 3881, 3841, 3835, 3904, 3817, 3874, 3856, 3826, 3753, 3741, 3778, 3669, 3840, 3862, 3841, 3825, 3906, 3794, 3900, 3614, 3721, 3831, 3913, 3739, 3820, 3799, 3809, 3773, 3836, 3749, 3710, 3613, 3952, 3508, 3542, 4095, 3752, 3787, 3718, 3657, 3652, 3675, 3736, 3659, 3833, 3784, 3783, 3801, 4031, 3834, 3834, 3828, 3770, 3784, 3538, 3616, 3775, 3813, 3834, 3901, 3955, 3812, 3871, 3913, 3823, 3829, 3917, 3862, 3952, 3894, 3952, 3930, 3927, 3936, 3898, 3940, 3849, 3719, 3891, 3890, 3913, 3946, 3970, 3472, 3383, 3578, 3496, 3337, 3426, 3996, 3644, 3636, 3547, 3591, 3542, 3615, 3631, 3648, 3615, 3692, 3899, 3683, 3732, 3742, 3683, 3670, 3598, 3599, 3614, 3564, 3548, 3679, 3595, 3551, 4037, 3565, 3728, 3763, 3755, 3797, 3828, 3681, 3651],
      "WindowCenter": [806.0, 807.0, 806.0, 806.0, 806.0, 806.0, 806.0, 808.0, 806.0, 806.0, 807.0, 808.0, 808.0, 807.0, 807.0, 806.0, 807.0, 806.0, 805.0, 805.0, 805.0, 806.0, 806.0, 807.0, 807.0, 807.0, 807.0, 808.0, 806.0, 806.0, 807.0, 808.0, 809.0, 809.0, 808.0, 809.0, 808.0, 808.0, 808.0, 807.0, 806.0, 805.0, 804.0, 805.0, 802.0, 801.0, 806.0, 803.0, 803.0, 803.0, 804.0, 805.0, 806.0, 808.0, 806.0, 806.0, 807.0, 806.0, 806.0, 805.0, 806.0, 805.0, 805.0, 805.0, 803.0, 806.0, 807.0, 808.0, 808.0, 807.0, 808.0, 807.0, 807.0, 807.0, 807.0, 807.0, 806.0, 805.0, 806.0, 807.0, 805.0, 805.0, 808.0, 806.0, 807.0, 806.0, 807.0, 807.0, 807.0, 807.0, 807.0, 807.0, 808.0, 808.0, 809.0, 809.0, 810.0, 809.0, 807.0, 806.0, 806.0, 805.0, 804.0, 804.0, 802.0, 804.0, 804.0, 803.0, 804.0, 803.0, 804.0, 802.0, 806.0, 805.0, 806.0, 808.0, 808.0, 807.0, 807.0, 807.0, 807.0, 806.0, 806.0, 809.0, 808.0, 808.0, 805.0, 805.0, 804.0, 802.0, 806.0, 809.0, 808.0, 808.0, 808.0, 808.0, 807.0, 808.0, 807.0, 806.0, 806.0, 808.0, 805.0, 803.0, 806.0, 803.0, 804.0, 804.0, 803.0, 802.0, 802.0, 802.0, 801.0, 802.0, 803.0, 803.0, 803.0, 804.0, 804.0, 804.0, 804.0, 805.0, 805.0, 803.0, 804.0, 805.0, 806.0, 805.0, 805.0, 806.0, 805.0, 805.0, 805.0, 804.0, 804.0, 805.0, 804.0, 803.0, 806.0, 806.0, 806.0, 804.0, 804.0, 805.0, 805.0, 804.0, 804.0, 805.0, 806.0, 806.0, 805.0, 807.0, 802.0, 803.0, 806.0, 805.0, 805.0, 806.0, 809.0, 806.0, 805.0, 803.0, 802.0, 801.0, 801.0, 801.0, 802.0, 802.0, 803.0, 804.0, 803.0, 804.0, 804.0, 803.0, 803.0, 803.0, 802.0, 803.0, 804.0, 804.0, 806.0, 804.0, 803.0, 806.0, 804.0, 804.0, 804.0, 804.0, 804.0, 803.0, 803.0, 803.0],
      "WindowWidth": [1736.0, 1737.0, 1735.0, 1736.0, 1735.0, 1734.0, 1736.0, 1740.0, 1736.0, 1735.0, 1739.0, 1741.0, 1740.0, 1737.0, 1736.0, 1736.0, 1738.0, 1736.0, 1734.0, 1735.0, 1735.0, 1736.0, 1737.0, 1739.0, 1740.0, 1738.0, 1740.0, 1741.0, 1737.0, 1737.0, 1738.0, 1742.0, 1742.0, 1743.0, 1742.0, 1742.0, 1740.0, 1741.0, 1740.0, 1737.0, 1735.0, 1732.0, 1731.0, 1733.0, 1726.0, 1721.0, 1736.0, 1729.0, 1727.0, 1726.0, 1730.0, 1734.0, 1735.0, 1742.0, 1734.0, 1736.0, 1739.0, 1735.0, 1735.0, 1734.0, 1735.0, 1734.0, 1732.0, 1733.0, 1729.0, 1736.0, 1740.0, 1741.0, 1742.0, 1740.0, 1741.0, 1740.0, 1740.0, 1740.0, 1739.0, 1739.0, 1736.0, 1733.0, 1735.0, 1740.0, 1734.0, 1733.0, 1741.0, 1737.0, 1738.0, 1737.0, 1738.0, 1739.0, 1739.0, 1739.0, 1739.0, 1738.0, 1740.0, 1740.0, 1743.0, 1743.0, 1746.0, 1743.0, 1737.0, 1734.0, 1734.0, 1732.0, 1730.0, 1728.0, 1724.0, 1728.0, 1729.0, 1726.0, 1732.0, 1727.0, 1731.0, 1726.0, 1736.0, 1733.0, 1735.0, 1742.0, 1741.0, 1739.0, 1739.0, 1740.0, 1738.0, 1736.0, 1735.0, 1742.0, 1740.0, 1741.0, 1732.0, 1734.0, 1731.0, 1725.0, 1736.0, 1744.0, 1741.0, 1741.0, 1740.0, 1740.0, 1738.0, 1741.0, 1737.0, 1737.0, 1736.0, 1742.0, 1731.0, 1728.0, 1736.0, 1728.0, 1730.0, 1731.0, 1728.0, 1725.0, 1725.0, 1725.0, 1722.0, 1726.0, 1726.0, 1726.0, 1728.0, 1731.0, 1729.0, 1731.0, 1731.0, 1732.0, 1732.0, 1728.0, 1730.0, 1734.0, 1735.0, 1735.0, 1734.0, 1735.0, 1733.0, 1733.0, 1734.0, 1732.0, 1731.0, 1732.0, 1731.0, 1729.0, 1737.0, 1736.0, 1735.0, 1731.0, 1731.0, 1734.0, 1734.0, 1731.0, 1729.0, 1732.0, 1736.0, 1736.0, 1733.0, 1738.0, 1725.0, 1725.0, 1733.0, 1733.0, 1731.0, 1733.0, 1744.0, 1736.0, 1733.0, 1726.0, 1725.0, 1722.0, 1722.0, 1722.0, 1723.0, 1723.0, 1726.0, 1730.0, 1728.0, 1729.0, 1728.0, 1727.0, 1727.0, 1727.0, 1725.0, 1726.0, 1728.0, 1729.0, 1734.0, 1730.0, 1728.0, 1737.0, 1728.0, 1729.0, 1731.0, 1729.0, 1729.0, 1728.0, 1727.0, 1727.0]
    },
    "slices": {}
  }
}