{
  "AcquisitionMatrixPE": 100,
  "AcquisitionNumber": 1,
  "AcquisitionTime": "11:42:55.802500",
  "BandwidthPerPixelPhaseEncode": 18.519,
  "BaseResolution": 100,
  "BodyPartExamined": "BRAIN",
  "ConsistencyInfo": "N4_VE11C_LATEST_20160120",
  "ConversionSoftware": "dcm2niix",
  "ConversionSoftwareVersion": "v1.0.20180622 GCC4.9.2",
  "DerivedVendorReportedEchoSpacing": 0.000539986,
  "DeviceSerialNumber": "166078",
  "DwellTime": 2.1e-06,
  "EchoTime": 0.034,
  "EchoTrainLength": 100,
  "EffectiveEchoSpacing": 0.000539986,
  "FlipAngle": 90,
  "ImageOrientationPatientDICOM": [1, 0, 0, 0, 0.98796, -0.15471],
  "ImageType": [
    "ORIGINAL",
    "PRIMARY",
    "M",
    "ND",
    "MOSAIC"
],
  "InPlanePhaseEncodingDirectionDICOM": "COL",
  "InstitutionAddress": "Street_StreetNo_Bei_Jing_District_CN_ZIP",
  "InstitutionName": "BeiJing_Normal_University",
  "InstitutionalDepartmentName": "Department",
  "MRAcquisitionType": "2D",
  "MagneticFieldStrength": 3,
  "Manufacturer": "Siemens",
  "ManufacturersModelName": "Prisma",
  "Modality": "MR",
  "MultibandAccelerationFactor": 3,
  "PartialFourier": 1,
  "PatientPosition": "HFS",
  "PercentPhaseFOV": 100,
  "PhaseEncodingDirection": "j-",
  "PhaseEncodingSteps": 100,
  "PhaseResolution": 1,
  "PixelBandwidth": 2380,
  "ProcedureStepDescription": "BNU_P2018_64CH_Liu.Jia",
  "ProtocolName": "bold_100x100_s3_2x2x2_232",
  "PulseSequenceDetails": "%SiemensSeq%_ep2d_bold",
  "ReceiveCoilActiveElements": "HC1-7;NC1",
  "ReceiveCoilName": "HeadNeck_64",
  "ReconMatrixPE": 100,
  "RepetitionTime": 2,
  "SAR": 0.0634291,
  "ScanOptions": "FS",
  "ScanningSequence": "EP",
  "SequenceName": "_epfid2d1_100",
  "SequenceVariant": "SK",
  "SeriesDescription": "bold_100x100_s3_2x2x2_232",
  "SeriesNumber": 4,
  "ShimSetting": [-5468, -11476, -1235, 181, -76, -110, -121, 56],
  "SliceThickness": 2,
  "SliceTiming": [1.485, 0, 0.99, 0.0825, 1.0725, 0.165, 1.155, 0.2475, 1.2375, 0.33, 1.32, 0.4125, 1.4025, 0.5775, 1.5675, 0.66, 1.65, 0.7425, 1.7325, 0.825, 1.815, 0.9075, 1.8975, 0.495, 1.485, 0, 0.99, 0.0825, 1.0725, 0.165, 1.155, 0.2475, 1.2375, 0.33, 1.32, 0.4125, 1.4025, 0.5775, 1.5675, 0.66, 1.65, 0.7425, 1.7325, 0.825, 1.815, 0.9075, 1.8975, 0.495, 1.485, 0, 0.99, 0.0825, 1.0725, 0.165, 1.155, 0.2475, 1.2375, 0.33, 1.32, 0.4125, 1.4025, 0.5775, 1.5675, 0.66, 1.65, 0.7425, 1.7325, 0.825, 1.815, 0.9075, 1.8975, 0.495],
  "SoftwareVersions": "syngo_MR_E11",
  "SpacingBetweenSlices": 2,
  "StationName": "AWP166078",
  "TaskName": "motor",
  "TotalReadoutTime": 0.0534586,
  "TxRefAmp": 229.179,
  "dcmmeta_affine": [
    [-2.0, 0.0, 0.0, 101.34939575195312],
    [0.0, 1.9759197235107422, -0.30942079424858093, -82.67900085449219],
    [0.0, 0.30942079424858093, 1.9759197235107422, -79.23448181152344],
    [0.0, 0.0, 0.0, 1.0]
],
  "dcmmeta_reorient_transform": [
    [0.0, -1.0, 0.0, 99.0],
    [1.0, 0.0, 0.0, 0.0],
    [0.0, 0.0, 1.0, 0.0],
    [0.0, 0.0, 0.0, 1.0]
],
  "dcmmeta_shape": [100, 100, 72, 232],
  "dcmmeta_slice_dim": 2,
  "dcmmeta_version": 0.6,
  "global": {
    "const": {
      "AcquisitionMatrix": [100, 0, 0, 100],
      "AngioFlag": "N",
      "BitsAllocated": 16,
      "BitsStored": 12,
      "BodyPartExamined": "BRAIN",
      "Columns": 900,
      "EchoNumbers": 1,
      "EchoTime": 34.0,
      "EchoTrainLength": 100,
      "FlipAngle": 90.0,
      "HighBit": 11,
      "ImageOrientationPatient": [1.0, 0.0, 0.0, 0.0, 0.98795986467944, -0.1547103932598],
      "ImagePositionPatient": [-901.34939754009, -903.30494190168, 75.166493216011],
      "ImageType": [
        "ORIGINAL",
        "PRIMARY",
        "M",
        "ND",
        "MOSAIC"
],
      "ImagedNucleus": "1H",
      "ImagingFrequency": 123.257811,
      "InPlanePhaseEncodingDirection": "COL",
      "MRAcquisitionType": "2D",
      "MagneticFieldStrength": 3.0,
      "Manufacturer": "SIEMENS",
      "ManufacturerModelName": "Prisma",
      "Modality": "MR",
      "NumberOfAverages": 1.0,
      "NumberOfPhaseEncodingSteps": 100,
      "PercentPhaseFieldOfView": 100.0,
      "PercentSampling": 100.0,
      "PerformedProcedureStepStartTime": "113037.217000",
      "PhotometricInterpretation": "MONOCHROME2",
      "PixelBandwidth": 2380.0,
      "PixelRepresentation": 0,
      "PixelSpacing": [2.0, 2.0],
      "ProtocolName": "bold_100x100_s3_2x2x2_232",
      "RepetitionTime": 2000.0,
      "Rows": 900,
      "SAR": 0.06342912847427,
      "SamplesPerPixel": 1,
      "ScanOptions": "FS",
      "ScanningSequence": "EP",
      "SequenceName": "*epfid2d1_100",
      "SequenceVariant": "SK",
      "SeriesDescription": "bold_100x100_s3_2x2x2_232",
      "SeriesNumber": 4,
      "SeriesTime": "114258.045000",
      "SliceLocation": -65.489184328976,
      "SliceThickness": 2.0,
      "SmallestImagePixelValue": 0,
      "SoftwareVersions": "syngo MR E11",
      "SpacingBetweenSlices": 1.9999999646563,
      "SpecificCharacterSet": "ISO_IR 100",
      "StudyID": "1",
      "StudyTime": "113037.140000",
      "TransmitCoilName": "Body",
      "VariableFlipAngleFlag": "N",
      "WindowCenterWidthExplanation": "Algo1",
      "dBdt": 0.0},
    "slices": {}
  },
  "time": {
    "samples": {
      "AcquisitionNumber": [1, 2, 3, 4, 5, 6, 7, 8, 9, 10, 11, 12, 13, 14, 15, 16, 17, 18, 19, 20, 21, 22, 23, 24, 25, 26, 27, 28, 29, 30, 31, 32, 33, 34, 35, 36, 37, 38, 39, 40, 41, 42, 43, 44, 45, 46, 47, 48, 49, 50, 51, 52, 53, 54, 55, 56, 57, 58, 59, 60, 61, 62, 63, 64, 65, 66, 67, 68, 69, 70, 71, 72, 73, 74, 75, 76, 77, 78, 79, 80, 81, 82, 83, 84, 85, 86, 87, 88, 89, 90, 91, 92, 93, 94, 95, 96, 97, 98, 99, 100, 101, 102, 103, 104, 105, 106, 107, 108, 109, 110, 111, 112, 113, 114, 115, 116, 117, 118, 119, 120, 121, 122, 123, 124, 125, 126, 127, 128, 129, 130, 131, 132, 133, 134, 135, 136, 137, 138, 139, 140, 141, 142, 143, 144, 145, 146, 147, 148, 149, 150, 151, 152, 153, 154, 155, 156, 157, 158, 159, 160, 161, 162, 163, 164, 165, 166, 167, 168, 169, 170, 171, 172, 173, 174, 175, 176, 177, 178, 179, 180, 181, 182, 183, 184, 185, 186, 187, 188, 189, 190, 191, 192, 193, 194, 195, 196, 197, 198, 199, 200, 201, 202, 203, 204, 205, 206, 207, 208, 209, 210, 211, 212, 213, 214, 215, 216, 217, 218, 219, 220, 221, 222, 223, 224, 225, 226, 227, 228, 229, 230, 231, 232],
      "AcquisitionTime": ["114255.802500", "114257.802500", "114259.802500", "114301.802500", "114303.802500", "114305.802500", "114307.802500", "114309.802500", "114311.802500", "114313.802500", "114315.802500", "114317.802500", "114319.802500", "114321.802500", "114323.802500", "114325.802500", "114327.802500", "114329.802500", "114331.802500", "114333.802500", "114335.802500", "114337.802500", "114339.802500", "114341.802500", "114343.802500", "114345.802500", "114347.802500", "114349.802500", "114351.802500", "114353.802500", "114355.802500", "114357.802500", "114359.802500", "114401.802500", "114403.802500", "114405.802500", "114407.802500", "114409.802500", "114411.802500", "114413.802500", "114415.802500", "114417.802500", "114419.802500", "114421.802500", "114423.802500", "114425.802500", "114427.802500", "114429.802500", "114431.802500", "114433.802500", "114435.802500", "114437.802500", "114439.802500", "114441.802500", "114443.802500", "114445.802500", "114447.802500", "114449.802500", "114451.802500", "114453.802500", "114455.802500", "114457.802500", "114459.802500", "114501.802500", "114503.802500", "114505.802500", "114507.802500", "114509.802500", "114511.802500", "114513.802500", "114515.802500", "114517.802500", "114519.802500", "114521.802500", "114523.802500", "114525.802500", "114527.802500", "114529.802500", "114531.802500", "114533.802500", "114535.802500", "114537.802500", "114539.802500", "114541.802500", "114543.802500", "114545.802500", "114547.802500", "114549.802500", "114551.802500", "114553.802500", "114555.802500", "114557.802500", "114559.802500", "114601.802500", "114603.802500", "114605.802500", "114607.802500", "114609.802500", "114611.802500", "114613.802500", "114615.802500", "114617.802500", "114619.802500", "114621.802500", "114623.802500", "114625.802500", "114627.802500", "114629.802500", "114631.802500", "114633.802500", "114635.802500", "114637.802500", "114639.802500", "114641.802500", "114643.802500", "114645.802500", "114647.802500", "114649.802500", "114651.802500", "114653.802500", "114655.802500", "114657.802500", "114659.802500", "114701.802500", "114703.802500", "114705.802500", "114707.802500", "114709.802500", "114711.802500", "114713.802500", "114715.802500", "114717.802500", "114719.802500", "114721.802500", "114723.802500", "114725.802500", "114727.802500", "114729.802500", "114731.802500", "114733.802500", "114735.802500", "114737.802500", "114739.802500", "114741.802500", "114743.802500", "114745.802500", "114747.802500", "114749.802500", "114751.802500", "114753.802500", "114755.802500", "114757.802500", "114759.802500", "114801.802500", "114803.802500", "114805.802500", "114807.802500", "114809.802500", "114811.802500", "114813.802500", "114815.802500", "114817.802500", "114819.802500", "114821.802500", "114823.802500", "114825.802500", "114827.802500", "114829.802500", "114831.802500", "114833.802500", "114835.802500", "114837.802500", "114839.802500", "114841.802500", "114843.802500", "114845.802500", "114847.802500", "114849.802500", "114851.802500", "114853.802500", "114855.802500", "114857.802500", "114859.802500", "114901.802500", "114903.802500", "114905.802500", "114907.802500", "114909.802500", "114911.802500", "114913.802500", "114915.802500", "114917.802500", "114919.802500", "114921.802500", "114923.802500", "114925.802500", "114927.802500", "114929.802500", "114931.802500", "114933.802500", "114935.802500", "114937.802500", "114939.802500", "114941.802500", "114943.802500", "114945.802500", "114947.802500", "114949.802500", "114951.802500", "114953.802500", "114955.802500", "114957.802500", "114959.802500", "115001.802500", "115003.802500", "115005.802500", "115007.802500", "115009.802500", "115011.802500", "115013.802500", "115015.802500", "115017.802500", "115019.802500", "115021.802500", "115023.802500", "115025.802500", "115027.802500", "115029.802500", "115031.802500", "115033.802500", "115035.802500", "115037.802500"],
      "ContentTime": ["114258.048000", "114259.545000", "114301.545000", "114303.545000", "114305.546000", "114307.544000", "114309.544000", "114311.544000", "114313.544000", "114315.544000", "114317.544000", "114319.545000", "114321.545000", "114323.546000", "114325.544000", "114327.544000", "114329.544000", "114331.544000", "114333.545000", "114335.545000", "114337.545000", "114339.545000", "114341.545000", "114343.544000", "114345.545000", "114347.544000", "114349.545000", "114351.544000", "114353.545000", "114355.545000", "114357.545000", "114359.545000", "114401.544000", "114403.544000", "114405.545000", "114407.544000", "114409.544000", "114411.545000", "114413.545000", "114415.546000", "114417.544000", "114419.544000", "114421.544000", "114423.544000", "114425.545000", "114427.545000", "114429.546000", "114431.545000", "114433.545000", "114435.545000", "114437.544000", "114439.545000", "114441.544000", "114443.544000", "114445.545000", "114447.546000", "114449.545000", "114451.545000", "114453.544000", "114455.544000", "114457.544000", "114459.544000", "114501.544000", "114503.546000", "114505.545000", "114507.546000", "114509.544000", "114511.544000", "114513.544000", "114515.544000", "114517.544000", "114519.544000", "114521.545000", "114523.545000", "114525.546000", "114527.545000", "114529.545000", "114531.544000", "114533.545000", "114535.545000", "114537.545000", "114539.545000", "114541.546000", "114543.546000", "114545.545000", "114547.545000", "114549.544000", "114551.544000", "114553.545000", "114555.546000", "114557.546000", "114559.545000", "114601.545000", "114603.544000", "114605.544000", "114607.544000", "114609.544000", "114611.544000", "114613.545000", "114615.545000", "114617.546000", "114619.544000", "114621.544000", "114623.544000", "114625.544000", "114627.544000", "114629.545000", "114631.545000", "114633.546000", "114635.545000", "114637.544000", "114639.545000", "114641.544000", "114643.544000", "114645.544000", "114647.545000", "114649.545000", "114651.545000", "114653.545000", "114655.544000", "114657.544000", "114659.545000", "114701.545000", "114703.544000", "114705.545000", "114707.545000", "114709.545000", "114711.545000", "114713.544000", "114715.544000", "114717.544000", "114719.544000", "114721.555000", "114723.546000", "114725.545000", "114727.545000", "114729.544000", "114731.545000", "114733.545000", "114735.544000", "114737.544000", "114739.544000", "114741.545000", "114743.545000", "114745.545000", "114747.545000", "114749.544000", "114751.545000", "114753.544000", "114755.545000", "114757.546000", "114759.545000", "114801.546000", "114803.545000", "114805.545000", "114807.544000", "114809.544000", "114811.545000", "114813.544000", "114815.545000", "114817.545000", "114819.545000", "114821.546000", "114823.545000", "114825.544000", "114827.544000", "114829.544000", "114831.544000", "114833.546000", "114835.545000", "114837.546000", "114839.544000", "114841.544000", "114843.544000", "114845.545000", "114847.544000", "114849.544000", "114851.546000", "114853.545000", "114855.545000", "114857.544000", "114859.544000", "114901.544000", "114903.545000", "114905.545000", "114907.546000", "114909.545000", "114911.545000", "114913.546000", "114915.545000", "114917.544000", "114919.544000", "114921.544000", "114923.545000", "114925.545000", "114927.545000", "114929.546000", "114931.546000", "114933.545000", "114935.545000", "114937.544000", "114939.544000", "114941.544000", "114943.545000", "114945.545000", "114947.546000", "114949.544000", "114951.545000", "114953.544000", "114955.545000", "114957.544000", "114959.544000", "115001.546000", "115003.546000", "115005.545000", "115007.545000", "115009.545000", "115011.544000", "115013.544000", "115015.544000", "115017.545000", "115019.545000", "115021.545000", "115023.545000", "115025.544000", "115027.544000", "115029.544000", "115031.544000", "115033.544000", "115035.546000", "115037.546000", "115039.335000"],
      "InstanceCreationTime": ["114258.048000", "114259.545000", "114301.545000", "114303.545000", "114305.546000", "114307.544000", "114309.544000", "114311.544000", "114313.544000", "114315.544000", "114317.544000", "114319.545000", "114321.545000", "114323.546000", "114325.544000", "114327.544000", "114329.544000", "114331.544000", "114333.545000", "114335.545000", "114337.545000", "114339.545000", "114341.545000", "114343.544000", "114345.545000", "114347.544000", "114349.545000", "114351.544000", "114353.545000", "114355.545000", "114357.545000", "114359.545000", "114401.544000", "114403.544000", "114405.545000", "114407.544000", "114409.544000", "114411.545000", "114413.545000", "114415.546000", "114417.544000", "114419.544000", "114421.544000", "114423.544000", "114425.545000", "114427.545000", "114429.546000", "114431.545000", "114433.545000", "114435.545000", "114437.544000", "114439.545000", "114441.544000", "114443.544000", "114445.545000", "114447.546000", "114449.545000", "114451.545000", "114453.544000", "114455.544000", "114457.544000", "114459.544000", "114501.544000", "114503.546000", "114505.545000", "114507.546000", "114509.544000", "114511.544000", "114513.544000", "114515.544000", "114517.544000", "114519.544000", "114521.545000", "114523.545000", "114525.546000", "114527.545000", "114529.545000", "114531.544000", "114533.545000", "114535.545000", "114537.545000", "114539.545000", "114541.546000", "114543.546000", "114545.545000", "114547.545000", "114549.544000", "114551.544000", "114553.545000", "114555.546000", "114557.546000", "114559.545000", "114601.545000", "114603.544000", "114605.544000", "114607.544000", "114609.544000", "114611.544000", "114613.545000", "114615.545000", "114617.546000", "114619.544000", "114621.544000", "114623.544000", "114625.544000", "114627.544000", "114629.545000", "114631.545000", "114633.546000", "114635.545000", "114637.544000", "114639.545000", "114641.544000", "114643.544000", "114645.544000", "114647.545000", "114649.545000", "114651.545000", "114653.545000", "114655.544000", "114657.544000", "114659.545000", "114701.545000", "114703.544000", "114705.545000", "114707.545000", "114709.545000", "114711.545000", "114713.544000", "114715.544000", "114717.544000", "114719.544000", "114721.555000", "114723.546000", "114725.545000", "114727.545000", "114729.544000", "114731.545000", "114733.545000", "114735.544000", "114737.544000", "114739.544000", "114741.545000", "114743.545000", "114745.545000", "114747.545000", "114749.544000", "114751.545000", "114753.544000", "114755.545000", "114757.546000", "114759.545000", "114801.546000", "114803.545000", "114805.545000", "114807.544000", "114809.544000", "114811.545000", "114813.544000", "114815.545000", "114817.545000", "114819.545000", "114821.546000", "114823.545000", "114825.544000", "114827.544000", "114829.544000", "114831.544000", "114833.546000", "114835.545000", "114837.546000", "114839.544000", "114841.544000", "114843.544000", "114845.545000", "114847.544000", "114849.544000", "114851.546000", "114853.545000", "114855.545000", "114857.544000", "114859.544000", "114901.544000", "114903.545000", "114905.545000", "114907.546000", "114909.545000", "114911.545000", "114913.546000", "114915.545000", "114917.544000", "114919.544000", "114921.544000", "114923.545000", "114925.545000", "114927.545000", "114929.546000", "114931.546000", "114933.545000", "114935.545000", "114937.544000", "114939.544000", "114941.544000", "114943.545000", "114945.545000", "114947.546000", "114949.544000", "114951.545000", "114953.544000", "114955.545000", "114957.544000", "114959.544000", "115001.546000", "115003.546000", "115005.545000", "115007.545000", "115009.545000", "115011.544000", "115013.544000", "115015.544000", "115017.545000", "115019.545000", "115021.545000", "115023.545000", "115025.544000", "115027.544000", "115029.544000", "115031.544000", "115033.544000", "115035.546000", "115037.546000", "115039.335000"],
      "InstanceNumber": [1, 2, 3, 4, 5, 6, 7, 8, 9, 10, 11, 12, 13, 14, 15, 16, 17, 18, 19, 20, 21, 22, 23, 24, 25, 26, 27, 28, 29, 30, 31, 32, 33, 34, 35, 36, 37, 38, 39, 40, 41, 42, 43, 44, 45, 46, 47, 48, 49, 50, 51, 52, 53, 54, 55, 56, 57, 58, 59, 60, 61, 62, 63, 64, 65, 66, 67, 68, 69, 70, 71, 72, 73, 74, 75, 76, 77, 78, 79, 80, 81, 82, 83, 84, 85, 86, 87, 88, 89, 90, 91, 92, 93, 94, 95, 96, 97, 98, 99, 100, 101, 102, 103, 104, 105, 106, 107, 108, 109, 110, 111, 112, 113, 114, 115, 116, 117, 118, 119, 120, 121, 122, 123, 124, 125, 126, 127, 128, 129, 130, 131, 132, 133, 134, 135, 136, 137, 138, 139, 140, 141, 142, 143, 144, 145, 146, 147, 148, 149, 150, 151, 152, 153, 154, 155, 156, 157, 158, 159, 160, 161, 162, 163, 164, 165, 166, 167, 168, 169, 170, 171, 172, 173, 174, 175, 176, 177, 178, 179, 180, 181, 182, 183, 184, 185, 186, 187, 188, 189, 190, 191, 192, 193, 194, 195, 196, 197, 198, 199, 200, 201, 202, 203, 204, 205, 206, 207, 208, 209, 210, 211, 212, 213, 214, 215, 216, 217, 218, 219, 220, 221, 222, 223, 224, 225, 226, 227, 228, 229, 230, 231, 232],
      "LargestImagePixelValue": [3150, 3131, 3171, 3153, 3182, 3305, 3276, 3766, 3371, 3300, 3190, 3072, 3059, 3073, 3069, 3080, 3100, 3067, 3093, 3093, 3138, 3175, 3174, 3160, 3139, 3149, 3145, 3151, 3160, 3227, 3266, 3418, 3272, 3276, 3265, 3326, 3476, 3358, 3431, 3338, 3354, 3239, 3377, 3433, 3533, 3579, 3611, 3603, 3663, 3652, 3624, 3674, 3687, 3705, 3742, 3686, 3682, 3438, 3504, 3478, 3558, 3587, 3553, 3647, 3634, 3576, 3665, 3649, 3664, 3579, 3614, 3635, 3635, 3581, 3513, 3556, 3605, 3591, 3622, 3582, 3603, 3446, 3507, 3540, 3590, 3517, 3513, 3593, 3473, 3541, 3512, 3643, 3678, 3651, 3619, 3563, 3497, 3527, 3522, 3628, 3604, 3636, 3680, 3701, 3495, 3448, 3432, 3495, 3566, 3575, 3545, 3398, 3280, 3078, 3106, 3153, 3141, 3091, 3050, 3113, 3186, 3172, 3288, 3122, 2969, 3036, 3049, 3251, 3003, 2975, 3009, 3067, 3050, 3033, 3109, 3088, 3149, 3298, 3166, 3236, 3089, 3103, 3199, 3226, 3305, 3402, 3469, 3567, 3366, 3446, 3507, 3533, 3471, 3561, 3323, 3421, 3393, 3313, 3327, 3279, 3164, 3249, 3225, 3209, 3188, 3270, 3322, 3330, 3259, 3415, 3422, 3420, 3497, 3401, 3433, 3297, 3317, 3277, 3134, 3131, 3110, 3138, 3065, 3117, 3152, 3109, 3107, 3142, 3282, 3324, 3324, 3268, 3262, 3254, 3232, 3311, 3419, 3446, 3548, 3601, 3498, 3575, 3668, 3610, 3630, 3668, 3570, 3683, 3669, 3559, 3624, 3547, 3559, 3504, 3504, 3535, 3414, 3186, 3097, 3143, 3350, 3176, 3290, 3288, 3065, 3031, 3109, 3160, 3111, 3120, 3088, 3160],
      "WindowCenter": [800.0, 799.0, 799.0, 798.0, 798.0, 800.0, 800.0, 803.0, 801.0, 800.0, 797.0, 797.0, 796.0, 797.0, 796.0, 796.0, 797.0, 796.0, 797.0, 798.0, 800.0, 801.0, 801.0, 800.0, 801.0, 799.0, 799.0, 799.0, 798.0, 799.0, 799.0, 800.0, 799.0, 799.0, 799.0, 800.0, 802.0, 802.0, 802.0, 802.0, 802.0, 801.0, 802.0, 803.0, 805.0, 805.0, 804.0, 804.0, 803.0, 803.0, 804.0, 805.0, 804.0, 804.0, 805.0, 805.0, 806.0, 805.0, 805.0, 805.0, 805.0, 804.0, 803.0, 803.0, 803.0, 804.0, 805.0, 805.0, 803.0, 803.0, 803.0, 804.0, 804.0, 803.0, 804.0, 804.0, 804.0, 803.0, 804.0, 804.0, 803.0, 803.0, 803.0, 804.0, 804.0, 804.0, 804.0, 805.0, 804.0, 805.0, 805.0, 806.0, 805.0, 805.0, 803.0, 803.0, 802.0, 802.0, 802.0, 803.0, 802.0, 802.0, 802.0, 803.0, 801.0, 799.0, 800.0, 798.0, 800.0, 801.0, 801.0, 798.0, 799.0, 797.0, 799.0, 800.0, 800.0, 800.0, 798.0, 798.0, 796.0, 791.0, 795.0, 792.0, 790.0, 794.0, 790.0, 794.0, 794.0, 794.0, 795.0, 797.0, 797.0, 798.0, 799.0, 799.0, 800.0, 801.0, 800.0, 799.0, 798.0, 798.0, 800.0, 799.0, 799.0, 799.0, 800.0, 800.0, 798.0, 799.0, 800.0, 800.0, 800.0, 800.0, 799.0, 801.0, 800.0, 799.0, 799.0, 799.0, 796.0, 798.0, 799.0, 799.0, 798.0, 799.0, 799.0, 799.0, 798.0, 800.0, 800.0, 800.0, 801.0, 799.0, 800.0, 798.0, 798.0, 799.0, 798.0, 797.0, 798.0, 798.0, 797.0, 797.0, 798.0, 798.0, 798.0, 798.0, 800.0, 800.0, 800.0, 798.0, 798.0, 798.0, 800.0, 799.0, 800.0, 801.0, 802.0, 802.0, 801.0, 802.0, 802.0, 802.0, 802.0, 802.0, 801.0, 801.0, 801.0, 800.0, 801.0, 801.0, 801.0, 800.0, 801.0, 801.0, 800.0, 798.0, 795.0, 796.0, 797.0, 796.0, 795.0, 798.0, 797.0, 796.0, 798.0, 800.0, 799.0, 799.0, 798.0, 799.0],
      "WindowWidth": [1723.0, 1720.0, 1719.0, 1717.0, 1717.0, 1721.0, 1721.0, 1732.0, 1724.0, 1721.0, 1712.0, 1713.0, 1710.0, 1712.0, 1712.0, 1712.0, 1714.0, 1711.0, 1713.0, 1716.0, 1721.0, 1725.0, 1725.0, 1723.0, 1723.0, 1720.0, 1718.0, 1718.0, 1717.0, 1719.0, 1718.0, 1723.0, 1719.0, 1720.0, 1721.0, 1723.0, 1727.0, 1726.0, 1729.0, 1727.0, 1728.0, 1725.0, 1728.0, 1732.0, 1735.0, 1736.0, 1735.0, 1733.0, 1732.0, 1732.0, 1732.0, 1735.0, 1734.0, 1735.0, 1736.0, 1737.0, 1739.0, 1734.0, 1735.0, 1736.0, 1737.0, 1734.0, 1732.0, 1732.0, 1732.0, 1732.0, 1735.0, 1735.0, 1732.0, 1730.0, 1731.0, 1733.0, 1733.0, 1730.0, 1733.0, 1733.0, 1734.0, 1731.0, 1731.0, 1732.0, 1731.0, 1729.0, 1732.0, 1733.0, 1734.0, 1733.0, 1733.0, 1735.0, 1734.0, 1736.0, 1736.0, 1738.0, 1738.0, 1735.0, 1732.0, 1730.0, 1728.0, 1727.0, 1728.0, 1730.0, 1728.0, 1728.0, 1728.0, 1729.0, 1725.0, 1718.0, 1720.0, 1717.0, 1721.0, 1724.0, 1724.0, 1716.0, 1720.0, 1714.0, 1717.0, 1721.0, 1722.0, 1720.0, 1717.0, 1717.0, 1711.0, 1697.0, 1708.0, 1699.0, 1694.0, 1705.0, 1694.0, 1706.0, 1705.0, 1704.0, 1707.0, 1712.0, 1713.0, 1715.0, 1717.0, 1718.0, 1720.0, 1724.0, 1719.0, 1719.0, 1714.0, 1714.0, 1719.0, 1718.0, 1718.0, 1718.0, 1720.0, 1720.0, 1716.0, 1719.0, 1721.0, 1721.0, 1719.0, 1721.0, 1718.0, 1722.0, 1721.0, 1718.0, 1719.0, 1717.0, 1711.0, 1716.0, 1717.0, 1717.0, 1715.0, 1717.0, 1717.0, 1717.0, 1714.0, 1720.0, 1722.0, 1723.0, 1723.0, 1719.0, 1720.0, 1717.0, 1717.0, 1718.0, 1714.0, 1713.0, 1714.0, 1714.0, 1711.0, 1712.0, 1715.0, 1715.0, 1716.0, 1716.0, 1721.0, 1721.0, 1720.0, 1716.0, 1717.0, 1716.0, 1719.0, 1719.0, 1722.0, 1724.0, 1727.0, 1728.0, 1725.0, 1726.0, 1727.0, 1726.0, 1728.0, 1728.0, 1725.0, 1725.0, 1725.0, 1722.0, 1725.0, 1723.0, 1725.0, 1722.0, 1723.0, 1724.0, 1721.0, 1713.0, 1708.0, 1709.0, 1713.0, 1711.0, 1707.0, 1714.0, 1711.0, 1711.0, 1714.0, 1719.0, 1718.0, 1718.0, 1715.0, 1718.0]
    },
    "slices": {}
  }
}