{
  "AcquisitionMatrixPE": 100,
  "AcquisitionNumber": 1,
  "AcquisitionTime": "11:51:35.352500",
  "BandwidthPerPixelPhaseEncode": 18.519,
  "BaseResolution": 100,
  "BodyPartExamined": "BRAIN",
  "ConsistencyInfo": "N4_VE11C_LATEST_20160120",
  "ConversionSoftware": "dcm2niix",
  "ConversionSoftwareVersion": "v1.0.20180622 GCC4.9.2",
  "DerivedVendorReportedEchoSpacing": 0.000539986,
  "DeviceSerialNumber": "166078",
  "DwellTime": 2.1e-06,
  "EchoTime": 0.034,
  "EchoTrainLength": 100,
  "EffectiveEchoSpacing": 0.000539986,
  "FlipAngle": 90,
  "ImageOrientationPatientDICOM": [1, 0, 0, 0, 0.98796, -0.15471],
  "ImageType": [
    "ORIGINAL",
    "PRIMARY",
    "M",
    "ND",
    "MOSAIC"
],
  "InPlanePhaseEncodingDirectionDICOM": "COL",
  "InstitutionAddress": "Street_StreetNo_Bei_Jing_District_CN_ZIP",
  "InstitutionName": "BeiJing_Normal_University",
  "InstitutionalDepartmentName": "Department",
  "MRAcquisitionType": "2D",
  "MagneticFieldStrength": 3,
  "Manufacturer": "Siemens",
  "ManufacturersModelName": "Prisma",
  "Modality": "MR",
  "MultibandAccelerationFactor": 3,
  "PartialFourier": 1,
  "PatientPosition": "HFS",
  "PercentPhaseFOV": 100,
  "PhaseEncodingDirection": "j-",
  "PhaseEncodingSteps": 100,
  "PhaseResolution": 1,
  "PixelBandwidth": 2380,
  "ProcedureStepDescription": "BNU_P2018_64CH_Liu.Jia",
  "ProtocolName": "bold_100x100_s3_2x2x2_232",
  "PulseSequenceDetails": "%SiemensSeq%_ep2d_bold",
  "ReceiveCoilActiveElements": "HC1-7;NC1",
  "ReceiveCoilName": "HeadNeck_64",
  "ReconMatrixPE": 100,
  "RepetitionTime": 2,
  "SAR": 0.0634291,
  "ScanOptions": "FS",
  "ScanningSequence": "EP",
  "SequenceName": "_epfid2d1_100",
  "SequenceVariant": "SK",
  "SeriesDescription": "bold_100x100_s3_2x2x2_232",
  "SeriesNumber": 5,
  "ShimSetting": [-5468, -11476, -1235, 181, -76, -110, -121, 56],
  "SliceThickness": 2,
  "SliceTiming": [1.485, 0, 0.99, 0.0825, 1.0725, 0.165, 1.155, 0.2475, 1.2375, 0.33, 1.32, 0.4125, 1.4025, 0.5775, 1.5675, 0.66, 1.65, 0.7425, 1.7325, 0.825, 1.815, 0.9075, 1.8975, 0.495, 1.485, 0, 0.99, 0.0825, 1.0725, 0.165, 1.155, 0.2475, 1.2375, 0.33, 1.32, 0.4125, 1.4025, 0.5775, 1.5675, 0.66, 1.65, 0.7425, 1.7325, 0.825, 1.815, 0.9075, 1.8975, 0.495, 1.485, 0, 0.99, 0.0825, 1.0725, 0.165, 1.155, 0.2475, 1.2375, 0.33, 1.32, 0.4125, 1.4025, 0.5775, 1.5675, 0.66, 1.65, 0.7425, 1.7325, 0.825, 1.815, 0.9075, 1.8975, 0.495],
  "SoftwareVersions": "syngo_MR_E11",
  "SpacingBetweenSlices": 2,
  "StationName": "AWP166078",
  "TaskName": "motor",
  "TotalReadoutTime": 0.0534586,
  "TxRefAmp": 229.179,
  "dcmmeta_affine": [
    [-2.0, 0.0, 0.0, 101.34939575195312],
    [0.0, 1.9759197235107422, -0.30942079424858093, -82.67900085449219],
    [0.0, 0.30942079424858093, 1.9759197235107422, -79.23448181152344],
    [0.0, 0.0, 0.0, 1.0]
],
  "dcmmeta_reorient_transform": [
    [0.0, -1.0, 0.0, 99.0],
    [1.0, 0.0, 0.0, 0.0],
    [0.0, 0.0, 1.0, 0.0],
    [0.0, 0.0, 0.0, 1.0]
],
  "dcmmeta_shape": [100, 100, 72, 232],
  "dcmmeta_slice_dim": 2,
  "dcmmeta_version": 0.6,
  "global": {
    "const": {
      "AcquisitionMatrix": [100, 0, 0, 100],
      "AngioFlag": "N",
      "BitsAllocated": 16,
      "BitsStored": 12,
      "BodyPartExamined": "BRAIN",
      "Columns": 900,
      "EchoNumbers": 1,
      "EchoTime": 34.0,
      "EchoTrainLength": 100,
      "FlipAngle": 90.0,
      "HighBit": 11,
      "ImageOrientationPatient": [1.0, 0.0, 0.0, 0.0, 0.98795986467944, -0.1547103932598],
      "ImagePositionPatient": [-901.34939754009, -903.30494190168, 75.166493216011],
      "ImageType": [
        "ORIGINAL",
        "PRIMARY",
        "M",
        "ND",
        "MOSAIC"
],
      "ImagedNucleus": "1H",
      "ImagingFrequency": 123.257816,
      "InPlanePhaseEncodingDirection": "COL",
      "MRAcquisitionType": "2D",
      "MagneticFieldStrength": 3.0,
      "Manufacturer": "SIEMENS",
      "ManufacturerModelName": "Prisma",
      "Modality": "MR",
      "NumberOfAverages": 1.0,
      "NumberOfPhaseEncodingSteps": 100,
      "PercentPhaseFieldOfView": 100.0,
      "PercentSampling": 100.0,
      "PerformedProcedureStepStartTime": "113037.217000",
      "PhotometricInterpretation": "MONOCHROME2",
      "PixelBandwidth": 2380.0,
      "PixelRepresentation": 0,
      "PixelSpacing": [2.0, 2.0],
      "ProtocolName": "bold_100x100_s3_2x2x2_232",
      "RepetitionTime": 2000.0,
      "Rows": 900,
      "SAR": 0.06342912847427,
      "SamplesPerPixel": 1,
      "ScanOptions": "FS",
      "ScanningSequence": "EP",
      "SequenceName": "*epfid2d1_100",
      "SequenceVariant": "SK",
      "SeriesDescription": "bold_100x100_s3_2x2x2_232",
      "SeriesNumber": 5,
      "SeriesTime": "115137.481000",
      "SliceLocation": -65.489184328976,
      "SliceThickness": 2.0,
      "SmallestImagePixelValue": 0,
      "SoftwareVersions": "syngo MR E11",
      "SpacingBetweenSlices": 1.9999999646563,
      "SpecificCharacterSet": "ISO_IR 100",
      "StudyID": "1",
      "StudyTime": "113037.140000",
      "TransmitCoilName": "Body",
      "VariableFlipAngleFlag": "N",
      "WindowCenterWidthExplanation": "Algo1",
      "dBdt": 0.0},
    "slices": {}
  },
  "time": {
    "samples": {
      "AcquisitionNumber": [1, 2, 3, 4, 5, 6, 7, 8, 9, 10, 11, 12, 13, 14, 15, 16, 17, 18, 19, 20, 21, 22, 23, 24, 25, 26, 27, 28, 29, 30, 31, 32, 33, 34, 35, 36, 37, 38, 39, 40, 41, 42, 43, 44, 45, 46, 47, 48, 49, 50, 51, 52, 53, 54, 55, 56, 57, 58, 59, 60, 61, 62, 63, 64, 65, 66, 67, 68, 69, 70, 71, 72, 73, 74, 75, 76, 77, 78, 79, 80, 81, 82, 83, 84, 85, 86, 87, 88, 89, 90, 91, 92, 93, 94, 95, 96, 97, 98, 99, 100, 101, 102, 103, 104, 105, 106, 107, 108, 109, 110, 111, 112, 113, 114, 115, 116, 117, 118, 119, 120, 121, 122, 123, 124, 125, 126, 127, 128, 129, 130, 131, 132, 133, 134, 135, 136, 137, 138, 139, 140, 141, 142, 143, 144, 145, 146, 147, 148, 149, 150, 151, 152, 153, 154, 155, 156, 157, 158, 159, 160, 161, 162, 163, 164, 165, 166, 167, 168, 169, 170, 171, 172, 173, 174, 175, 176, 177, 178, 179, 180, 181, 182, 183, 184, 185, 186, 187, 188, 189, 190, 191, 192, 193, 194, 195, 196, 197, 198, 199, 200, 201, 202, 203, 204, 205, 206, 207, 208, 209, 210, 211, 212, 213, 214, 215, 216, 217, 218, 219, 220, 221, 222, 223, 224, 225, 226, 227, 228, 229, 230, 231, 232],
      "AcquisitionTime": ["115135.352500", "115137.352500", "115139.352500", "115141.352500", "115143.352500", "115145.352500", "115147.352500", "115149.352500", "115151.352500", "115153.352500", "115155.352500", "115157.352500", "115159.352500", "115201.352500", "115203.352500", "115205.352500", "115207.352500", "115209.352500", "115211.352500", "115213.352500", "115215.352500", "115217.352500", "115219.352500", "115221.352500", "115223.352500", "115225.352500", "115227.352500", "115229.352500", "115231.352500", "115233.352500", "115235.352500", "115237.352500", "115239.352500", "115241.352500", "115243.352500", "115245.352500", "115247.352500", "115249.352500", "115251.352500", "115253.352500", "115255.352500", "115257.352500", "115259.352500", "115301.352500", "115303.352500", "115305.352500", "115307.352500", "115309.352500", "115311.352500", "115313.352500", "115315.352500", "115317.352500", "115319.352500", "115321.352500", "115323.352500", "115325.352500", "115327.352500", "115329.352500", "115331.352500", "115333.352500", "115335.352500", "115337.352500", "115339.352500", "115341.352500", "115343.352500", "115345.352500", "115347.352500", "115349.352500", "115351.352500", "115353.352500", "115355.352500", "115357.352500", "115359.352500", "115401.352500", "115403.352500", "115405.352500", "115407.352500", "115409.352500", "115411.352500", "115413.352500", "115415.352500", "115417.352500", "115419.352500", "115421.352500", "115423.352500", "115425.352500", "115427.352500", "115429.352500", "115431.352500", "115433.352500", "115435.352500", "115437.352500", "115439.352500", "115441.352500", "115443.352500", "115445.352500", "115447.352500", "115449.352500", "115451.352500", "115453.352500", "115455.352500", "115457.352500", "115459.352500", "115501.352500", "115503.352500", "115505.352500", "115507.352500", "115509.352500", "115511.352500", "115513.352500", "115515.352500", "115517.352500", "115519.352500", "115521.352500", "115523.352500", "115525.352500", "115527.352500", "115529.352500", "115531.352500", "115533.352500", "115535.352500", "115537.352500", "115539.352500", "115541.352500", "115543.352500", "115545.352500", "115547.352500", "115549.352500", "115551.352500", "115553.352500", "115555.352500", "115557.352500", "115559.352500", "115601.352500", "115603.352500", "115605.352500", "115607.352500", "115609.352500", "115611.352500", "115613.352500", "115615.352500", "115617.352500", "115619.352500", "115621.352500", "115623.352500", "115625.352500", "115627.352500", "115629.352500", "115631.352500", "115633.352500", "115635.352500", "115637.352500", "115639.352500", "115641.352500", "115643.352500", "115645.352500", "115647.352500", "115649.352500", "115651.352500", "115653.352500", "115655.352500", "115657.352500", "115659.352500", "115701.352500", "115703.352500", "115705.352500", "115707.352500", "115709.352500", "115711.352500", "115713.352500", "115715.352500", "115717.352500", "115719.352500", "115721.352500", "115723.352500", "115725.352500", "115727.352500", "115729.352500", "115731.352500", "115733.352500", "115735.352500", "115737.352500", "115739.352500", "115741.352500", "115743.352500", "115745.352500", "115747.352500", "115749.352500", "115751.352500", "115753.352500", "115755.352500", "115757.352500", "115759.352500", "115801.352500", "115803.352500", "115805.352500", "115807.352500", "115809.352500", "115811.352500", "115813.352500", "115815.352500", "115817.352500", "115819.352500", "115821.352500", "115823.352500", "115825.352500", "115827.352500", "115829.352500", "115831.352500", "115833.352500", "115835.352500", "115837.352500", "115839.352500", "115841.352500", "115843.352500", "115845.352500", "115847.352500", "115849.352500", "115851.352500", "115853.352500", "115855.352500", "115857.352500", "115859.352500", "115901.352500", "115903.352500", "115905.352500", "115907.352500", "115909.352500", "115911.352500", "115913.352500", "115915.352500", "115917.352500"],
      "ContentTime": ["115137.485000", "115138.981000", "115140.980000", "115142.980000", "115144.981000", "115146.981000", "115148.981000", "115150.980000", "115152.980000", "115154.981000", "115156.981000", "115158.980000", "115200.981000", "115202.982000", "115204.981000", "115206.981000", "115208.981000", "115210.980000", "115212.980000", "115214.981000", "115216.981000", "115218.981000", "115220.981000", "115222.981000", "115224.981000", "115226.980000", "115228.980000", "115230.980000", "115232.980000", "115234.980000", "115236.980000", "115238.982000", "115240.981000", "115242.980000", "115244.980000", "115246.980000", "115248.981000", "115250.981000", "115252.980000", "115254.982000", "115256.981000", "115258.981000", "115300.980000", "115302.980000", "115304.980000", "115306.980000", "115308.980000", "115310.980000", "115312.981000", "115314.981000", "115316.981000", "115318.980000", "115320.980000", "115322.981000", "115324.980000", "115326.980000", "115328.980000", "115330.981000", "115332.981000", "115334.981000", "115336.980000", "115338.980000", "115340.980000", "115342.980000", "115344.981000", "115346.980000", "115348.981000", "115350.981000", "115352.980000", "115354.980000", "115356.980000", "115358.980000", "115400.980000", "115402.981000", "115404.981000", "115406.981000", "115408.981000", "115410.980000", "115412.981000", "115414.980000", "115416.980000", "115418.980000", "115420.980000", "115422.982000", "115424.981000", "115426.981000", "115428.980000", "115430.980000", "115432.981000", "115434.981000", "115436.980000", "115438.980000", "115440.981000", "115442.981000", "115444.981000", "115446.980000", "115448.980000", "115450.980000", "115452.981000", "115454.980000", "115456.981000", "115458.981000", "115500.981000", "115502.980000", "115504.980000", "115506.981000", "115508.981000", "115510.980000", "115512.980000", "115514.981000", "115516.981000", "115518.981000", "115520.981000", "115522.980000", "115524.980000", "115526.980000", "115528.980000", "115530.980000", "115532.981000", "115534.981000", "115536.982000", "115538.980000", "115540.980000", "115542.980000", "115544.980000", "115546.981000", "115548.980000", "115550.982000", "115552.981000", "115554.981000", "115556.980000", "115558.980000", "115600.981000", "115602.980000", "115604.980000", "115606.981000", "115608.981000", "115610.981000", "115612.980000", "115614.981000", "115616.980000", "115618.980000", "115620.980000", "115622.980000", "115624.981000", "115626.981000", "115628.982000", "115630.980000", "115632.980000", "115634.980000", "115636.980000", "115638.981000", "115640.980000", "115642.982000", "115644.981000", "115646.981000", "115648.980000", "115650.981000", "115652.980000", "115654.981000", "115656.980000", "115658.980000", "115700.981000", "115702.981000", "115704.981000", "115706.980000", "115708.981000", "115710.981000", "115712.980000", "115714.980000", "115716.982000", "115718.981000", "115720.981000", "115722.981000", "115724.981000", "115726.980000", "115728.980000", "115730.981000", "115732.980000", "115734.981000", "115736.982000", "115738.982000", "115740.981000", "115742.980000", "115744.980000", "115746.980000", "115748.980000", "115750.996000", "115752.982000", "115754.981000", "115756.981000", "115758.980000", "115800.981000", "115802.980000", "115804.980000", "115806.981000", "115808.981000", "115810.981000", "115812.981000", "115814.981000", "115816.981000", "115818.981000", "115820.981000", "115822.980000", "115824.980000", "115826.981000", "115828.981000", "115830.981000", "115832.980000", "115834.980000", "115836.981000", "115838.981000", "115840.981000", "115842.980000", "115844.981000", "115846.981000", "115848.982000", "115850.980000", "115852.980000", "115854.981000", "115856.981000", "115858.980000", "115900.980000", "115902.982000", "115904.981000", "115906.981000", "115908.980000", "115910.980000", "115912.980000", "115914.980000", "115916.981000", "115918.792000"],
      "InstanceCreationTime": ["115137.485000", "115138.981000", "115140.980000", "115142.980000", "115144.981000", "115146.981000", "115148.981000", "115150.980000", "115152.980000", "115154.981000", "115156.981000", "115158.980000", "115200.981000", "115202.982000", "115204.981000", "115206.981000", "115208.981000", "115210.980000", "115212.980000", "115214.981000", "115216.981000", "115218.981000", "115220.981000", "115222.981000", "115224.981000", "115226.980000", "115228.980000", "115230.980000", "115232.980000", "115234.980000", "115236.980000", "115238.982000", "115240.981000", "115242.980000", "115244.980000", "115246.980000", "115248.981000", "115250.981000", "115252.980000", "115254.982000", "115256.981000", "115258.981000", "115300.980000", "115302.980000", "115304.980000", "115306.980000", "115308.980000", "115310.980000", "115312.981000", "115314.981000", "115316.981000", "115318.980000", "115320.980000", "115322.981000", "115324.980000", "115326.980000", "115328.980000", "115330.981000", "115332.981000", "115334.981000", "115336.980000", "115338.980000", "115340.980000", "115342.980000", "115344.981000", "115346.980000", "115348.981000", "115350.981000", "115352.980000", "115354.980000", "115356.980000", "115358.980000", "115400.980000", "115402.981000", "115404.981000", "115406.981000", "115408.981000", "115410.980000", "115412.981000", "115414.980000", "115416.980000", "115418.980000", "115420.980000", "115422.982000", "115424.981000", "115426.981000", "115428.980000", "115430.980000", "115432.981000", "115434.981000", "115436.980000", "115438.980000", "115440.981000", "115442.981000", "115444.981000", "115446.980000", "115448.980000", "115450.980000", "115452.981000", "115454.980000", "115456.981000", "115458.981000", "115500.981000", "115502.980000", "115504.980000", "115506.981000", "115508.981000", "115510.980000", "115512.980000", "115514.981000", "115516.981000", "115518.981000", "115520.981000", "115522.980000", "115524.980000", "115526.980000", "115528.980000", "115530.980000", "115532.981000", "115534.981000", "115536.982000", "115538.980000", "115540.980000", "115542.980000", "115544.980000", "115546.981000", "115548.980000", "115550.982000", "115552.981000", "115554.981000", "115556.980000", "115558.980000", "115600.981000", "115602.980000", "115604.980000", "115606.981000", "115608.981000", "115610.981000", "115612.980000", "115614.981000", "115616.980000", "115618.980000", "115620.980000", "115622.980000", "115624.981000", "115626.981000", "115628.982000", "115630.980000", "115632.980000", "115634.980000", "115636.980000", "115638.981000", "115640.980000", "115642.982000", "115644.981000", "115646.981000", "115648.980000", "115650.981000", "115652.980000", "115654.981000", "115656.980000", "115658.980000", "115700.981000", "115702.981000", "115704.981000", "115706.980000", "115708.981000", "115710.981000", "115712.980000", "115714.980000", "115716.982000", "115718.981000", "115720.981000", "115722.981000", "115724.981000", "115726.980000", "115728.980000", "115730.981000", "115732.980000", "115734.981000", "115736.982000", "115738.982000", "115740.981000", "115742.980000", "115744.980000", "115746.980000", "115748.980000", "115750.996000", "115752.982000", "115754.981000", "115756.981000", "115758.980000", "115800.981000", "115802.980000", "115804.980000", "115806.981000", "115808.981000", "115810.981000", "115812.981000", "115814.981000", "115816.981000", "115818.981000", "115820.981000", "115822.980000", "115824.980000", "115826.981000", "115828.981000", "115830.981000", "115832.980000", "115834.980000", "115836.981000", "115838.981000", "115840.981000", "115842.980000", "115844.981000", "115846.981000", "115848.982000", "115850.980000", "115852.980000", "115854.981000", "115856.981000", "115858.980000", "115900.980000", "115902.982000", "115904.981000", "115906.981000", "115908.980000", "115910.980000", "115912.980000", "115914.980000", "115916.981000", "115918.792000"],
      "InstanceNumber": [1, 2, 3, 4, 5, 6, 7, 8, 9, 10, 11, 12, 13, 14, 15, 16, 17, 18, 19, 20, 21, 22, 23, 24, 25, 26, 27, 28, 29, 30, 31, 32, 33, 34, 35, 36, 37, 38, 39, 40, 41, 42, 43, 44, 45, 46, 47, 48, 49, 50, 51, 52, 53, 54, 55, 56, 57, 58, 59, 60, 61, 62, 63, 64, 65, 66, 67, 68, 69, 70, 71, 72, 73, 74, 75, 76, 77, 78, 79, 80, 81, 82, 83, 84, 85, 86, 87, 88, 89, 90, 91, 92, 93, 94, 95, 96, 97, 98, 99, 100, 101, 102, 103, 104, 105, 106, 107, 108, 109, 110, 111, 112, 113, 114, 115, 116, 117, 118, 119, 120, 121, 122, 123, 124, 125, 126, 127, 128, 129, 130, 131, 132, 133, 134, 135, 136, 137, 138, 139, 140, 141, 142, 143, 144, 145, 146, 147, 148, 149, 150, 151, 152, 153, 154, 155, 156, 157, 158, 159, 160, 161, 162, 163, 164, 165, 166, 167, 168, 169, 170, 171, 172, 173, 174, 175, 176, 177, 178, 179, 180, 181, 182, 183, 184, 185, 186, 187, 188, 189, 190, 191, 192, 193, 194, 195, 196, 197, 198, 199, 200, 201, 202, 203, 204, 205, 206, 207, 208, 209, 210, 211, 212, 213, 214, 215, 216, 217, 218, 219, 220, 221, 222, 223, 224, 225, 226, 227, 228, 229, 230, 231, 232],
      "LargestImagePixelValue": [3343, 3407, 3449, 3433, 3555, 3598, 3591, 3693, 3755, 3674, 3690, 3618, 3643, 3669, 3690, 3725, 3675, 3711, 3688, 3656, 3687, 3627, 3603, 3572, 3609, 3508, 3582, 3548, 3419, 3382, 3369, 3376, 3321, 3331, 3137, 3122, 3256, 3315, 3329, 3225, 3137, 3158, 3097, 3103, 3304, 3375, 3352, 3364, 3448, 3497, 3546, 3526, 3440, 3314, 3303, 3337, 3284, 3308, 3309, 3343, 3360, 3415, 3343, 3461, 3451, 3387, 3326, 3261, 3258, 3346, 3271, 3357, 3180, 3165, 3298, 3333, 3349, 3467, 3459, 3457, 3362, 3317, 3320, 3380, 3388, 3401, 3335, 3278, 3663, 3437, 3402, 3238, 3203, 3216, 3220, 3218, 3142, 3026, 3238, 3385, 3212, 3167, 3273, 3170, 3143, 3218, 3272, 3330, 3391, 3188, 3356, 3302, 3290, 3484, 3282, 3322, 3360, 3380, 3377, 3410, 3445, 3413, 3504, 3519, 3490, 3392, 3416, 3431, 3345, 3450, 3410, 3198, 3331, 3509, 3466, 3451, 3249, 3295, 3111, 3153, 3524, 3121, 3070, 3104, 3074, 3587, 3364, 3684, 3244, 3325, 3309, 3399, 3375, 3408, 3480, 3487, 3411, 3380, 3329, 3490, 3608, 3362, 3281, 3316, 3305, 3195, 3188, 3200, 3212, 3328, 3480, 3428, 3452, 3510, 3467, 3486, 3439, 3464, 3359, 3264, 3285, 3227, 3413, 3336, 3313, 3281, 3108, 3097, 3138, 3103, 3136, 3126, 3217, 3157, 3296, 3249, 3213, 3177, 3290, 3297, 3285, 3150, 3032, 3142, 3295, 3211, 3163, 3169, 3083, 3033, 3170, 3302, 3329, 3334, 3338, 3414, 3354, 3360, 3471, 3441, 3480, 3558, 3506, 3431, 3444, 3564, 3491, 3558, 3525, 3474, 3514, 3394],
      "WindowCenter": [801.0, 800.0, 801.0, 801.0, 802.0, 802.0, 801.0, 802.0, 803.0, 803.0, 804.0, 803.0, 803.0, 803.0, 804.0, 803.0, 803.0, 803.0, 803.0, 803.0, 803.0, 804.0, 804.0, 804.0, 803.0, 799.0, 804.0, 801.0, 799.0, 800.0, 801.0, 800.0, 799.0, 799.0, 798.0, 798.0, 800.0, 800.0, 801.0, 801.0, 800.0, 799.0, 799.0, 799.0, 801.0, 801.0, 802.0, 801.0, 802.0, 802.0, 802.0, 802.0, 802.0, 801.0, 801.0, 801.0, 802.0, 802.0, 802.0, 802.0, 803.0, 803.0, 802.0, 804.0, 804.0, 803.0, 803.0, 802.0, 801.0, 802.0, 801.0, 802.0, 799.0, 798.0, 800.0, 800.0, 801.0, 801.0, 801.0, 802.0, 801.0, 802.0, 802.0, 802.0, 802.0, 802.0, 802.0, 801.0, 801.0, 803.0, 801.0, 801.0, 801.0, 801.0, 801.0, 801.0, 799.0, 797.0, 797.0, 797.0, 796.0, 796.0, 797.0, 795.0, 794.0, 797.0, 798.0, 800.0, 801.0, 800.0, 802.0, 801.0, 800.0, 803.0, 802.0, 801.0, 800.0, 801.0, 801.0, 801.0, 800.0, 800.0, 801.0, 801.0, 801.0, 800.0, 800.0, 800.0, 799.0, 801.0, 800.0, 794.0, 799.0, 800.0, 801.0, 800.0, 798.0, 798.0, 797.0, 799.0, 803.0, 801.0, 800.0, 800.0, 800.0, 803.0, 802.0, 803.0, 799.0, 800.0, 800.0, 800.0, 800.0, 800.0, 800.0, 799.0, 799.0, 798.0, 797.0, 799.0, 800.0, 799.0, 798.0, 799.0, 799.0, 797.0, 797.0, 797.0, 797.0, 797.0, 798.0, 798.0, 799.0, 801.0, 801.0, 801.0, 801.0, 801.0, 801.0, 800.0, 799.0, 799.0, 801.0, 800.0, 801.0, 802.0, 801.0, 800.0, 801.0, 800.0, 800.0, 799.0, 800.0, 798.0, 802.0, 801.0, 800.0, 800.0, 801.0, 801.0, 801.0, 800.0, 796.0, 798.0, 800.0, 799.0, 797.0, 797.0, 796.0, 796.0, 798.0, 800.0, 801.0, 801.0, 802.0, 803.0, 803.0, 803.0, 804.0, 804.0, 804.0, 806.0, 805.0, 804.0, 804.0, 803.0, 801.0, 802.0, 802.0, 802.0, 802.0, 802.0],
      "WindowWidth": [1724.0, 1721.0, 1724.0, 1724.0, 1725.0, 1725.0, 1725.0, 1727.0, 1729.0, 1729.0, 1731.0, 1728.0, 1730.0, 1730.0, 1731.0, 1730.0, 1729.0, 1729.0, 1729.0, 1729.0, 1730.0, 1732.0, 1733.0, 1732.0, 1730.0, 1719.0, 1731.0, 1724.0, 1719.0, 1720.0, 1723.0, 1721.0, 1719.0, 1719.0, 1716.0, 1716.0, 1720.0, 1722.0, 1724.0, 1722.0, 1720.0, 1718.0, 1717.0, 1717.0, 1722.0, 1724.0, 1724.0, 1723.0, 1727.0, 1726.0, 1727.0, 1727.0, 1726.0, 1723.0, 1724.0, 1725.0, 1725.0, 1725.0, 1726.0, 1726.0, 1727.0, 1729.0, 1727.0, 1730.0, 1730.0, 1727.0, 1727.0, 1725.0, 1724.0, 1726.0, 1724.0, 1724.0, 1717.0, 1714.0, 1720.0, 1721.0, 1722.0, 1724.0, 1724.0, 1725.0, 1724.0, 1725.0, 1725.0, 1726.0, 1727.0, 1726.0, 1725.0, 1722.0, 1723.0, 1728.0, 1725.0, 1722.0, 1723.0, 1724.0, 1724.0, 1722.0, 1718.0, 1711.0, 1712.0, 1713.0, 1710.0, 1708.0, 1712.0, 1706.0, 1704.0, 1712.0, 1716.0, 1720.0, 1722.0, 1718.0, 1725.0, 1724.0, 1720.0, 1728.0, 1724.0, 1723.0, 1721.0, 1721.0, 1721.0, 1722.0, 1721.0, 1720.0, 1723.0, 1724.0, 1723.0, 1721.0, 1721.0, 1720.0, 1718.0, 1721.0, 1720.0, 1704.0, 1716.0, 1719.0, 1721.0, 1719.0, 1714.0, 1714.0, 1712.0, 1716.0, 1728.0, 1721.0, 1720.0, 1721.0, 1721.0, 1730.0, 1725.0, 1729.0, 1719.0, 1720.0, 1720.0, 1720.0, 1719.0, 1720.0, 1721.0, 1718.0, 1716.0, 1713.0, 1712.0, 1718.0, 1721.0, 1715.0, 1715.0, 1717.0, 1717.0, 1712.0, 1710.0, 1711.0, 1711.0, 1711.0, 1715.0, 1715.0, 1719.0, 1722.0, 1723.0, 1724.0, 1723.0, 1724.0, 1722.0, 1719.0, 1718.0, 1717.0, 1722.0, 1721.0, 1723.0, 1724.0, 1720.0, 1719.0, 1721.0, 1718.0, 1718.0, 1716.0, 1720.0, 1715.0, 1725.0, 1722.0, 1720.0, 1718.0, 1721.0, 1721.0, 1722.0, 1718.0, 1708.0, 1714.0, 1719.0, 1717.0, 1711.0, 1711.0, 1709.0, 1708.0, 1714.0, 1720.0, 1722.0, 1722.0, 1725.0, 1728.0, 1728.0, 1728.0, 1730.0, 1730.0, 1731.0, 1735.0, 1734.0, 1730.0, 1729.0, 1727.0, 1723.0, 1726.0, 1725.0, 1725.0, 1725.0, 1725.0]
    },
    "slices": {}
  }
}