{
  "AcquisitionMatrixPE": 100,
  "AcquisitionNumber": 1,
  "AcquisitionTime": "12:24:50.147500",
  "BandwidthPerPixelPhaseEncode": 18.519,
  "BaseResolution": 100,
  "BodyPartExamined": "BRAIN",
  "ConsistencyInfo": "N4_VE11C_LATEST_20160120",
  "ConversionSoftware": "dcm2niix",
  "ConversionSoftwareVersion": "v1.0.20180622 GCC4.9.2",
  "DerivedVendorReportedEchoSpacing": 0.000539986,
  "DeviceSerialNumber": "166078",
  "DwellTime": 2.1e-06,
  "EchoTime": 0.034,
  "EchoTrainLength": 100,
  "EffectiveEchoSpacing": 0.000539986,
  "FlipAngle": 90,
  "ImageOrientationPatientDICOM": [0.999847, 0.0130156, -0.0116449, -0.0139614, 0.996265, -0.0852133],
  "ImageType": [
    "ORIGINAL",
    "PRIMARY",
    "M",
    "ND",
    "MOSAIC"
],
  "InPlanePhaseEncodingDirectionDICOM": "COL",
  "InstitutionAddress": "Street_StreetNo_Bei_Jing_District_CN_ZIP",
  "InstitutionName": "BeiJing_Normal_University",
  "InstitutionalDepartmentName": "Department",
  "MRAcquisitionType": "2D",
  "MagneticFieldStrength": 3,
  "Manufacturer": "Siemens",
  "ManufacturersModelName": "Prisma",
  "Modality": "MR",
  "MultibandAccelerationFactor": 3,
  "PartialFourier": 1,
  "PatientPosition": "HFS",
  "PercentPhaseFOV": 100,
  "PhaseEncodingDirection": "j-",
  "PhaseEncodingSteps": 100,
  "PhaseResolution": 1,
  "PixelBandwidth": 2380,
  "ProcedureStepDescription": "BNU_P2018_64CH_Liu.Jia",
  "ProtocolName": "bold_100x100_s3_2x2x2_232",
  "PulseSequenceDetails": "%SiemensSeq%_ep2d_bold",
  "ReceiveCoilActiveElements": "HC1-7;NC1",
  "ReceiveCoilName": "HeadNeck_64",
  "ReconMatrixPE": 100,
  "RepetitionTime": 2,
  "SAR": 0.0603948,
  "ScanOptions": "FS",
  "ScanningSequence": "EP",
  "SequenceName": "_epfid2d1_100",
  "SequenceVariant": "SK",
  "SeriesDescription": "bold_100x100_s3_2x2x2_232",
  "SeriesNumber": 11,
  "ShimSetting": [-5449, -11512, -1286, 377, 0, -256, -193, 20],
  "SliceThickness": 2,
  "SliceTiming": [1.485, 0, 0.99, 0.0825, 1.0725, 0.165, 1.155, 0.2475, 1.2375, 0.33, 1.32, 0.4125, 1.4025, 0.5775, 1.5675, 0.66, 1.65, 0.7425, 1.7325, 0.825, 1.815, 0.9075, 1.8975, 0.495, 1.485, 0, 0.99, 0.0825, 1.0725, 0.165, 1.155, 0.2475, 1.2375, 0.33, 1.32, 0.4125, 1.4025, 0.5775, 1.5675, 0.66, 1.65, 0.7425, 1.7325, 0.825, 1.815, 0.9075, 1.8975, 0.495, 1.485, 0, 0.99, 0.0825, 1.0725, 0.165, 1.155, 0.2475, 1.2375, 0.33, 1.32, 0.4125, 1.4025, 0.5775, 1.5675, 0.66, 1.65, 0.7425, 1.7325, 0.825, 1.815, 0.9075, 1.8975, 0.495],
  "SoftwareVersions": "syngo_MR_E11",
  "SpacingBetweenSlices": 2,
  "StationName": "AWP166078",
  "TaskName": "motor",
  "TotalReadoutTime": 0.0534586,
  "TxRefAmp": 216.402,
  "dcmmeta_affine": [
    [-1.9996949434280396, -0.027922816574573517, -0.020984578877687454, 102.4595947265625],
    [-0.026031188666820526, 1.9925298690795898, -0.1707257330417633, -86.26018524169922],
    [-0.023289771750569344, 0.17042657732963562, 1.9925892353057861, -76.26697540283203],
    [0.0, 0.0, 0.0, 1.0]
],
  "dcmmeta_reorient_transform": [
    [0.0, -1.0, 0.0, 99.0],
    [1.0, 0.0, 0.0, 0.0],
    [0.0, 0.0, 1.0, 0.0],
    [0.0, 0.0, 0.0, 1.0]
],
  "dcmmeta_shape": [100, 100, 72, 232],
  "dcmmeta_slice_dim": 2,
  "dcmmeta_version": 0.6,
  "global": {
    "const": {
      "AcquisitionMatrix": [100, 0, 0, 100],
      "AngioFlag": "N",
      "BitsAllocated": 16,
      "BitsStored": 12,
      "BodyPartExamined": "BRAIN",
      "Columns": 900,
      "EchoNumbers": 1,
      "EchoTime": 34.0,
      "EchoTrainLength": 100,
      "FlipAngle": 90.0,
      "HighBit": 11,
      "ImageOrientationPatient": [0.9998474838385, 0.0130155943462, -0.0116448858144, -0.0139614082868, 0.9962649120062, -0.0852132864284],
      "ImagePositionPatient": [-888.40409259985, -918.42467175109, 18.091796241626],
      "ImageType": [
        "ORIGINAL",
        "PRIMARY",
        "M",
        "ND",
        "MOSAIC"
],
      "ImagedNucleus": "1H",
      "ImagingFrequency": 123.257849,
      "InPlanePhaseEncodingDirection": "COL",
      "MRAcquisitionType": "2D",
      "MagneticFieldStrength": 3.0,
      "Manufacturer": "SIEMENS",
      "ManufacturerModelName": "Prisma",
      "Modality": "MR",
      "NumberOfAverages": 1.0,
      "NumberOfPhaseEncodingSteps": 100,
      "PercentPhaseFieldOfView": 100.0,
      "PercentSampling": 100.0,
      "PerformedProcedureStepStartTime": "113148.864000",
      "PhotometricInterpretation": "MONOCHROME2",
      "PixelBandwidth": 2380.0,
      "PixelRepresentation": 0,
      "PixelSpacing": [2.0, 2.0],
      "ProtocolName": "bold_100x100_s3_2x2x2_232",
      "RepetitionTime": 2000.0,
      "Rows": 900,
      "SAR": 0.06039477159091,
      "SamplesPerPixel": 1,
      "ScanOptions": "FS",
      "ScanningSequence": "EP",
      "SequenceName": "*epfid2d1_100",
      "SequenceVariant": "SK",
      "SeriesDescription": "bold_100x100_s3_2x2x2_232",
      "SeriesNumber": 11,
      "SeriesTime": "122452.363000",
      "SliceLocation": -69.695997590627,
      "SliceThickness": 2.0,
      "SmallestImagePixelValue": 0,
      "SoftwareVersions": "syngo MR E11",
      "SpacingBetweenSlices": 1.9999999162786,
      "SpecificCharacterSet": "ISO_IR 100",
      "StudyID": "1",
      "StudyTime": "113148.776000",
      "TransmitCoilName": "Body",
      "VariableFlipAngleFlag": "N",
      "WindowCenterWidthExplanation": "Algo1",
      "dBdt": 0.0},
    "slices": {}
  },
  "time": {
    "samples": {
      "AcquisitionNumber": [1, 2, 3, 4, 5, 6, 7, 8, 9, 10, 11, 12, 13, 14, 15, 16, 17, 18, 19, 20, 21, 22, 23, 24, 25, 26, 27, 28, 29, 30, 31, 32, 33, 34, 35, 36, 37, 38, 39, 40, 41, 42, 43, 44, 45, 46, 47, 48, 49, 50, 51, 52, 53, 54, 55, 56, 57, 58, 59, 60, 61, 62, 63, 64, 65, 66, 67, 68, 69, 70, 71, 72, 73, 74, 75, 76, 77, 78, 79, 80, 81, 82, 83, 84, 85, 86, 87, 88, 89, 90, 91, 92, 93, 94, 95, 96, 97, 98, 99, 100, 101, 102, 103, 104, 105, 106, 107, 108, 109, 110, 111, 112, 113, 114, 115, 116, 117, 118, 119, 120, 121, 122, 123, 124, 125, 126, 127, 128, 129, 130, 131, 132, 133, 134, 135, 136, 137, 138, 139, 140, 141, 142, 143, 144, 145, 146, 147, 148, 149, 150, 151, 152, 153, 154, 155, 156, 157, 158, 159, 160, 161, 162, 163, 164, 165, 166, 167, 168, 169, 170, 171, 172, 173, 174, 175, 176, 177, 178, 179, 180, 181, 182, 183, 184, 185, 186, 187, 188, 189, 190, 191, 192, 193, 194, 195, 196, 197, 198, 199, 200, 201, 202, 203, 204, 205, 206, 207, 208, 209, 210, 211, 212, 213, 214, 215, 216, 217, 218, 219, 220, 221, 222, 223, 224, 225, 226, 227, 228, 229, 230, 231, 232],
      "AcquisitionTime": ["122450.147500", "122452.147500", "122454.147500", "122456.147500", "122458.147500", "122500.147500", "122502.147500", "122504.147500", "122506.147500", "122508.147500", "122510.147500", "122512.147500", "122514.147500", "122516.147500", "122518.147500", "122520.147500", "122522.147500", "122524.147500", "122526.147500", "122528.147500", "122530.147500", "122532.147500", "122534.147500", "122536.147500", "122538.147500", "122540.147500", "122542.147500", "122544.147500", "122546.147500", "122548.147500", "122550.147500", "122552.147500", "122554.147500", "122556.147500", "122558.147500", "122600.147500", "122602.147500", "122604.147500", "122606.147500", "122608.147500", "122610.147500", "122612.147500", "122614.147500", "122616.147500", "122618.147500", "122620.147500", "122622.147500", "122624.147500", "122626.147500", "122628.147500", "122630.147500", "122632.147500", "122634.147500", "122636.147500", "122638.147500", "122640.147500", "122642.147500", "122644.147500", "122646.147500", "122648.147500", "122650.147500", "122652.147500", "122654.147500", "122656.147500", "122658.147500", "122700.147500", "122702.147500", "122704.147500", "122706.147500", "122708.147500", "122710.147500", "122712.147500", "122714.147500", "122716.147500", "122718.147500", "122720.147500", "122722.147500", "122724.147500", "122726.147500", "122728.147500", "122730.147500", "122732.147500", "122734.147500", "122736.147500", "122738.147500", "122740.147500", "122742.147500", "122744.147500", "122746.147500", "122748.147500", "122750.147500", "122752.147500", "122754.147500", "122756.147500", "122758.147500", "122800.147500", "122802.147500", "122804.147500", "122806.147500", "122808.147500", "122810.147500", "122812.147500", "122814.147500", "122816.147500", "122818.147500", "122820.147500", "122822.147500", "122824.147500", "122826.147500", "122828.147500", "122830.147500", "122832.147500", "122834.147500", "122836.147500", "122838.147500", "122840.147500", "122842.147500", "122844.147500", "122846.147500", "122848.147500", "122850.147500", "122852.147500", "122854.147500", "122856.147500", "122858.147500", "122900.147500", "122902.147500", "122904.147500", "122906.147500", "122908.147500", "122910.147500", "122912.147500", "122914.147500", "122916.147500", "122918.147500", "122920.147500", "122922.147500", "122924.147500", "122926.147500", "122928.147500", "122930.147500", "122932.147500", "122934.147500", "122936.147500", "122938.147500", "122940.147500", "122942.147500", "122944.147500", "122946.147500", "122948.147500", "122950.147500", "122952.147500", "122954.147500", "122956.147500", "122958.147500", "123000.147500", "123002.147500", "123004.147500", "123006.147500", "123008.147500", "123010.147500", "123012.147500", "123014.147500", "123016.147500", "123018.147500", "123020.147500", "123022.147500", "123024.147500", "123026.147500", "123028.147500", "123030.147500", "123032.147500", "123034.147500", "123036.147500", "123038.147500", "123040.147500", "123042.147500", "123044.147500", "123046.147500", "123048.147500", "123050.147500", "123052.147500", "123054.147500", "123056.147500", "123058.147500", "123100.147500", "123102.147500", "123104.147500", "123106.147500", "123108.147500", "123110.147500", "123112.147500", "123114.147500", "123116.147500", "123118.147500", "123120.147500", "123122.147500", "123124.147500", "123126.147500", "123128.147500", "123130.147500", "123132.147500", "123134.147500", "123136.147500", "123138.147500", "123140.147500", "123142.147500", "123144.147500", "123146.147500", "123148.147500", "123150.147500", "123152.147500", "123154.147500", "123156.147500", "123158.147500", "123200.147500", "123202.147500", "123204.147500", "123206.147500", "123208.147500", "123210.147500", "123212.147500", "123214.147500", "123216.147500", "123218.147500", "123220.147500", "123222.147500", "123224.147500", "123226.147500", "123228.147500", "123230.147500", "123232.147500"],
      "ContentTime": ["122452.366000", "122453.863000", "122455.863000", "122457.863000", "122459.863000", "122501.863000", "122503.864000", "122505.862000", "122507.863000", "122509.863000", "122511.863000", "122513.863000", "122515.864000", "122517.863000", "122519.864000", "122521.862000", "122523.862000", "122525.862000", "122527.863000", "122529.864000", "122531.863000", "122533.864000", "122535.864000", "122537.864000", "122539.862000", "122541.862000", "122543.862000", "122545.863000", "122547.864000", "122549.863000", "122551.863000", "122553.863000", "122555.863000", "122557.862000", "122559.863000", "122601.863000", "122603.864000", "122605.864000", "122607.863000", "122609.863000", "122611.864000", "122613.864000", "122615.862000", "122617.862000", "122619.862000", "122621.863000", "122623.863000", "122625.864000", "122627.863000", "122629.863000", "122631.863000", "122633.862000", "122635.862000", "122637.862000", "122639.863000", "122641.863000", "122643.864000", "122645.864000", "122647.863000", "122649.862000", "122651.863000", "122653.862000", "122655.863000", "122657.863000", "122659.863000", "122701.863000", "122703.863000", "122705.864000", "122707.862000", "122709.863000", "122711.862000", "122713.864000", "122715.863000", "122717.864000", "122719.864000", "122721.864000", "122723.863000", "122725.862000", "122727.862000", "122729.863000", "122731.863000", "122733.863000", "122735.863000", "122737.864000", "122739.864000", "122741.863000", "122743.862000", "122745.863000", "122747.862000", "122749.864000", "122751.864000", "122753.863000", "122755.864000", "122757.863000", "122759.863000", "122801.863000", "122803.862000", "122805.863000", "122807.863000", "122809.864000", "122811.863000", "122813.864000", "122815.864000", "122817.863000", "122819.863000", "122821.863000", "122823.863000", "122825.863000", "122827.863000", "122829.863000", "122831.864000", "122833.863000", "122835.862000", "122837.862000", "122839.862000", "122841.864000", "122843.863000", "122845.863000", "122847.863000", "122849.864000", "122851.863000", "122853.863000", "122855.863000", "122857.863000", "122859.863000", "122901.863000", "122903.863000", "122905.863000", "122907.863000", "122909.863000", "122911.862000", "122913.862000", "122915.863000", "122917.863000", "122919.863000", "122921.864000", "122923.863000", "122925.863000", "122927.863000", "122929.863000", "122931.862000", "122933.863000", "122935.863000", "122937.863000", "122939.863000", "122941.863000", "122943.864000", "122945.863000", "122947.862000", "122949.862000", "122951.863000", "122953.863000", "122955.863000", "122957.863000", "122959.864000", "123001.862000", "123003.863000", "123005.862000", "123007.862000", "123009.864000", "123011.863000", "123013.863000", "123015.863000", "123017.863000", "123019.862000", "123021.863000", "123023.862000", "123025.863000", "123027.863000", "123029.864000", "123031.863000", "123033.864000", "123035.863000", "123037.863000", "123039.863000", "123041.862000", "123043.863000", "123045.864000", "123047.863000", "123049.863000", "123051.863000", "123053.864000", "123055.862000", "123057.863000", "123059.862000", "123101.864000", "123103.863000", "123105.863000", "123107.864000", "123109.864000", "123111.862000", "123113.862000", "123115.862000", "123117.864000", "123119.863000", "123121.864000", "123123.863000", "123125.863000", "123127.875000", "123129.862000", "123131.862000", "123133.862000", "123135.864000", "123137.863000", "123139.863000", "123141.863000", "123143.863000", "123145.864000", "123147.862000", "123149.863000", "123151.863000", "123153.863000", "123155.863000", "123157.863000", "123159.863000", "123201.864000", "123203.863000", "123205.863000", "123207.862000", "123209.862000", "123211.863000", "123213.864000", "123215.864000", "123217.863000", "123219.863000", "123221.862000", "123223.863000", "123225.863000", "123227.863000", "123229.863000", "123231.863000", "123233.446000"],
      "InstanceCreationTime": ["122452.366000", "122453.863000", "122455.863000", "122457.863000", "122459.863000", "122501.863000", "122503.864000", "122505.862000", "122507.863000", "122509.863000", "122511.863000", "122513.863000", "122515.864000", "122517.863000", "122519.864000", "122521.862000", "122523.862000", "122525.862000", "122527.863000", "122529.864000", "122531.863000", "122533.864000", "122535.864000", "122537.864000", "122539.862000", "122541.862000", "122543.862000", "122545.863000", "122547.864000", "122549.863000", "122551.863000", "122553.863000", "122555.863000", "122557.862000", "122559.863000", "122601.863000", "122603.864000", "122605.864000", "122607.863000", "122609.863000", "122611.864000", "122613.864000", "122615.862000", "122617.862000", "122619.862000", "122621.863000", "122623.863000", "122625.864000", "122627.863000", "122629.863000", "122631.863000", "122633.862000", "122635.862000", "122637.862000", "122639.863000", "122641.863000", "122643.864000", "122645.864000", "122647.863000", "122649.862000", "122651.863000", "122653.862000", "122655.863000", "122657.863000", "122659.863000", "122701.863000", "122703.863000", "122705.864000", "122707.862000", "122709.863000", "122711.862000", "122713.864000", "122715.863000", "122717.864000", "122719.864000", "122721.864000", "122723.863000", "122725.862000", "122727.862000", "122729.863000", "122731.863000", "122733.863000", "122735.863000", "122737.864000", "122739.864000", "122741.863000", "122743.862000", "122745.863000", "122747.862000", "122749.864000", "122751.864000", "122753.863000", "122755.864000", "122757.863000", "122759.863000", "122801.863000", "122803.862000", "122805.863000", "122807.863000", "122809.864000", "122811.863000", "122813.864000", "122815.864000", "122817.863000", "122819.863000", "122821.863000", "122823.863000", "122825.863000", "122827.863000", "122829.863000", "122831.864000", "122833.863000", "122835.862000", "122837.862000", "122839.862000", "122841.864000", "122843.863000", "122845.863000", "122847.863000", "122849.864000", "122851.863000", "122853.863000", "122855.863000", "122857.863000", "122859.863000", "122901.863000", "122903.863000", "122905.863000", "122907.863000", "122909.863000", "122911.862000", "122913.862000", "122915.863000", "122917.863000", "122919.863000", "122921.864000", "122923.863000", "122925.863000", "122927.863000", "122929.863000", "122931.862000", "122933.863000", "122935.863000", "122937.863000", "122939.863000", "122941.863000", "122943.864000", "122945.863000", "122947.862000", "122949.862000", "122951.863000", "122953.863000", "122955.863000", "122957.863000", "122959.864000", "123001.862000", "123003.863000", "123005.862000", "123007.862000", "123009.864000", "123011.863000", "123013.863000", "123015.863000", "123017.863000", "123019.862000", "123021.863000", "123023.862000", "123025.863000", "123027.863000", "123029.864000", "123031.863000", "123033.864000", "123035.863000", "123037.863000", "123039.863000", "123041.862000", "123043.863000", "123045.864000", "123047.863000", "123049.863000", "123051.863000", "123053.864000", "123055.862000", "123057.863000", "123059.862000", "123101.864000", "123103.863000", "123105.863000", "123107.864000", "123109.864000", "123111.862000", "123113.862000", "123115.862000", "123117.864000", "123119.863000", "123121.864000", "123123.863000", "123125.863000", "123127.875000", "123129.862000", "123131.862000", "123133.862000", "123135.864000", "123137.863000", "123139.863000", "123141.863000", "123143.863000", "123145.864000", "123147.862000", "123149.863000", "123151.863000", "123153.863000", "123155.863000", "123157.863000", "123159.863000", "123201.864000", "123203.863000", "123205.863000", "123207.862000", "123209.862000", "123211.863000", "123213.864000", "123215.864000", "123217.863000", "123219.863000", "123221.862000", "123223.863000", "123225.863000", "123227.863000", "123229.863000", "123231.863000", "123233.446000"],
      "InstanceNumber": [1, 2, 3, 4, 5, 6, 7, 8, 9, 10, 11, 12, 13, 14, 15, 16, 17, 18, 19, 20, 21, 22, 23, 24, 25, 26, 27, 28, 29, 30, 31, 32, 33, 34, 35, 36, 37, 38, 39, 40, 41, 42, 43, 44, 45, 46, 47, 48, 49, 50, 51, 52, 53, 54, 55, 56, 57, 58, 59, 60, 61, 62, 63, 64, 65, 66, 67, 68, 69, 70, 71, 72, 73, 74, 75, 76, 77, 78, 79, 80, 81, 82, 83, 84, 85, 86, 87, 88, 89, 90, 91, 92, 93, 94, 95, 96, 97, 98, 99, 100, 101, 102, 103, 104, 105, 106, 107, 108, 109, 110, 111, 112, 113, 114, 115, 116, 117, 118, 119, 120, 121, 122, 123, 124, 125, 126, 127, 128, 129, 130, 131, 132, 133, 134, 135, 136, 137, 138, 139, 140, 141, 142, 143, 144, 145, 146, 147, 148, 149, 150, 151, 152, 153, 154, 155, 156, 157, 158, 159, 160, 161, 162, 163, 164, 165, 166, 167, 168, 169, 170, 171, 172, 173, 174, 175, 176, 177, 178, 179, 180, 181, 182, 183, 184, 185, 186, 187, 188, 189, 190, 191, 192, 193, 194, 195, 196, 197, 198, 199, 200, 201, 202, 203, 204, 205, 206, 207, 208, 209, 210, 211, 212, 213, 214, 215, 216, 217, 218, 219, 220, 221, 222, 223, 224, 225, 226, 227, 228, 229, 230, 231, 232],
      "LargestImagePixelValue": [3164, 3054, 3127, 3093, 3116, 3045, 3098, 3108, 3092, 3075, 3063, 3096, 3062, 3066, 3063, 3017, 3088, 3014, 3000, 3031, 3010, 3002, 3049, 3037, 3032, 3067, 3037, 3019, 3045, 3062, 3053, 3106, 3075, 3145, 3118, 3044, 3083, 3020, 2958, 2961, 2898, 2916, 2964, 2962, 2962, 2956, 3042, 3020, 3011, 2958, 2959, 3040, 3007, 3057, 3057, 3022, 3053, 3057, 3069, 3074, 3105, 3113, 3118, 3063, 3050, 3040, 3048, 3068, 3083, 3085, 3105, 3066, 3136, 3135, 3120, 3114, 3134, 3110, 3072, 3106, 3086, 3049, 3099, 3119, 3032, 3051, 2993, 3043, 3000, 2972, 2993, 2980, 2958, 2971, 3027, 2997, 3086, 3065, 3031, 2976, 2882, 2967, 3018, 2836, 2890, 2897, 3012, 3036, 2959, 2946, 2892, 2987, 2978, 3067, 2994, 3045, 3048, 3109, 3108, 3141, 3086, 3088, 3014, 3026, 3046, 3013, 3106, 3090, 3066, 3172, 3075, 3102, 3115, 3088, 3019, 3089, 2964, 2989, 2975, 2937, 2876, 2874, 2912, 2880, 2885, 2994, 2975, 2997, 2974, 2950, 2984, 2938, 2926, 2949, 2956, 2968, 2953, 2952, 2999, 2972, 3014, 3015, 3022, 3023, 3023, 2998, 3017, 3032, 3006, 3022, 3019, 3074, 3042, 3059, 3046, 2975, 3003, 2952, 2965, 2984, 3024, 3037, 3047, 3024, 3090, 2950, 2886, 2903, 2901, 3082, 3075, 3015, 3172, 3098, 3097, 3094, 3114, 3136, 3039, 2949, 2983, 2996, 3007, 2985, 2992, 2986, 3047, 3018, 3033, 3055, 3044, 3026, 3017, 3051, 3035, 3042, 3030, 3005, 3058, 2952, 2956, 2867, 2868, 2910, 2900, 2898, 2937, 2856, 2902, 2870, 2864, 2844],
      "WindowCenter": [740.0, 737.0, 738.0, 737.0, 738.0, 737.0, 737.0, 737.0, 737.0, 737.0, 738.0, 739.0, 738.0, 737.0, 736.0, 735.0, 736.0, 736.0, 736.0, 737.0, 736.0, 736.0, 737.0, 736.0, 736.0, 737.0, 737.0, 737.0, 736.0, 736.0, 736.0, 736.0, 737.0, 737.0, 738.0, 737.0, 738.0, 736.0, 735.0, 734.0, 734.0, 735.0, 736.0, 737.0, 737.0, 737.0, 737.0, 736.0, 735.0, 735.0, 736.0, 736.0, 735.0, 736.0, 735.0, 734.0, 735.0, 735.0, 736.0, 736.0, 737.0, 737.0, 737.0, 735.0, 735.0, 735.0, 737.0, 737.0, 738.0, 738.0, 738.0, 737.0, 738.0, 737.0, 738.0, 738.0, 738.0, 737.0, 737.0, 737.0, 737.0, 737.0, 738.0, 737.0, 735.0, 735.0, 734.0, 735.0, 736.0, 736.0, 736.0, 736.0, 736.0, 736.0, 736.0, 736.0, 737.0, 737.0, 737.0, 735.0, 734.0, 734.0, 734.0, 732.0, 732.0, 735.0, 737.0, 738.0, 737.0, 737.0, 736.0, 736.0, 736.0, 737.0, 736.0, 737.0, 737.0, 737.0, 736.0, 737.0, 737.0, 737.0, 737.0, 737.0, 737.0, 737.0, 737.0, 737.0, 736.0, 738.0, 737.0, 736.0, 736.0, 736.0, 735.0, 736.0, 735.0, 736.0, 737.0, 736.0, 735.0, 734.0, 735.0, 735.0, 735.0, 737.0, 737.0, 737.0, 736.0, 735.0, 735.0, 734.0, 735.0, 735.0, 736.0, 736.0, 736.0, 736.0, 737.0, 737.0, 738.0, 737.0, 737.0, 737.0, 736.0, 735.0, 736.0, 737.0, 736.0, 737.0, 738.0, 738.0, 737.0, 737.0, 736.0, 735.0, 735.0, 736.0, 737.0, 738.0, 739.0, 739.0, 738.0, 736.0, 736.0, 735.0, 734.0, 734.0, 734.0, 736.0, 736.0, 736.0, 738.0, 736.0, 737.0, 735.0, 735.0, 734.0, 733.0, 730.0, 733.0, 735.0, 735.0, 736.0, 736.0, 735.0, 735.0, 735.0, 735.0, 736.0, 737.0, 736.0, 736.0, 737.0, 737.0, 737.0, 736.0, 737.0, 737.0, 736.0, 735.0, 733.0, 733.0, 733.0, 734.0, 734.0, 735.0, 735.0, 735.0, 734.0, 733.0, 733.0],
      "WindowWidth": [1596.0, 1589.0, 1589.0, 1588.0, 1590.0, 1587.0, 1588.0, 1587.0, 1587.0, 1588.0, 1591.0, 1592.0, 1590.0, 1589.0, 1585.0, 1584.0, 1585.0, 1585.0, 1586.0, 1587.0, 1587.0, 1586.0, 1587.0, 1587.0, 1586.0, 1587.0, 1589.0, 1588.0, 1586.0, 1585.0, 1585.0, 1586.0, 1587.0, 1588.0, 1591.0, 1589.0, 1591.0, 1586.0, 1584.0, 1581.0, 1580.0, 1583.0, 1586.0, 1588.0, 1588.0, 1587.0, 1588.0, 1585.0, 1583.0, 1583.0, 1584.0, 1586.0, 1583.0, 1585.0, 1582.0, 1581.0, 1582.0, 1582.0, 1585.0, 1584.0, 1587.0, 1588.0, 1587.0, 1583.0, 1583.0, 1583.0, 1587.0, 1588.0, 1589.0, 1591.0, 1591.0, 1589.0, 1590.0, 1589.0, 1591.0, 1589.0, 1589.0, 1587.0, 1587.0, 1588.0, 1588.0, 1588.0, 1590.0, 1587.0, 1583.0, 1582.0, 1579.0, 1582.0, 1585.0, 1586.0, 1586.0, 1585.0, 1585.0, 1585.0, 1586.0, 1587.0, 1589.0, 1588.0, 1588.0, 1584.0, 1580.0, 1579.0, 1579.0, 1575.0, 1576.0, 1582.0, 1588.0, 1591.0, 1588.0, 1587.0, 1585.0, 1585.0, 1584.0, 1586.0, 1586.0, 1587.0, 1587.0, 1587.0, 1585.0, 1587.0, 1586.0, 1587.0, 1588.0, 1589.0, 1589.0, 1588.0, 1588.0, 1586.0, 1586.0, 1589.0, 1587.0, 1586.0, 1585.0, 1584.0, 1584.0, 1585.0, 1582.0, 1585.0, 1587.0, 1587.0, 1583.0, 1581.0, 1582.0, 1582.0, 1583.0, 1587.0, 1587.0, 1587.0, 1586.0, 1582.0, 1582.0, 1581.0, 1581.0, 1583.0, 1585.0, 1584.0, 1586.0, 1587.0, 1589.0, 1588.0, 1590.0, 1589.0, 1589.0, 1587.0, 1585.0, 1584.0, 1585.0, 1587.0, 1585.0, 1587.0, 1589.0, 1591.0, 1588.0, 1586.0, 1584.0, 1582.0, 1583.0, 1584.0, 1588.0, 1590.0, 1592.0, 1593.0, 1590.0, 1585.0, 1585.0, 1582.0, 1581.0, 1580.0, 1580.0, 1585.0, 1585.0, 1585.0, 1589.0, 1586.0, 1586.0, 1582.0, 1582.0, 1579.0, 1578.0, 1570.0, 1576.0, 1581.0, 1583.0, 1584.0, 1584.0, 1583.0, 1583.0, 1583.0, 1583.0, 1584.0, 1587.0, 1586.0, 1585.0, 1587.0, 1587.0, 1586.0, 1586.0, 1588.0, 1588.0, 1586.0, 1583.0, 1578.0, 1577.0, 1578.0, 1579.0, 1579.0, 1582.0, 1581.0, 1581.0, 1579.0, 1578.0, 1576.0]
    },
    "slices": {}
  }
}