{
  "AcquisitionMatrixPE": 100,
  "AcquisitionNumber": 1,
  "AcquisitionTime": "12:16:9.780000",
  "BandwidthPerPixelPhaseEncode": 18.519,
  "BaseResolution": 100,
  "BodyPartExamined": "BRAIN",
  "ConsistencyInfo": "N4_VE11C_LATEST_20160120",
  "ConversionSoftware": "dcm2niix",
  "ConversionSoftwareVersion": "v1.0.20180622 GCC4.9.2",
  "DerivedVendorReportedEchoSpacing": 0.000539986,
  "DeviceSerialNumber": "166078",
  "DwellTime": 2.1e-06,
  "EchoTime": 0.034,
  "EchoTrainLength": 100,
  "EffectiveEchoSpacing": 0.000539986,
  "FlipAngle": 90,
  "ImageOrientationPatientDICOM": [0.999847, 0.0130156, -0.0116449, -0.0139614, 0.996265, -0.0852133],
  "ImageType": [
    "ORIGINAL",
    "PRIMARY",
    "M",
    "ND",
    "MOSAIC"
],
  "InPlanePhaseEncodingDirectionDICOM": "COL",
  "InstitutionAddress": "Street_StreetNo_Bei_Jing_District_CN_ZIP",
  "InstitutionName": "BeiJing_Normal_University",
  "InstitutionalDepartmentName": "Department",
  "MRAcquisitionType": "2D",
  "MagneticFieldStrength": 3,
  "Manufacturer": "Siemens",
  "ManufacturersModelName": "Prisma",
  "Modality": "MR",
  "MultibandAccelerationFactor": 3,
  "PartialFourier": 1,
  "PatientPosition": "HFS",
  "PercentPhaseFOV": 100,
  "PhaseEncodingDirection": "j-",
  "PhaseEncodingSteps": 100,
  "PhaseResolution": 1,
  "PixelBandwidth": 2380,
  "ProcedureStepDescription": "BNU_P2018_64CH_Liu.Jia",
  "ProtocolName": "bold_100x100_s3_2x2x2_232",
  "PulseSequenceDetails": "%SiemensSeq%_ep2d_bold",
  "ReceiveCoilActiveElements": "HC1-7;NC1",
  "ReceiveCoilName": "HeadNeck_64",
  "ReconMatrixPE": 100,
  "RepetitionTime": 2,
  "SAR": 0.0603948,
  "ScanOptions": "FS",
  "ScanningSequence": "EP",
  "SequenceName": "_epfid2d1_100",
  "SequenceVariant": "SK",
  "SeriesDescription": "bold_100x100_s3_2x2x2_232",
  "SeriesNumber": 10,
  "ShimSetting": [-5449, -11512, -1286, 377, 0, -256, -193, 20],
  "SliceThickness": 2,
  "SliceTiming": [1.485, 0, 0.99, 0.0825, 1.0725, 0.165, 1.155, 0.2475, 1.2375, 0.33, 1.32, 0.4125, 1.4025, 0.5775, 1.5675, 0.66, 1.65, 0.7425, 1.7325, 0.825, 1.815, 0.9075, 1.8975, 0.495, 1.485, 0, 0.99, 0.0825, 1.0725, 0.165, 1.155, 0.2475, 1.2375, 0.33, 1.32, 0.4125, 1.4025, 0.5775, 1.5675, 0.66, 1.65, 0.7425, 1.7325, 0.825, 1.815, 0.9075, 1.8975, 0.495, 1.485, 0, 0.99, 0.0825, 1.0725, 0.165, 1.155, 0.2475, 1.2375, 0.33, 1.32, 0.4125, 1.4025, 0.5775, 1.5675, 0.66, 1.65, 0.7425, 1.7325, 0.825, 1.815, 0.9075, 1.8975, 0.495],
  "SoftwareVersions": "syngo_MR_E11",
  "SpacingBetweenSlices": 2,
  "StationName": "AWP166078",
  "TaskName": "motor",
  "TotalReadoutTime": 0.0534586,
  "TxRefAmp": 216.402,
  "dcmmeta_affine": [
    [-1.9996949434280396, -0.027922816574573517, -0.020984578877687454, 102.4595947265625],
    [-0.026031188666820526, 1.9925298690795898, -0.1707257330417633, -86.26018524169922],
    [-0.023289771750569344, 0.17042657732963562, 1.9925892353057861, -76.26697540283203],
    [0.0, 0.0, 0.0, 1.0]
],
  "dcmmeta_reorient_transform": [
    [0.0, -1.0, 0.0, 99.0],
    [1.0, 0.0, 0.0, 0.0],
    [0.0, 0.0, 1.0, 0.0],
    [0.0, 0.0, 0.0, 1.0]
],
  "dcmmeta_shape": [100, 100, 72, 232],
  "dcmmeta_slice_dim": 2,
  "dcmmeta_version": 0.6,
  "global": {
    "const": {
      "AcquisitionMatrix": [100, 0, 0, 100],
      "AngioFlag": "N",
      "BitsAllocated": 16,
      "BitsStored": 12,
      "BodyPartExamined": "BRAIN",
      "Columns": 900,
      "EchoNumbers": 1,
      "EchoTime": 34.0,
      "EchoTrainLength": 100,
      "FlipAngle": 90.0,
      "HighBit": 11,
      "ImageOrientationPatient": [0.9998474838385, 0.0130155943462, -0.0116448858144, -0.0139614082868, 0.9962649120062, -0.0852132864284],
      "ImagePositionPatient": [-888.40409259985, -918.42467175109, 18.091796241626],
      "ImageType": [
        "ORIGINAL",
        "PRIMARY",
        "M",
        "ND",
        "MOSAIC"
],
      "ImagedNucleus": "1H",
      "ImagingFrequency": 123.257847,
      "InPlanePhaseEncodingDirection": "COL",
      "MRAcquisitionType": "2D",
      "MagneticFieldStrength": 3.0,
      "Manufacturer": "SIEMENS",
      "ManufacturerModelName": "Prisma",
      "Modality": "MR",
      "NumberOfAverages": 1.0,
      "NumberOfPhaseEncodingSteps": 100,
      "PercentPhaseFieldOfView": 100.0,
      "PercentSampling": 100.0,
      "PerformedProcedureStepStartTime": "113148.864000",
      "PhotometricInterpretation": "MONOCHROME2",
      "PixelBandwidth": 2380.0,
      "PixelRepresentation": 0,
      "PixelSpacing": [2.0, 2.0],
      "ProtocolName": "bold_100x100_s3_2x2x2_232",
      "RepetitionTime": 2000.0,
      "Rows": 900,
      "SAR": 0.06039477159091,
      "SamplesPerPixel": 1,
      "ScanOptions": "FS",
      "ScanningSequence": "EP",
      "SequenceName": "*epfid2d1_100",
      "SequenceVariant": "SK",
      "SeriesDescription": "bold_100x100_s3_2x2x2_232",
      "SeriesNumber": 10,
      "SeriesTime": "121611.826000",
      "SliceLocation": -69.695997590627,
      "SliceThickness": 2.0,
      "SmallestImagePixelValue": 0,
      "SoftwareVersions": "syngo MR E11",
      "SpacingBetweenSlices": 1.9999999162786,
      "SpecificCharacterSet": "ISO_IR 100",
      "StudyID": "1",
      "StudyTime": "113148.776000",
      "TransmitCoilName": "Body",
      "VariableFlipAngleFlag": "N",
      "WindowCenterWidthExplanation": "Algo1",
      "dBdt": 0.0},
    "slices": {}
  },
  "time": {
    "samples": {
      "AcquisitionNumber": [1, 2, 3, 4, 5, 6, 7, 8, 9, 10, 11, 12, 13, 14, 15, 16, 17, 18, 19, 20, 21, 22, 23, 24, 25, 26, 27, 28, 29, 30, 31, 32, 33, 34, 35, 36, 37, 38, 39, 40, 41, 42, 43, 44, 45, 46, 47, 48, 49, 50, 51, 52, 53, 54, 55, 56, 57, 58, 59, 60, 61, 62, 63, 64, 65, 66, 67, 68, 69, 70, 71, 72, 73, 74, 75, 76, 77, 78, 79, 80, 81, 82, 83, 84, 85, 86, 87, 88, 89, 90, 91, 92, 93, 94, 95, 96, 97, 98, 99, 100, 101, 102, 103, 104, 105, 106, 107, 108, 109, 110, 111, 112, 113, 114, 115, 116, 117, 118, 119, 120, 121, 122, 123, 124, 125, 126, 127, 128, 129, 130, 131, 132, 133, 134, 135, 136, 137, 138, 139, 140, 141, 142, 143, 144, 145, 146, 147, 148, 149, 150, 151, 152, 153, 154, 155, 156, 157, 158, 159, 160, 161, 162, 163, 164, 165, 166, 167, 168, 169, 170, 171, 172, 173, 174, 175, 176, 177, 178, 179, 180, 181, 182, 183, 184, 185, 186, 187, 188, 189, 190, 191, 192, 193, 194, 195, 196, 197, 198, 199, 200, 201, 202, 203, 204, 205, 206, 207, 208, 209, 210, 211, 212, 213, 214, 215, 216, 217, 218, 219, 220, 221, 222, 223, 224, 225, 226, 227, 228, 229, 230, 231, 232],
      "AcquisitionTime": ["121609.780000", "121611.780000", "121613.780000", "121615.780000", "121617.780000", "121619.780000", "121621.780000", "121623.780000", "121625.780000", "121627.780000", "121629.780000", "121631.780000", "121633.780000", "121635.780000", "121637.780000", "121639.780000", "121641.780000", "121643.780000", "121645.780000", "121647.780000", "121649.780000", "121651.780000", "121653.780000", "121655.780000", "121657.780000", "121659.780000", "121701.780000", "121703.780000", "121705.780000", "121707.780000", "121709.780000", "121711.780000", "121713.780000", "121715.780000", "121717.780000", "121719.780000", "121721.780000", "121723.780000", "121725.780000", "121727.780000", "121729.780000", "121731.780000", "121733.780000", "121735.780000", "121737.780000", "121739.780000", "121741.780000", "121743.780000", "121745.780000", "121747.780000", "121749.780000", "121751.780000", "121753.780000", "121755.780000", "121757.780000", "121759.780000", "121801.780000", "121803.780000", "121805.780000", "121807.780000", "121809.780000", "121811.780000", "121813.780000", "121815.780000", "121817.780000", "121819.780000", "121821.780000", "121823.780000", "121825.780000", "121827.780000", "121829.780000", "121831.780000", "121833.780000", "121835.780000", "121837.780000", "121839.780000", "121841.780000", "121843.780000", "121845.780000", "121847.780000", "121849.780000", "121851.780000", "121853.780000", "121855.780000", "121857.780000", "121859.780000", "121901.780000", "121903.780000", "121905.780000", "121907.780000", "121909.780000", "121911.780000", "121913.780000", "121915.780000", "121917.780000", "121919.780000", "121921.780000", "121923.780000", "121925.780000", "121927.780000", "121929.780000", "121931.780000", "121933.780000", "121935.780000", "121937.780000", "121939.780000", "121941.780000", "121943.780000", "121945.780000", "121947.780000", "121949.780000", "121951.780000", "121953.780000", "121955.780000", "121957.780000", "121959.780000", "122001.780000", "122003.780000", "122005.780000", "122007.780000", "122009.780000", "122011.780000", "122013.780000", "122015.780000", "122017.780000", "122019.780000", "122021.780000", "122023.780000", "122025.780000", "122027.780000", "122029.780000", "122031.780000", "122033.780000", "122035.780000", "122037.780000", "122039.780000", "122041.780000", "122043.780000", "122045.780000", "122047.780000", "122049.780000", "122051.780000", "122053.780000", "122055.780000", "122057.780000", "122059.780000", "122101.780000", "122103.780000", "122105.780000", "122107.780000", "122109.780000", "122111.780000", "122113.780000", "122115.780000", "122117.780000", "122119.780000", "122121.780000", "122123.780000", "122125.780000", "122127.780000", "122129.780000", "122131.780000", "122133.780000", "122135.780000", "122137.780000", "122139.780000", "122141.780000", "122143.780000", "122145.780000", "122147.780000", "122149.780000", "122151.780000", "122153.780000", "122155.780000", "122157.780000", "122159.780000", "122201.780000", "122203.780000", "122205.780000", "122207.780000", "122209.780000", "122211.780000", "122213.780000", "122215.780000", "122217.780000", "122219.780000", "122221.780000", "122223.780000", "122225.780000", "122227.780000", "122229.780000", "122231.780000", "122233.780000", "122235.780000", "122237.780000", "122239.780000", "122241.780000", "122243.780000", "122245.780000", "122247.780000", "122249.780000", "122251.780000", "122253.780000", "122255.780000", "122257.780000", "122259.780000", "122301.780000", "122303.780000", "122305.780000", "122307.780000", "122309.780000", "122311.780000", "122313.780000", "122315.780000", "122317.780000", "122319.780000", "122321.780000", "122323.780000", "122325.780000", "122327.780000", "122329.780000", "122331.780000", "122333.780000", "122335.780000", "122337.780000", "122339.780000", "122341.780000", "122343.780000", "122345.780000", "122347.780000", "122349.780000", "122351.780000"],
      "ContentTime": ["121611.830000", "121613.325000", "121615.325000", "121617.325000", "121619.325000", "121621.325000", "121623.325000", "121625.325000", "121627.326000", "121629.325000", "121631.325000", "121633.325000", "121635.325000", "121637.325000", "121639.326000", "121641.325000", "121643.325000", "121645.326000", "121647.325000", "121649.325000", "121651.325000", "121653.326000", "121655.325000", "121657.326000", "121659.326000", "121701.326000", "121703.326000", "121705.325000", "121707.325000", "121709.325000", "121711.325000", "121713.325000", "121715.326000", "121717.325000", "121719.326000", "121721.326000", "121723.326000", "121725.326000", "121727.325000", "121729.325000", "121731.326000", "121733.325000", "121735.326000", "121737.326000", "121739.325000", "121741.326000", "121743.325000", "121745.325000", "121747.326000", "121749.327000", "121751.326000", "121753.326000", "121755.326000", "121757.325000", "121759.325000", "121801.325000", "121803.325000", "121805.325000", "121807.326000", "121809.325000", "121811.326000", "121813.326000", "121815.325000", "121817.325000", "121819.325000", "121821.325000", "121823.326000", "121825.325000", "121827.325000", "121829.326000", "121831.326000", "121833.325000", "121835.326000", "121837.325000", "121839.325000", "121841.325000", "121843.325000", "121845.326000", "121847.326000", "121849.325000", "121851.326000", "121853.325000", "121855.326000", "121857.325000", "121859.326000", "121901.326000", "121903.325000", "121905.326000", "121907.325000", "121909.325000", "121911.326000", "121913.325000", "121915.325000", "121917.325000", "121919.325000", "121921.326000", "121923.326000", "121925.325000", "121927.325000", "121929.326000", "121931.325000", "121933.325000", "121935.325000", "121937.325000", "121939.326000", "121941.326000", "121943.325000", "121945.326000", "121947.325000", "121949.326000", "121951.325000", "121953.325000", "121955.326000", "121957.326000", "121959.326000", "122001.326000", "122003.325000", "122005.326000", "122007.325000", "122009.325000", "122011.325000", "122013.325000", "122015.326000", "122017.326000", "122019.326000", "122021.325000", "122023.325000", "122025.325000", "122027.325000", "122029.325000", "122031.326000", "122033.326000", "122035.326000", "122037.325000", "122039.325000", "122041.325000", "122043.325000", "122045.326000", "122047.325000", "122049.326000", "122051.327000", "122053.325000", "122055.325000", "122057.325000", "122059.325000", "122101.326000", "122103.326000", "122105.326000", "122107.326000", "122109.325000", "122111.325000", "122113.325000", "122115.325000", "122117.325000", "122119.325000", "122121.326000", "122123.325000", "122125.327000", "122127.325000", "122129.325000", "122131.325000", "122133.325000", "122135.325000", "122137.325000", "122139.325000", "122141.336000", "122143.327000", "122145.325000", "122147.325000", "122149.325000", "122151.325000", "122153.325000", "122155.325000", "122157.325000", "122159.326000", "122201.326000", "122203.325000", "122205.326000", "122207.326000", "122209.325000", "122211.326000", "122213.325000", "122215.325000", "122217.326000", "122219.326000", "122221.326000", "122223.326000", "122225.325000", "122227.326000", "122229.325000", "122231.325000", "122233.326000", "122235.327000", "122237.325000", "122239.325000", "122241.325000", "122243.325000", "122245.325000", "122247.325000", "122249.325000", "122251.326000", "122253.326000", "122255.326000", "122257.326000", "122259.325000", "122301.325000", "122303.326000", "122305.325000", "122307.326000", "122309.326000", "122311.327000", "122313.325000", "122315.325000", "122317.326000", "122319.325000", "122321.325000", "122323.326000", "122325.325000", "122327.327000", "122329.325000", "122331.326000", "122333.325000", "122335.325000", "122337.325000", "122339.325000", "122341.325000", "122343.326000", "122345.327000", "122347.325000", "122349.325000", "122351.326000", "122353.052000"],
      "InstanceCreationTime": ["121611.830000", "121613.325000", "121615.325000", "121617.325000", "121619.325000", "121621.325000", "121623.325000", "121625.325000", "121627.326000", "121629.325000", "121631.325000", "121633.325000", "121635.325000", "121637.325000", "121639.326000", "121641.325000", "121643.325000", "121645.326000", "121647.325000", "121649.325000", "121651.325000", "121653.326000", "121655.325000", "121657.326000", "121659.326000", "121701.326000", "121703.326000", "121705.325000", "121707.325000", "121709.325000", "121711.325000", "121713.325000", "121715.326000", "121717.325000", "121719.326000", "121721.326000", "121723.326000", "121725.326000", "121727.325000", "121729.325000", "121731.326000", "121733.325000", "121735.326000", "121737.326000", "121739.325000", "121741.326000", "121743.325000", "121745.325000", "121747.326000", "121749.327000", "121751.326000", "121753.326000", "121755.326000", "121757.325000", "121759.325000", "121801.325000", "121803.325000", "121805.325000", "121807.326000", "121809.325000", "121811.326000", "121813.326000", "121815.325000", "121817.325000", "121819.325000", "121821.325000", "121823.326000", "121825.325000", "121827.325000", "121829.326000", "121831.326000", "121833.325000", "121835.326000", "121837.325000", "121839.325000", "121841.325000", "121843.325000", "121845.326000", "121847.326000", "121849.325000", "121851.326000", "121853.325000", "121855.326000", "121857.325000", "121859.326000", "121901.326000", "121903.325000", "121905.326000", "121907.325000", "121909.325000", "121911.326000", "121913.325000", "121915.325000", "121917.325000", "121919.325000", "121921.326000", "121923.326000", "121925.325000", "121927.325000", "121929.326000", "121931.325000", "121933.325000", "121935.325000", "121937.325000", "121939.326000", "121941.326000", "121943.325000", "121945.326000", "121947.325000", "121949.326000", "121951.325000", "121953.325000", "121955.326000", "121957.326000", "121959.326000", "122001.326000", "122003.325000", "122005.326000", "122007.325000", "122009.325000", "122011.325000", "122013.325000", "122015.326000", "122017.326000", "122019.326000", "122021.325000", "122023.325000", "122025.325000", "122027.325000", "122029.325000", "122031.326000", "122033.326000", "122035.326000", "122037.325000", "122039.325000", "122041.325000", "122043.325000", "122045.326000", "122047.325000", "122049.326000", "122051.327000", "122053.325000", "122055.325000", "122057.325000", "122059.325000", "122101.326000", "122103.326000", "122105.326000", "122107.326000", "122109.325000", "122111.325000", "122113.325000", "122115.325000", "122117.325000", "122119.325000", "122121.326000", "122123.325000", "122125.327000", "122127.325000", "122129.325000", "122131.325000", "122133.325000", "122135.325000", "122137.325000", "122139.325000", "122141.336000", "122143.327000", "122145.325000", "122147.325000", "122149.325000", "122151.325000", "122153.325000", "122155.325000", "122157.325000", "122159.326000", "122201.326000", "122203.325000", "122205.326000", "122207.326000", "122209.325000", "122211.326000", "122213.325000", "122215.325000", "122217.326000", "122219.326000", "122221.326000", "122223.326000", "122225.325000", "122227.326000", "122229.325000", "122231.325000", "122233.326000", "122235.327000", "122237.325000", "122239.325000", "122241.325000", "122243.325000", "122245.325000", "122247.325000", "122249.325000", "122251.326000", "122253.326000", "122255.326000", "122257.326000", "122259.325000", "122301.325000", "122303.326000", "122305.325000", "122307.326000", "122309.326000", "122311.327000", "122313.325000", "122315.325000", "122317.326000", "122319.325000", "122321.325000", "122323.326000", "122325.325000", "122327.327000", "122329.325000", "122331.326000", "122333.325000", "122335.325000", "122337.325000", "122339.325000", "122341.325000", "122343.326000", "122345.327000", "122347.325000", "122349.325000", "122351.326000", "122353.052000"],
      "InstanceNumber": [1, 2, 3, 4, 5, 6, 7, 8, 9, 10, 11, 12, 13, 14, 15, 16, 17, 18, 19, 20, 21, 22, 23, 24, 25, 26, 27, 28, 29, 30, 31, 32, 33, 34, 35, 36, 37, 38, 39, 40, 41, 42, 43, 44, 45, 46, 47, 48, 49, 50, 51, 52, 53, 54, 55, 56, 57, 58, 59, 60, 61, 62, 63, 64, 65, 66, 67, 68, 69, 70, 71, 72, 73, 74, 75, 76, 77, 78, 79, 80, 81, 82, 83, 84, 85, 86, 87, 88, 89, 90, 91, 92, 93, 94, 95, 96, 97, 98, 99, 100, 101, 102, 103, 104, 105, 106, 107, 108, 109, 110, 111, 112, 113, 114, 115, 116, 117, 118, 119, 120, 121, 122, 123, 124, 125, 126, 127, 128, 129, 130, 131, 132, 133, 134, 135, 136, 137, 138, 139, 140, 141, 142, 143, 144, 145, 146, 147, 148, 149, 150, 151, 152, 153, 154, 155, 156, 157, 158, 159, 160, 161, 162, 163, 164, 165, 166, 167, 168, 169, 170, 171, 172, 173, 174, 175, 176, 177, 178, 179, 180, 181, 182, 183, 184, 185, 186, 187, 188, 189, 190, 191, 192, 193, 194, 195, 196, 197, 198, 199, 200, 201, 202, 203, 204, 205, 206, 207, 208, 209, 210, 211, 212, 213, 214, 215, 216, 217, 218, 219, 220, 221, 222, 223, 224, 225, 226, 227, 228, 229, 230, 231, 232],
      "LargestImagePixelValue": [3093, 3064, 3039, 3087, 3050, 3016, 3095, 3059, 3088, 3038, 3016, 3029, 2991, 2977, 2984, 3005, 2985, 3007, 2985, 2975, 2981, 2965, 2980, 2979, 3007, 3076, 3005, 3033, 2975, 2901, 2899, 2906, 2999, 2922, 3030, 3034, 3000, 3032, 3028, 3054, 3020, 3000, 2982, 3035, 2987, 3002, 3048, 3034, 2950, 3030, 3032, 3059, 3053, 3003, 3006, 3012, 3003, 3024, 3061, 3026, 3029, 2948, 2939, 2997, 2990, 2883, 2973, 3010, 2925, 3004, 3002, 3003, 3012, 2995, 3037, 2983, 3020, 2982, 3001, 2988, 3012, 3015, 3039, 3031, 3059, 3091, 3129, 3129, 3110, 3063, 3053, 3090, 3078, 3102, 3139, 3072, 3088, 3104, 3042, 3084, 3108, 3091, 3086, 3095, 3013, 3021, 3065, 3058, 3018, 3098, 3079, 3066, 3062, 3042, 3082, 3107, 3124, 3115, 3050, 3033, 3081, 3040, 3073, 3096, 3067, 3075, 3063, 3055, 3059, 3058, 3027, 3046, 3093, 3027, 3048, 3038, 3012, 3068, 3074, 3095, 3095, 3042, 3108, 3128, 3080, 3073, 3069, 3070, 3072, 3072, 3117, 3064, 3050, 3085, 3090, 3097, 3082, 3069, 3107, 3089, 3090, 3124, 3127, 3132, 3091, 3037, 2950, 3085, 3002, 3013, 3028, 3034, 3045, 3070, 3019, 3014, 3018, 2991, 3019, 3066, 3047, 3055, 3072, 3059, 3029, 3051, 3080, 3030, 3022, 2989, 3052, 2969, 3039, 3066, 3059, 3054, 3088, 3065, 3085, 3072, 3086, 3025, 3021, 2996, 2976, 3024, 3057, 3045, 3040, 3047, 3139, 3148, 3128, 3061, 3103, 3048, 3097, 3093, 3070, 3067, 3067, 3030, 3007, 3063, 3081, 3058, 3090, 3100, 3029, 3018, 3022, 3001],
      "WindowCenter": [740.0, 739.0, 739.0, 740.0, 740.0, 739.0, 740.0, 739.0, 739.0, 739.0, 739.0, 740.0, 739.0, 739.0, 738.0, 738.0, 738.0, 738.0, 738.0, 738.0, 737.0, 737.0, 737.0, 737.0, 737.0, 738.0, 738.0, 738.0, 737.0, 735.0, 736.0, 735.0, 736.0, 736.0, 738.0, 738.0, 737.0, 738.0, 738.0, 738.0, 739.0, 740.0, 739.0, 739.0, 737.0, 737.0, 737.0, 738.0, 737.0, 739.0, 739.0, 739.0, 739.0, 738.0, 738.0, 737.0, 737.0, 738.0, 738.0, 738.0, 736.0, 735.0, 735.0, 736.0, 736.0, 735.0, 737.0, 737.0, 736.0, 736.0, 737.0, 737.0, 737.0, 738.0, 738.0, 737.0, 737.0, 736.0, 736.0, 736.0, 736.0, 737.0, 737.0, 737.0, 736.0, 737.0, 737.0, 737.0, 738.0, 738.0, 739.0, 739.0, 739.0, 738.0, 738.0, 738.0, 737.0, 737.0, 737.0, 737.0, 737.0, 737.0, 736.0, 736.0, 735.0, 736.0, 738.0, 738.0, 737.0, 739.0, 738.0, 738.0, 738.0, 738.0, 739.0, 738.0, 738.0, 737.0, 737.0, 737.0, 738.0, 738.0, 738.0, 738.0, 738.0, 738.0, 738.0, 738.0, 738.0, 738.0, 738.0, 738.0, 737.0, 738.0, 738.0, 737.0, 737.0, 739.0, 739.0, 740.0, 740.0, 739.0, 739.0, 739.0, 738.0, 738.0, 739.0, 739.0, 739.0, 739.0, 739.0, 738.0, 738.0, 739.0, 739.0, 739.0, 739.0, 739.0, 739.0, 739.0, 739.0, 741.0, 741.0, 740.0, 739.0, 736.0, 735.0, 736.0, 735.0, 736.0, 737.0, 737.0, 737.0, 737.0, 736.0, 735.0, 735.0, 736.0, 738.0, 738.0, 739.0, 739.0, 738.0, 738.0, 738.0, 738.0, 738.0, 737.0, 736.0, 735.0, 736.0, 735.0, 736.0, 737.0, 738.0, 738.0, 738.0, 738.0, 737.0, 737.0, 738.0, 737.0, 736.0, 736.0, 736.0, 736.0, 735.0, 737.0, 738.0, 738.0, 739.0, 740.0, 740.0, 738.0, 737.0, 737.0, 737.0, 737.0, 738.0, 738.0, 738.0, 738.0, 738.0, 738.0, 739.0, 739.0, 739.0, 739.0, 737.0, 736.0, 737.0, 736.0],
      "WindowWidth": [1596.0, 1594.0, 1593.0, 1595.0, 1595.0, 1593.0, 1595.0, 1592.0, 1593.0, 1593.0, 1594.0, 1595.0, 1594.0, 1592.0, 1591.0, 1591.0, 1590.0, 1591.0, 1591.0, 1590.0, 1588.0, 1587.0, 1587.0, 1587.0, 1589.0, 1591.0, 1591.0, 1590.0, 1589.0, 1585.0, 1585.0, 1583.0, 1586.0, 1586.0, 1592.0, 1590.0, 1589.0, 1590.0, 1592.0, 1591.0, 1594.0, 1595.0, 1594.0, 1594.0, 1588.0, 1587.0, 1589.0, 1590.0, 1589.0, 1592.0, 1593.0, 1593.0, 1593.0, 1592.0, 1591.0, 1589.0, 1589.0, 1590.0, 1591.0, 1589.0, 1585.0, 1581.0, 1583.0, 1586.0, 1586.0, 1583.0, 1587.0, 1588.0, 1585.0, 1587.0, 1587.0, 1589.0, 1589.0, 1589.0, 1590.0, 1588.0, 1588.0, 1585.0, 1586.0, 1585.0, 1586.0, 1588.0, 1589.0, 1588.0, 1586.0, 1586.0, 1587.0, 1588.0, 1590.0, 1590.0, 1592.0, 1593.0, 1592.0, 1592.0, 1591.0, 1589.0, 1588.0, 1588.0, 1586.0, 1587.0, 1588.0, 1587.0, 1586.0, 1586.0, 1582.0, 1587.0, 1590.0, 1590.0, 1589.0, 1592.0, 1591.0, 1591.0, 1591.0, 1591.0, 1592.0, 1591.0, 1590.0, 1588.0, 1587.0, 1588.0, 1591.0, 1590.0, 1592.0, 1591.0, 1590.0, 1591.0, 1591.0, 1590.0, 1591.0, 1590.0, 1589.0, 1590.0, 1588.0, 1591.0, 1589.0, 1588.0, 1589.0, 1592.0, 1593.0, 1596.0, 1595.0, 1594.0, 1595.0, 1594.0, 1591.0, 1591.0, 1592.0, 1594.0, 1594.0, 1593.0, 1593.0, 1590.0, 1590.0, 1594.0, 1594.0, 1594.0, 1593.0, 1593.0, 1595.0, 1593.0, 1594.0, 1598.0, 1598.0, 1597.0, 1592.0, 1586.0, 1582.0, 1585.0, 1583.0, 1585.0, 1587.0, 1587.0, 1588.0, 1587.0, 1584.0, 1583.0, 1582.0, 1585.0, 1589.0, 1592.0, 1592.0, 1593.0, 1591.0, 1591.0, 1590.0, 1591.0, 1591.0, 1588.0, 1586.0, 1583.0, 1586.0, 1584.0, 1587.0, 1590.0, 1592.0, 1590.0, 1590.0, 1590.0, 1588.0, 1588.0, 1589.0, 1586.0, 1586.0, 1585.0, 1585.0, 1586.0, 1583.0, 1589.0, 1590.0, 1590.0, 1594.0, 1596.0, 1594.0, 1591.0, 1589.0, 1587.0, 1588.0, 1588.0, 1590.0, 1591.0, 1590.0, 1590.0, 1590.0, 1591.0, 1592.0, 1592.0, 1593.0, 1592.0, 1588.0, 1586.0, 1586.0, 1585.0]
    },
    "slices": {}
  }
}