{
  "AcquisitionMatrixPE": 100,
  "AcquisitionNumber": 1,
  "AcquisitionTime": "12:07:34.412500",
  "BandwidthPerPixelPhaseEncode": 18.519,
  "BaseResolution": 100,
  "BodyPartExamined": "BRAIN",
  "ConsistencyInfo": "N4_VE11C_LATEST_20160120",
  "ConversionSoftware": "dcm2niix",
  "ConversionSoftwareVersion": "v1.0.20180622 GCC4.9.2",
  "DerivedVendorReportedEchoSpacing": 0.000539986,
  "DeviceSerialNumber": "166078",
  "DwellTime": 2.1e-06,
  "EchoTime": 0.034,
  "EchoTrainLength": 100,
  "EffectiveEchoSpacing": 0.000539986,
  "FlipAngle": 90,
  "ImageOrientationPatientDICOM": [0.999847, 0.0130156, -0.0116449, -0.0139614, 0.996265, -0.0852133],
  "ImageType": [
    "ORIGINAL",
    "PRIMARY",
    "M",
    "ND",
    "MOSAIC"
],
  "InPlanePhaseEncodingDirectionDICOM": "COL",
  "InstitutionAddress": "Street_StreetNo_Bei_Jing_District_CN_ZIP",
  "InstitutionName": "BeiJing_Normal_University",
  "InstitutionalDepartmentName": "Department",
  "MRAcquisitionType": "2D",
  "MagneticFieldStrength": 3,
  "Manufacturer": "Siemens",
  "ManufacturersModelName": "Prisma",
  "Modality": "MR",
  "MultibandAccelerationFactor": 3,
  "PartialFourier": 1,
  "PatientPosition": "HFS",
  "PercentPhaseFOV": 100,
  "PhaseEncodingDirection": "j-",
  "PhaseEncodingSteps": 100,
  "PhaseResolution": 1,
  "PixelBandwidth": 2380,
  "ProcedureStepDescription": "BNU_P2018_64CH_Liu.Jia",
  "ProtocolName": "bold_100x100_s3_2x2x2_232",
  "PulseSequenceDetails": "%SiemensSeq%_ep2d_bold",
  "ReceiveCoilActiveElements": "HC1-7;NC1",
  "ReceiveCoilName": "HeadNeck_64",
  "ReconMatrixPE": 100,
  "RepetitionTime": 2,
  "SAR": 0.0603948,
  "ScanOptions": "FS",
  "ScanningSequence": "EP",
  "SequenceName": "_epfid2d1_100",
  "SequenceVariant": "SK",
  "SeriesDescription": "bold_100x100_s3_2x2x2_232",
  "SeriesNumber": 9,
  "ShimSetting": [-5449, -11512, -1286, 377, 0, -256, -193, 20],
  "SliceThickness": 2,
  "SliceTiming": [1.485, 0, 0.99, 0.0825, 1.0725, 0.165, 1.155, 0.2475, 1.2375, 0.33, 1.32, 0.4125, 1.4025, 0.5775, 1.5675, 0.66, 1.65, 0.7425, 1.7325, 0.825, 1.815, 0.9075, 1.8975, 0.495, 1.485, 0, 0.99, 0.0825, 1.0725, 0.165, 1.155, 0.2475, 1.2375, 0.33, 1.32, 0.4125, 1.4025, 0.5775, 1.5675, 0.66, 1.65, 0.7425, 1.7325, 0.825, 1.815, 0.9075, 1.8975, 0.495, 1.485, 0, 0.99, 0.0825, 1.0725, 0.165, 1.155, 0.2475, 1.2375, 0.33, 1.32, 0.4125, 1.4025, 0.5775, 1.5675, 0.66, 1.65, 0.7425, 1.7325, 0.825, 1.815, 0.9075, 1.8975, 0.495],
  "SoftwareVersions": "syngo_MR_E11",
  "SpacingBetweenSlices": 2,
  "StationName": "AWP166078",
  "TaskName": "motor",
  "TotalReadoutTime": 0.0534586,
  "TxRefAmp": 216.402,
  "dcmmeta_affine": [
    [-1.9996949434280396, -0.027922816574573517, -0.020984578877687454, 102.4595947265625],
    [-0.026031188666820526, 1.9925298690795898, -0.1707257330417633, -86.26018524169922],
    [-0.023289771750569344, 0.17042657732963562, 1.9925892353057861, -76.26697540283203],
    [0.0, 0.0, 0.0, 1.0]
],
  "dcmmeta_reorient_transform": [
    [0.0, -1.0, 0.0, 99.0],
    [1.0, 0.0, 0.0, 0.0],
    [0.0, 0.0, 1.0, 0.0],
    [0.0, 0.0, 0.0, 1.0]
],
  "dcmmeta_shape": [100, 100, 72, 232],
  "dcmmeta_slice_dim": 2,
  "dcmmeta_version": 0.6,
  "global": {
    "const": {
      "AcquisitionMatrix": [100, 0, 0, 100],
      "AngioFlag": "N",
      "BitsAllocated": 16,
      "BitsStored": 12,
      "BodyPartExamined": "BRAIN",
      "Columns": 900,
      "EchoNumbers": 1,
      "EchoTime": 34.0,
      "EchoTrainLength": 100,
      "FlipAngle": 90.0,
      "HighBit": 11,
      "ImageOrientationPatient": [0.9998474838385, 0.0130155943462, -0.0116448858144, -0.0139614082868, 0.9962649120062, -0.0852132864284],
      "ImagePositionPatient": [-888.40409259985, -918.42467175109, 18.091796241626],
      "ImageType": [
        "ORIGINAL",
        "PRIMARY",
        "M",
        "ND",
        "MOSAIC"
],
      "ImagedNucleus": "1H",
      "ImagingFrequency": 123.257841,
      "InPlanePhaseEncodingDirection": "COL",
      "MRAcquisitionType": "2D",
      "MagneticFieldStrength": 3.0,
      "Manufacturer": "SIEMENS",
      "ManufacturerModelName": "Prisma",
      "Modality": "MR",
      "NumberOfAverages": 1.0,
      "NumberOfPhaseEncodingSteps": 100,
      "PercentPhaseFieldOfView": 100.0,
      "PercentSampling": 100.0,
      "PerformedProcedureStepStartTime": "113148.864000",
      "PhotometricInterpretation": "MONOCHROME2",
      "PixelBandwidth": 2380.0,
      "PixelRepresentation": 0,
      "PixelSpacing": [2.0, 2.0],
      "ProtocolName": "bold_100x100_s3_2x2x2_232",
      "RepetitionTime": 2000.0,
      "Rows": 900,
      "SAR": 0.06039477159091,
      "SamplesPerPixel": 1,
      "ScanOptions": "FS",
      "ScanningSequence": "EP",
      "SequenceName": "*epfid2d1_100",
      "SequenceVariant": "SK",
      "SeriesDescription": "bold_100x100_s3_2x2x2_232",
      "SeriesNumber": 9,
      "SeriesTime": "120736.700000",
      "SliceLocation": -69.695997590627,
      "SliceThickness": 2.0,
      "SmallestImagePixelValue": 0,
      "SoftwareVersions": "syngo MR E11",
      "SpacingBetweenSlices": 1.9999999162786,
      "SpecificCharacterSet": "ISO_IR 100",
      "StudyID": "1",
      "StudyTime": "113148.776000",
      "TransmitCoilName": "Body",
      "VariableFlipAngleFlag": "N",
      "WindowCenterWidthExplanation": "Algo1",
      "dBdt": 0.0},
    "slices": {}
  },
  "time": {
    "samples": {
      "AcquisitionNumber": [1, 2, 3, 4, 5, 6, 7, 8, 9, 10, 11, 12, 13, 14, 15, 16, 17, 18, 19, 20, 21, 22, 23, 24, 25, 26, 27, 28, 29, 30, 31, 32, 33, 34, 35, 36, 37, 38, 39, 40, 41, 42, 43, 44, 45, 46, 47, 48, 49, 50, 51, 52, 53, 54, 55, 56, 57, 58, 59, 60, 61, 62, 63, 64, 65, 66, 67, 68, 69, 70, 71, 72, 73, 74, 75, 76, 77, 78, 79, 80, 81, 82, 83, 84, 85, 86, 87, 88, 89, 90, 91, 92, 93, 94, 95, 96, 97, 98, 99, 100, 101, 102, 103, 104, 105, 106, 107, 108, 109, 110, 111, 112, 113, 114, 115, 116, 117, 118, 119, 120, 121, 122, 123, 124, 125, 126, 127, 128, 129, 130, 131, 132, 133, 134, 135, 136, 137, 138, 139, 140, 141, 142, 143, 144, 145, 146, 147, 148, 149, 150, 151, 152, 153, 154, 155, 156, 157, 158, 159, 160, 161, 162, 163, 164, 165, 166, 167, 168, 169, 170, 171, 172, 173, 174, 175, 176, 177, 178, 179, 180, 181, 182, 183, 184, 185, 186, 187, 188, 189, 190, 191, 192, 193, 194, 195, 196, 197, 198, 199, 200, 201, 202, 203, 204, 205, 206, 207, 208, 209, 210, 211, 212, 213, 214, 215, 216, 217, 218, 219, 220, 221, 222, 223, 224, 225, 226, 227, 228, 229, 230, 231, 232],
      "AcquisitionTime": ["120734.412500", "120736.412500", "120738.412500", "120740.412500", "120742.412500", "120744.412500", "120746.412500", "120748.412500", "120750.412500", "120752.412500", "120754.412500", "120756.412500", "120758.412500", "120800.412500", "120802.412500", "120804.412500", "120806.412500", "120808.412500", "120810.412500", "120812.412500", "120814.412500", "120816.412500", "120818.412500", "120820.412500", "120822.412500", "120824.412500", "120826.412500", "120828.412500", "120830.412500", "120832.412500", "120834.412500", "120836.412500", "120838.412500", "120840.412500", "120842.412500", "120844.412500", "120846.412500", "120848.412500", "120850.412500", "120852.412500", "120854.412500", "120856.412500", "120858.412500", "120900.412500", "120902.412500", "120904.412500", "120906.412500", "120908.412500", "120910.412500", "120912.412500", "120914.412500", "120916.412500", "120918.412500", "120920.412500", "120922.412500", "120924.412500", "120926.412500", "120928.412500", "120930.412500", "120932.412500", "120934.412500", "120936.412500", "120938.412500", "120940.412500", "120942.412500", "120944.412500", "120946.412500", "120948.412500", "120950.412500", "120952.412500", "120954.412500", "120956.412500", "120958.412500", "121000.412500", "121002.412500", "121004.412500", "121006.412500", "121008.412500", "121010.412500", "121012.412500", "121014.412500", "121016.412500", "121018.412500", "121020.412500", "121022.412500", "121024.412500", "121026.412500", "121028.412500", "121030.412500", "121032.412500", "121034.412500", "121036.412500", "121038.412500", "121040.412500", "121042.412500", "121044.412500", "121046.412500", "121048.412500", "121050.412500", "121052.412500", "121054.412500", "121056.412500", "121058.412500", "121100.412500", "121102.412500", "121104.412500", "121106.412500", "121108.412500", "121110.412500", "121112.412500", "121114.412500", "121116.412500", "121118.412500", "121120.412500", "121122.412500", "121124.412500", "121126.412500", "121128.412500", "121130.412500", "121132.412500", "121134.412500", "121136.412500", "121138.412500", "121140.412500", "121142.412500", "121144.412500", "121146.412500", "121148.412500", "121150.412500", "121152.412500", "121154.412500", "121156.412500", "121158.412500", "121200.412500", "121202.412500", "121204.412500", "121206.412500", "121208.412500", "121210.412500", "121212.412500", "121214.412500", "121216.412500", "121218.412500", "121220.412500", "121222.412500", "121224.412500", "121226.412500", "121228.412500", "121230.412500", "121232.412500", "121234.412500", "121236.412500", "121238.412500", "121240.412500", "121242.412500", "121244.412500", "121246.412500", "121248.412500", "121250.412500", "121252.412500", "121254.412500", "121256.412500", "121258.412500", "121300.412500", "121302.412500", "121304.412500", "121306.412500", "121308.412500", "121310.412500", "121312.412500", "121314.412500", "121316.412500", "121318.412500", "121320.412500", "121322.412500", "121324.412500", "121326.412500", "121328.412500", "121330.412500", "121332.412500", "121334.412500", "121336.412500", "121338.412500", "121340.412500", "121342.412500", "121344.412500", "121346.412500", "121348.412500", "121350.412500", "121352.412500", "121354.412500", "121356.412500", "121358.412500", "121400.412500", "121402.412500", "121404.412500", "121406.412500", "121408.412500", "121410.412500", "121412.412500", "121414.412500", "121416.412500", "121418.412500", "121420.412500", "121422.412500", "121424.412500", "121426.412500", "121428.412500", "121430.412500", "121432.412500", "121434.412500", "121436.412500", "121438.412500", "121440.412500", "121442.412500", "121444.412500", "121446.412500", "121448.412500", "121450.412500", "121452.412500", "121454.412500", "121456.412500", "121458.412500", "121500.412500", "121502.412500", "121504.412500", "121506.412500", "121508.412500", "121510.412500", "121512.412500", "121514.412500", "121516.412500"],
      "ContentTime": ["120736.703000", "120738.199000", "120740.199000", "120742.200000", "120744.200000", "120746.200000", "120748.200000", "120750.200000", "120752.199000", "120754.199000", "120756.699000", "120758.199000", "120800.200000", "120802.200000", "120804.200000", "120806.200000", "120808.200000", "120810.199000", "120812.199000", "120814.200000", "120816.200000", "120818.200000", "120820.200000", "120822.201000", "120824.200000", "120826.200000", "120828.200000", "120830.199000", "120832.199000", "120834.200000", "120836.200000", "120838.200000", "120840.200000", "120842.200000", "120844.199000", "120846.199000", "120848.199000", "120850.199000", "120852.200000", "120854.200000", "120856.200000", "120858.201000", "120900.200000", "120902.200000", "120904.199000", "120906.199000", "120908.199000", "120910.200000", "120912.201000", "120914.200000", "120916.201000", "120918.200000", "120920.200000", "120922.199000", "120924.199000", "120926.199000", "120928.200000", "120930.200000", "120932.201000", "120934.200000", "120936.200000", "120938.200000", "120940.199000", "120942.199000", "120944.200000", "120946.200000", "120948.200000", "120950.200000", "120952.200000", "120954.199000", "120956.200000", "120958.199000", "121000.199000", "121002.200000", "121004.200000", "121006.200000", "121008.200000", "121010.200000", "121012.200000", "121014.200000", "121016.199000", "121018.199000", "121020.200000", "121022.200000", "121024.200000", "121026.200000", "121028.200000", "121030.200000", "121032.199000", "121034.199000", "121036.199000", "121038.200000", "121040.200000", "121042.200000", "121044.200000", "121046.200000", "121048.199000", "121050.199000", "121052.199000", "121054.201000", "121056.200000", "121058.200000", "121100.201000", "121102.201000", "121104.199000", "121106.199000", "121108.199000", "121110.200000", "121112.200000", "121114.200000", "121116.200000", "121118.201000", "121120.200000", "121122.199000", "121124.699000", "121126.200000", "121128.199000", "121130.700000", "121132.201000", "121134.200000", "121136.201000", "121138.213000", "121140.199000", "121142.200000", "121144.199000", "121146.200000", "121148.201000", "121150.200000", "121152.200000", "121154.200000", "121156.201000", "121158.200000", "121200.199000", "121202.200000", "121204.201000", "121206.201000", "121208.200000", "121210.200000", "121212.200000", "121214.199000", "121216.199000", "121218.199000", "121220.200000", "121222.201000", "121224.200000", "121226.200000", "121228.200000", "121230.201000", "121232.200000", "121234.199000", "121236.199000", "121238.199000", "121240.201000", "121242.201000", "121244.200000", "121246.200000", "121248.201000", "121250.200000", "121252.200000", "121254.199000", "121256.199000", "121258.200000", "121300.200000", "121302.200000", "121304.200000", "121306.200000", "121308.699000", "121310.199000", "121312.199000", "121314.200000", "121316.201000", "121318.200000", "121320.200000", "121322.201000", "121324.199000", "121326.199000", "121328.199000", "121330.199000", "121332.200000", "121334.200000", "121336.201000", "121338.201000", "121340.700000", "121342.200000", "121344.199000", "121346.199000", "121348.199000", "121350.200000", "121352.200000", "121354.201000", "121356.200000", "121358.200000", "121400.199000", "121402.199000", "121404.199000", "121406.199000", "121408.200000", "121410.201000", "121412.200000", "121414.200000", "121416.200000", "121418.199000", "121420.699000", "121422.199000", "121424.200000", "121426.200000", "121428.200000", "121430.200000", "121432.200000", "121434.199000", "121436.199000", "121438.200000", "121440.199000", "121442.201000", "121444.200000", "121446.700000", "121448.201000", "121450.200000", "121452.199000", "121454.200000", "121456.199000", "121458.199000", "121500.201000", "121502.200000", "121504.200000", "121506.200000", "121508.200000", "121510.200000", "121512.200000", "121514.200000", "121516.199000", "121518.071000"],
      "InstanceCreationTime": ["120736.703000", "120738.199000", "120740.199000", "120742.200000", "120744.200000", "120746.200000", "120748.200000", "120750.200000", "120752.199000", "120754.199000", "120756.699000", "120758.199000", "120800.200000", "120802.200000", "120804.200000", "120806.200000", "120808.200000", "120810.199000", "120812.199000", "120814.200000", "120816.200000", "120818.200000", "120820.200000", "120822.201000", "120824.200000", "120826.200000", "120828.200000", "120830.199000", "120832.199000", "120834.200000", "120836.200000", "120838.200000", "120840.200000", "120842.200000", "120844.199000", "120846.199000", "120848.199000", "120850.199000", "120852.200000", "120854.200000", "120856.200000", "120858.201000", "120900.200000", "120902.200000", "120904.199000", "120906.199000", "120908.199000", "120910.200000", "120912.201000", "120914.200000", "120916.201000", "120918.200000", "120920.200000", "120922.199000", "120924.199000", "120926.199000", "120928.200000", "120930.200000", "120932.201000", "120934.200000", "120936.200000", "120938.200000", "120940.199000", "120942.199000", "120944.200000", "120946.200000", "120948.200000", "120950.200000", "120952.200000", "120954.199000", "120956.200000", "120958.199000", "121000.199000", "121002.200000", "121004.200000", "121006.200000", "121008.200000", "121010.200000", "121012.200000", "121014.200000", "121016.199000", "121018.199000", "121020.200000", "121022.200000", "121024.200000", "121026.200000", "121028.200000", "121030.200000", "121032.199000", "121034.199000", "121036.199000", "121038.200000", "121040.200000", "121042.200000", "121044.200000", "121046.200000", "121048.199000", "121050.199000", "121052.199000", "121054.201000", "121056.200000", "121058.200000", "121100.201000", "121102.201000", "121104.199000", "121106.199000", "121108.199000", "121110.200000", "121112.200000", "121114.200000", "121116.200000", "121118.201000", "121120.200000", "121122.199000", "121124.699000", "121126.200000", "121128.199000", "121130.700000", "121132.201000", "121134.200000", "121136.201000", "121138.213000", "121140.199000", "121142.200000", "121144.199000", "121146.200000", "121148.201000", "121150.200000", "121152.200000", "121154.200000", "121156.201000", "121158.200000", "121200.199000", "121202.200000", "121204.201000", "121206.201000", "121208.200000", "121210.200000", "121212.200000", "121214.199000", "121216.199000", "121218.199000", "121220.200000", "121222.201000", "121224.200000", "121226.200000", "121228.200000", "121230.201000", "121232.200000", "121234.199000", "121236.199000", "121238.199000", "121240.201000", "121242.201000", "121244.200000", "121246.200000", "121248.201000", "121250.200000", "121252.200000", "121254.199000", "121256.199000", "121258.200000", "121300.200000", "121302.200000", "121304.200000", "121306.200000", "121308.699000", "121310.199000", "121312.199000", "121314.200000", "121316.201000", "121318.200000", "121320.200000", "121322.201000", "121324.199000", "121326.199000", "121328.199000", "121330.199000", "121332.200000", "121334.200000", "121336.201000", "121338.201000", "121340.700000", "121342.200000", "121344.199000", "121346.199000", "121348.199000", "121350.200000", "121352.200000", "121354.201000", "121356.200000", "121358.200000", "121400.199000", "121402.199000", "121404.199000", "121406.199000", "121408.200000", "121410.201000", "121412.200000", "121414.200000", "121416.200000", "121418.199000", "121420.699000", "121422.199000", "121424.200000", "121426.200000", "121428.200000", "121430.200000", "121432.200000", "121434.199000", "121436.199000", "121438.200000", "121440.199000", "121442.201000", "121444.200000", "121446.700000", "121448.201000", "121450.200000", "121452.199000", "121454.200000", "121456.199000", "121458.199000", "121500.201000", "121502.200000", "121504.200000", "121506.200000", "121508.200000", "121510.200000", "121512.200000", "121514.200000", "121516.199000", "121518.071000"],
      "InstanceNumber": [1, 2, 3, 4, 5, 6, 7, 8, 9, 10, 11, 12, 13, 14, 15, 16, 17, 18, 19, 20, 21, 22, 23, 24, 25, 26, 27, 28, 29, 30, 31, 32, 33, 34, 35, 36, 37, 38, 39, 40, 41, 42, 43, 44, 45, 46, 47, 48, 49, 50, 51, 52, 53, 54, 55, 56, 57, 58, 59, 60, 61, 62, 63, 64, 65, 66, 67, 68, 69, 70, 71, 72, 73, 74, 75, 76, 77, 78, 79, 80, 81, 82, 83, 84, 85, 86, 87, 88, 89, 90, 91, 92, 93, 94, 95, 96, 97, 98, 99, 100, 101, 102, 103, 104, 105, 106, 107, 108, 109, 110, 111, 112, 113, 114, 115, 116, 117, 118, 119, 120, 121, 122, 123, 124, 125, 126, 127, 128, 129, 130, 131, 132, 133, 134, 135, 136, 137, 138, 139, 140, 141, 142, 143, 144, 145, 146, 147, 148, 149, 150, 151, 152, 153, 154, 155, 156, 157, 158, 159, 160, 161, 162, 163, 164, 165, 166, 167, 168, 169, 170, 171, 172, 173, 174, 175, 176, 177, 178, 179, 180, 181, 182, 183, 184, 185, 186, 187, 188, 189, 190, 191, 192, 193, 194, 195, 196, 197, 198, 199, 200, 201, 202, 203, 204, 205, 206, 207, 208, 209, 210, 211, 212, 213, 214, 215, 216, 217, 218, 219, 220, 221, 222, 223, 224, 225, 226, 227, 228, 229, 230, 231, 232],
      "LargestImagePixelValue": [3436, 3328, 3358, 3296, 3318, 3273, 3336, 3321, 3347, 3378, 3295, 3166, 3267, 3307, 3207, 3210, 3105, 3124, 3105, 3169, 3126, 3187, 3242, 3167, 3250, 3269, 3224, 3234, 3293, 3309, 3284, 3252, 3310, 3229, 3183, 3226, 3216, 3233, 3268, 3256, 3231, 3259, 3243, 3269, 3245, 3288, 3322, 3326, 3329, 3294, 3302, 3290, 3280, 3299, 3301, 3283, 3300, 3289, 3270, 3316, 3299, 3382, 3360, 3360, 3351, 3375, 3324, 3328, 3315, 3345, 3324, 3347, 3299, 3318, 3227, 3180, 3212, 3179, 3139, 3217, 3202, 3202, 3173, 3180, 3192, 3161, 3165, 3212, 3203, 3217, 3231, 3189, 3184, 3222, 3214, 3245, 3212, 3229, 3232, 3235, 3245, 3264, 3260, 3245, 3275, 3286, 3263, 3282, 3230, 3260, 3288, 3259, 3161, 3203, 3168, 3122, 3167, 3159, 3130, 3165, 3147, 3125, 3122, 3138, 3142, 3138, 3176, 3150, 3111, 3139, 3129, 3134, 3095, 3072, 3059, 3077, 3096, 3083, 3090, 3089, 3107, 3107, 3134, 3142, 3119, 3107, 3104, 3071, 3131, 3109, 3079, 3136, 3076, 3061, 3098, 3080, 3059, 3018, 3058, 3045, 3071, 3077, 3073, 3082, 3067, 3037, 3043, 3030, 3052, 3108, 3073, 3099, 3104, 3124, 3097, 3104, 3075, 3073, 3065, 3119, 3129, 3117, 3119, 3109, 3108, 3122, 3110, 3084, 3107, 3121, 3132, 3163, 3138, 3152, 3140, 3124, 3110, 3110, 3136, 3127, 3143, 3200, 3150, 3142, 3121, 3158, 3180, 3180, 3189, 3058, 3085, 3060, 3065, 3098, 3120, 3120, 3161, 3226, 3205, 3129, 3119, 3114, 3153, 3104, 3067, 3089, 3090, 3069, 3096, 3094, 3051, 3055],
      "WindowCenter": [744.0, 742.0, 742.0, 743.0, 743.0, 743.0, 743.0, 742.0, 742.0, 743.0, 743.0, 741.0, 742.0, 740.0, 740.0, 740.0, 738.0, 739.0, 739.0, 740.0, 739.0, 740.0, 741.0, 740.0, 740.0, 741.0, 741.0, 741.0, 740.0, 740.0, 741.0, 741.0, 742.0, 741.0, 740.0, 740.0, 740.0, 741.0, 740.0, 741.0, 741.0, 741.0, 742.0, 742.0, 742.0, 742.0, 742.0, 742.0, 742.0, 742.0, 742.0, 743.0, 742.0, 742.0, 742.0, 742.0, 742.0, 742.0, 742.0, 742.0, 741.0, 741.0, 740.0, 740.0, 741.0, 741.0, 742.0, 743.0, 743.0, 743.0, 742.0, 742.0, 742.0, 742.0, 741.0, 741.0, 740.0, 739.0, 738.0, 739.0, 739.0, 739.0, 739.0, 739.0, 739.0, 738.0, 739.0, 739.0, 739.0, 740.0, 741.0, 741.0, 741.0, 740.0, 739.0, 739.0, 739.0, 739.0, 740.0, 740.0, 740.0, 740.0, 740.0, 740.0, 741.0, 742.0, 741.0, 742.0, 740.0, 740.0, 740.0, 740.0, 739.0, 740.0, 739.0, 739.0, 739.0, 740.0, 739.0, 740.0, 740.0, 740.0, 740.0, 740.0, 740.0, 740.0, 740.0, 739.0, 738.0, 740.0, 740.0, 740.0, 739.0, 739.0, 738.0, 738.0, 739.0, 739.0, 739.0, 739.0, 739.0, 739.0, 739.0, 738.0, 738.0, 738.0, 739.0, 739.0, 740.0, 739.0, 738.0, 740.0, 739.0, 738.0, 739.0, 738.0, 738.0, 737.0, 737.0, 738.0, 738.0, 739.0, 740.0, 739.0, 738.0, 737.0, 736.0, 737.0, 738.0, 739.0, 739.0, 739.0, 738.0, 737.0, 736.0, 736.0, 736.0, 737.0, 738.0, 740.0, 739.0, 739.0, 740.0, 739.0, 739.0, 739.0, 739.0, 738.0, 738.0, 738.0, 738.0, 737.0, 738.0, 739.0, 740.0, 740.0, 739.0, 739.0, 739.0, 739.0, 739.0, 740.0, 740.0, 740.0, 740.0, 739.0, 739.0, 739.0, 739.0, 738.0, 739.0, 739.0, 739.0, 739.0, 739.0, 739.0, 740.0, 741.0, 740.0, 738.0, 738.0, 739.0, 738.0, 738.0, 738.0, 739.0, 739.0, 738.0, 739.0, 738.0, 738.0, 738.0],
      "WindowWidth": [1607.0, 1602.0, 1601.0, 1603.0, 1603.0, 1604.0, 1603.0, 1602.0, 1601.0, 1603.0, 1604.0, 1600.0, 1601.0, 1597.0, 1597.0, 1596.0, 1592.0, 1592.0, 1594.0, 1596.0, 1594.0, 1595.0, 1598.0, 1597.0, 1598.0, 1598.0, 1599.0, 1598.0, 1597.0, 1597.0, 1598.0, 1600.0, 1602.0, 1598.0, 1596.0, 1597.0, 1598.0, 1598.0, 1597.0, 1598.0, 1598.0, 1600.0, 1601.0, 1602.0, 1603.0, 1602.0, 1600.0, 1602.0, 1602.0, 1602.0, 1602.0, 1605.0, 1602.0, 1602.0, 1602.0, 1601.0, 1601.0, 1601.0, 1602.0, 1602.0, 1600.0, 1598.0, 1597.0, 1597.0, 1598.0, 1600.0, 1601.0, 1603.0, 1603.0, 1604.0, 1603.0, 1603.0, 1601.0, 1601.0, 1600.0, 1598.0, 1596.0, 1594.0, 1592.0, 1593.0, 1592.0, 1593.0, 1594.0, 1595.0, 1594.0, 1592.0, 1592.0, 1593.0, 1593.0, 1596.0, 1599.0, 1598.0, 1598.0, 1597.0, 1594.0, 1594.0, 1593.0, 1594.0, 1596.0, 1597.0, 1596.0, 1596.0, 1596.0, 1596.0, 1599.0, 1601.0, 1600.0, 1601.0, 1598.0, 1597.0, 1596.0, 1597.0, 1594.0, 1595.0, 1595.0, 1593.0, 1594.0, 1595.0, 1594.0, 1596.0, 1596.0, 1596.0, 1596.0, 1595.0, 1596.0, 1595.0, 1595.0, 1595.0, 1592.0, 1595.0, 1595.0, 1595.0, 1595.0, 1593.0, 1592.0, 1592.0, 1592.0, 1593.0, 1594.0, 1594.0, 1594.0, 1593.0, 1593.0, 1591.0, 1591.0, 1591.0, 1594.0, 1595.0, 1596.0, 1593.0, 1592.0, 1595.0, 1592.0, 1592.0, 1592.0, 1592.0, 1591.0, 1589.0, 1589.0, 1590.0, 1591.0, 1593.0, 1595.0, 1594.0, 1591.0, 1587.0, 1586.0, 1588.0, 1592.0, 1594.0, 1594.0, 1594.0, 1591.0, 1588.0, 1585.0, 1586.0, 1586.0, 1588.0, 1591.0, 1595.0, 1594.0, 1595.0, 1595.0, 1594.0, 1594.0, 1594.0, 1593.0, 1590.0, 1590.0, 1591.0, 1590.0, 1588.0, 1590.0, 1593.0, 1595.0, 1595.0, 1594.0, 1594.0, 1594.0, 1594.0, 1593.0, 1596.0, 1597.0, 1596.0, 1595.0, 1594.0, 1594.0, 1594.0, 1593.0, 1591.0, 1593.0, 1592.0, 1593.0, 1593.0, 1593.0, 1594.0, 1595.0, 1597.0, 1596.0, 1592.0, 1591.0, 1592.0, 1592.0, 1591.0, 1591.0, 1592.0, 1593.0, 1591.0, 1593.0, 1591.0, 1591.0, 1591.0]
    },
    "slices": {}
  }
}