{
  "AcquisitionMatrixPE": 100,
  "AcquisitionNumber": 1,
  "AcquisitionTime": "14:56:50.590000",
  "BandwidthPerPixelPhaseEncode": 18.519,
  "BaseResolution": 100,
  "BodyPartExamined": "BRAIN",
  "ConsistencyInfo": "N4_VE11C_LATEST_20160120",
  "ConversionSoftware": "dcm2niix",
  "ConversionSoftwareVersion": "v1.0.20180622 GCC4.9.2",
  "DerivedVendorReportedEchoSpacing": 0.000539986,
  "DeviceSerialNumber": "166078",
  "DwellTime": 2.1e-06,
  "EchoTime": 0.034,
  "EchoTrainLength": 100,
  "EffectiveEchoSpacing": 0.000539986,
  "FlipAngle": 90,
  "ImageOrientationPatientDICOM": [0.997249, 0.0511658, 0.0536332, -0.0435408, 0.989918, -0.134784],
  "ImageType": [
    "ORIGINAL",
    "PRIMARY",
    "M",
    "ND",
    "MOSAIC"
],
  "InPlanePhaseEncodingDirectionDICOM": "COL",
  "InstitutionAddress": "Street_StreetNo_Bei_Jing_District_CN_ZIP",
  "InstitutionName": "BeiJing_Normal_University",
  "InstitutionalDepartmentName": "Department",
  "MRAcquisitionType": "2D",
  "MagneticFieldStrength": 3,
  "Manufacturer": "Siemens",
  "ManufacturersModelName": "Prisma",
  "Modality": "MR",
  "MultibandAccelerationFactor": 3,
  "PartialFourier": 1,
  "PatientPosition": "HFS",
  "PercentPhaseFOV": 100,
  "PhaseEncodingDirection": "j-",
  "PhaseEncodingSteps": 100,
  "PhaseResolution": 1,
  "PixelBandwidth": 2380,
  "ProcedureStepDescription": "BNU_P2018_64CH_Liu.Jia",
  "ProtocolName": "bold_100x100_s3_2x2x2_232",
  "PulseSequenceDetails": "%SiemensSeq%_ep2d_bold",
  "ReceiveCoilActiveElements": "HC1-7;NC1",
  "ReceiveCoilName": "HeadNeck_64",
  "ReconMatrixPE": 100,
  "RepetitionTime": 2,
  "SAR": 0.0649805,
  "ScanOptions": "FS",
  "ScanningSequence": "EP",
  "SequenceName": "_epfid2d1_100",
  "SequenceVariant": "SK",
  "SeriesDescription": "bold_100x100_s3_2x2x2_232",
  "SeriesNumber": 11,
  "ShimSetting": [-5451, -11491, -1262, 415, -75, -298, -110, -20],
  "SliceThickness": 2,
  "SliceTiming": [1.485, 0, 0.99, 0.0825, 1.0725, 0.165, 1.155, 0.2475, 1.2375, 0.33, 1.32, 0.4125, 1.4025, 0.5775, 1.5675, 0.66, 1.65, 0.7425, 1.7325, 0.825, 1.815, 0.9075, 1.8975, 0.495, 1.485, 0, 0.99, 0.0825, 1.0725, 0.165, 1.155, 0.2475, 1.2375, 0.33, 1.32, 0.4125, 1.4025, 0.5775, 1.5675, 0.66, 1.65, 0.7425, 1.7325, 0.825, 1.815, 0.9075, 1.8975, 0.495, 1.485, 0, 0.99, 0.0825, 1.0725, 0.165, 1.155, 0.2475, 1.2375, 0.33, 1.32, 0.4125, 1.4025, 0.5775, 1.5675, 0.66, 1.65, 0.7425, 1.7325, 0.825, 1.815, 0.9075, 1.8975, 0.495],
  "SoftwareVersions": "syngo_MR_E11",
  "SpacingBetweenSlices": 2,
  "StationName": "AWP166078",
  "TaskName": "motor",
  "TotalReadoutTime": 0.0534586,
  "TxRefAmp": 208.954,
  "dcmmeta_affine": [
    [-1.9944980144500732, -0.08708168566226959, 0.11997761577367783, 102.22037506103516],
    [-0.10233159363269806, 1.979835867881775, -0.26415517926216125, -80.52091979980469],
    [0.10726646333932877, 0.26956722140312195, 1.9788450002670288, -87.7056655883789],
    [0.0, 0.0, 0.0, 1.0]
],
  "dcmmeta_reorient_transform": [
    [0.0, -1.0, 0.0, 99.0],
    [1.0, 0.0, 0.0, 0.0],
    [0.0, 0.0, 1.0, 0.0],
    [0.0, 0.0, 0.0, 1.0]
],
  "dcmmeta_shape": [100, 100, 72, 232],
  "dcmmeta_slice_dim": 2,
  "dcmmeta_version": 0.6,
  "global": {
    "const": {
      "AcquisitionMatrix": [100, 0, 0, 100],
      "AngioFlag": "N",
      "BitsAllocated": 16,
      "BitsStored": 12,
      "BodyPartExamined": "BRAIN",
      "Columns": 900,
      "EchoNumbers": 1,
      "EchoTime": 34.0,
      "EchoTrainLength": 100,
      "FlipAngle": 90.0,
      "HighBit": 11,
      "ImageOrientationPatient": [0.99724898486874, 0.05116579691895, 0.05363323040727, -0.0435408422465, 0.98991796230781, -0.1347836153129],
      "ImagePositionPatient": [-856.56580369227, -948.34984733911, 3.9018014932109],
      "ImageType": [
        "ORIGINAL",
        "PRIMARY",
        "M",
        "ND",
        "MOSAIC"
],
      "ImagedNucleus": "1H",
      "ImagingFrequency": 123.257851,
      "InPlanePhaseEncodingDirection": "COL",
      "MRAcquisitionType": "2D",
      "MagneticFieldStrength": 3.0,
      "Manufacturer": "SIEMENS",
      "ManufacturerModelName": "Prisma",
      "Modality": "MR",
      "NumberOfAverages": 1.0,
      "NumberOfPhaseEncodingSteps": 100,
      "PercentPhaseFieldOfView": 100.0,
      "PercentSampling": 100.0,
      "PerformedProcedureStepStartTime": "140459.700000",
      "PhotometricInterpretation": "MONOCHROME2",
      "PixelBandwidth": 2380.0,
      "PixelRepresentation": 0,
      "PixelSpacing": [2.0, 2.0],
      "ProtocolName": "bold_100x100_s3_2x2x2_232",
      "RepetitionTime": 2000.0,
      "Rows": 900,
      "SAR": 0.06498051807339,
      "SamplesPerPixel": 1,
      "ScanOptions": "FS",
      "ScanningSequence": "EP",
      "SequenceName": "*epfid2d1_100",
      "SequenceVariant": "SK",
      "SeriesDescription": "bold_100x100_s3_2x2x2_232",
      "SeriesNumber": 11,
      "SeriesTime": "145652.981000",
      "SliceLocation": -70.010867231508,
      "SliceThickness": 2.0,
      "SmallestImagePixelValue": 0,
      "SoftwareVersions": "syngo MR E11",
      "SpacingBetweenSlices": 2.0000000082671,
      "SpecificCharacterSet": "ISO_IR 100",
      "StudyID": "1",
      "StudyTime": "140459.643000",
      "TransmitCoilName": "Body",
      "VariableFlipAngleFlag": "N",
      "WindowCenterWidthExplanation": "Algo1",
      "dBdt": 0.0},
    "slices": {}
  },
  "time": {
    "samples": {
      "AcquisitionNumber": [1, 2, 3, 4, 5, 6, 7, 8, 9, 10, 11, 12, 13, 14, 15, 16, 17, 18, 19, 20, 21, 22, 23, 24, 25, 26, 27, 28, 29, 30, 31, 32, 33, 34, 35, 36, 37, 38, 39, 40, 41, 42, 43, 44, 45, 46, 47, 48, 49, 50, 51, 52, 53, 54, 55, 56, 57, 58, 59, 60, 61, 62, 63, 64, 65, 66, 67, 68, 69, 70, 71, 72, 73, 74, 75, 76, 77, 78, 79, 80, 81, 82, 83, 84, 85, 86, 87, 88, 89, 90, 91, 92, 93, 94, 95, 96, 97, 98, 99, 100, 101, 102, 103, 104, 105, 106, 107, 108, 109, 110, 111, 112, 113, 114, 115, 116, 117, 118, 119, 120, 121, 122, 123, 124, 125, 126, 127, 128, 129, 130, 131, 132, 133, 134, 135, 136, 137, 138, 139, 140, 141, 142, 143, 144, 145, 146, 147, 148, 149, 150, 151, 152, 153, 154, 155, 156, 157, 158, 159, 160, 161, 162, 163, 164, 165, 166, 167, 168, 169, 170, 171, 172, 173, 174, 175, 176, 177, 178, 179, 180, 181, 182, 183, 184, 185, 186, 187, 188, 189, 190, 191, 192, 193, 194, 195, 196, 197, 198, 199, 200, 201, 202, 203, 204, 205, 206, 207, 208, 209, 210, 211, 212, 213, 214, 215, 216, 217, 218, 219, 220, 221, 222, 223, 224, 225, 226, 227, 228, 229, 230, 231, 232],
      "AcquisitionTime": ["145650.590000", "145652.590000", "145654.590000", "145656.590000", "145658.590000", "145700.590000", "145702.590000", "145704.590000", "145706.590000", "145708.590000", "145710.590000", "145712.590000", "145714.590000", "145716.590000", "145718.590000", "145720.590000", "145722.590000", "145724.590000", "145726.590000", "145728.590000", "145730.590000", "145732.590000", "145734.590000", "145736.590000", "145738.590000", "145740.590000", "145742.590000", "145744.590000", "145746.590000", "145748.590000", "145750.590000", "145752.590000", "145754.590000", "145756.590000", "145758.590000", "145800.590000", "145802.590000", "145804.590000", "145806.590000", "145808.590000", "145810.590000", "145812.590000", "145814.590000", "145816.590000", "145818.590000", "145820.590000", "145822.590000", "145824.590000", "145826.590000", "145828.590000", "145830.590000", "145832.590000", "145834.590000", "145836.590000", "145838.590000", "145840.590000", "145842.590000", "145844.590000", "145846.590000", "145848.590000", "145850.590000", "145852.590000", "145854.590000", "145856.590000", "145858.590000", "145900.590000", "145902.590000", "145904.590000", "145906.590000", "145908.590000", "145910.590000", "145912.590000", "145914.590000", "145916.590000", "145918.590000", "145920.590000", "145922.590000", "145924.590000", "145926.590000", "145928.590000", "145930.590000", "145932.590000", "145934.590000", "145936.590000", "145938.590000", "145940.590000", "145942.590000", "145944.590000", "145946.590000", "145948.590000", "145950.590000", "145952.590000", "145954.590000", "145956.590000", "145958.590000", "150000.590000", "150002.590000", "150004.590000", "150006.590000", "150008.590000", "150010.590000", "150012.590000", "150014.590000", "150016.590000", "150018.590000", "150020.590000", "150022.590000", "150024.590000", "150026.590000", "150028.590000", "150030.590000", "150032.590000", "150034.590000", "150036.590000", "150038.590000", "150040.590000", "150042.590000", "150044.590000", "150046.590000", "150048.590000", "150050.590000", "150052.590000", "150054.590000", "150056.590000", "150058.590000", "150100.590000", "150102.590000", "150104.590000", "150106.590000", "150108.590000", "150110.590000", "150112.590000", "150114.590000", "150116.590000", "150118.590000", "150120.590000", "150122.590000", "150124.590000", "150126.590000", "150128.590000", "150130.590000", "150132.590000", "150134.590000", "150136.590000", "150138.590000", "150140.590000", "150142.590000", "150144.590000", "150146.590000", "150148.590000", "150150.590000", "150152.590000", "150154.590000", "150156.590000", "150158.590000", "150200.590000", "150202.590000", "150204.590000", "150206.590000", "150208.590000", "150210.590000", "150212.590000", "150214.590000", "150216.590000", "150218.590000", "150220.590000", "150222.590000", "150224.590000", "150226.590000", "150228.590000", "150230.590000", "150232.590000", "150234.590000", "150236.590000", "150238.590000", "150240.590000", "150242.590000", "150244.590000", "150246.590000", "150248.590000", "150250.590000", "150252.590000", "150254.590000", "150256.590000", "150258.590000", "150300.590000", "150302.590000", "150304.590000", "150306.590000", "150308.590000", "150310.590000", "150312.590000", "150314.590000", "150316.590000", "150318.590000", "150320.590000", "150322.590000", "150324.590000", "150326.590000", "150328.590000", "150330.590000", "150332.590000", "150334.590000", "150336.590000", "150338.590000", "150340.590000", "150342.590000", "150344.590000", "150346.590000", "150348.590000", "150350.590000", "150352.590000", "150354.590000", "150356.590000", "150358.590000", "150400.590000", "150402.590000", "150404.590000", "150406.590000", "150408.590000", "150410.590000", "150412.590000", "150414.590000", "150416.590000", "150418.590000", "150420.590000", "150422.590000", "150424.590000", "150426.590000", "150428.590000", "150430.590000", "150432.590000"],
      "ContentTime": ["145652.985000", "145654.481000", "145656.479000", "145658.480000", "145700.479000", "145702.479000", "145704.480000", "145706.479000", "145708.481000", "145710.480000", "145712.480000", "145714.480000", "145716.480000", "145718.480000", "145720.479000", "145722.480000", "145724.480000", "145726.481000", "145728.480000", "145730.481000", "145732.479000", "145734.479000", "145736.479000", "145738.479000", "145740.479000", "145742.480000", "145744.481000", "145746.480000", "145748.479000", "145750.479000", "145752.479000", "145754.479000", "145756.479000", "145758.480000", "145800.480000", "145802.480000", "145804.480000", "145806.479000", "145808.479000", "145810.479000", "145812.480000", "145814.479000", "145816.480000", "145818.480000", "145820.480000", "145822.480000", "145824.479000", "145826.479000", "145828.480000", "145830.479000", "145832.479000", "145834.479000", "145836.481000", "145838.480000", "145840.481000", "145842.479000", "145844.479000", "145846.480000", "145848.479000", "145850.480000", "145852.480000", "145854.480000", "145856.480000", "145858.480000", "145900.479000", "145902.479000", "145904.480000", "145906.479000", "145908.480000", "145910.480000", "145912.481000", "145914.481000", "145916.480000", "145918.479000", "145920.479000", "145922.480000", "145924.479000", "145926.479000", "145928.480000", "145930.480000", "145932.480000", "145934.479000", "145936.480000", "145938.479000", "145940.480000", "145942.479000", "145944.480000", "145946.481000", "145948.481000", "145950.481000", "145952.480000", "145954.479000", "145956.479000", "145958.480000", "150000.480000", "150002.480000", "150004.481000", "150006.480000", "150008.480000", "150010.479000", "150012.480000", "150014.479000", "150016.480000", "150018.480000", "150020.480000", "150022.480000", "150024.480000", "150026.479000", "150028.480000", "150030.480000", "150032.480000", "150034.479000", "150036.480000", "150038.481000", "150040.481000", "150042.480000", "150044.480000", "150046.480000", "150048.480000", "150050.479000", "150052.479000", "150054.479000", "150056.481000", "150058.480000", "150100.481000", "150102.479000", "150104.479000", "150106.480000", "150108.480000", "150110.479000", "150112.479000", "150114.480000", "150116.481000", "150118.480000", "150120.479000", "150122.480000", "150124.479000", "150126.479000", "150128.480000", "150130.481000", "150132.481000", "150134.480000", "150136.479000", "150138.480000", "150140.480000", "150142.479000", "150144.480000", "150146.479000", "150148.481000", "150150.481000", "150152.481000", "150154.480000", "150156.479000", "150158.479000", "150200.479000", "150202.479000", "150204.479000", "150206.481000", "150208.481000", "150210.481000", "150212.480000", "150214.479000", "150216.479000", "150218.479000", "150220.480000", "150222.479000", "150224.480000", "150226.481000", "150228.479000", "150230.480000", "150232.479000", "150234.480000", "150236.480000", "150238.479000", "150240.481000", "150242.481000", "150244.493000", "150246.479000", "150248.479000", "150250.480000", "150252.480000", "150254.479000", "150256.479000", "150258.480000", "150300.481000", "150302.481000", "150304.480000", "150306.480000", "150308.479000", "150310.479000", "150312.480000", "150314.480000", "150316.480000", "150318.481000", "150320.481000", "150322.479000", "150324.479000", "150326.479000", "150328.480000", "150330.479000", "150332.480000", "150334.481000", "150336.481000", "150338.479000", "150340.480000", "150342.480000", "150344.480000", "150346.479000", "150348.480000", "150350.481000", "150352.481000", "150354.480000", "150356.479000", "150358.480000", "150400.480000", "150402.479000", "150404.479000", "150406.479000", "150408.481000", "150410.481000", "150412.481000", "150414.479000", "150416.479000", "150418.480000", "150420.479000", "150422.480000", "150424.479000", "150426.481000", "150428.481000", "150430.481000", "150432.479000", "150433.982000"],
      "InstanceCreationTime": ["145652.985000", "145654.481000", "145656.479000", "145658.480000", "145700.479000", "145702.479000", "145704.480000", "145706.479000", "145708.481000", "145710.480000", "145712.480000", "145714.480000", "145716.480000", "145718.480000", "145720.479000", "145722.480000", "145724.480000", "145726.481000", "145728.480000", "145730.481000", "145732.479000", "145734.479000", "145736.479000", "145738.479000", "145740.479000", "145742.480000", "145744.481000", "145746.480000", "145748.479000", "145750.479000", "145752.479000", "145754.479000", "145756.479000", "145758.480000", "145800.480000", "145802.480000", "145804.480000", "145806.479000", "145808.479000", "145810.479000", "145812.480000", "145814.479000", "145816.480000", "145818.480000", "145820.480000", "145822.480000", "145824.479000", "145826.479000", "145828.480000", "145830.479000", "145832.479000", "145834.479000", "145836.481000", "145838.480000", "145840.481000", "145842.479000", "145844.479000", "145846.480000", "145848.479000", "145850.480000", "145852.480000", "145854.480000", "145856.480000", "145858.480000", "145900.479000", "145902.479000", "145904.480000", "145906.479000", "145908.480000", "145910.480000", "145912.481000", "145914.481000", "145916.480000", "145918.479000", "145920.479000", "145922.480000", "145924.479000", "145926.479000", "145928.480000", "145930.480000", "145932.480000", "145934.479000", "145936.480000", "145938.479000", "145940.480000", "145942.479000", "145944.480000", "145946.481000", "145948.481000", "145950.481000", "145952.480000", "145954.479000", "145956.479000", "145958.480000", "150000.480000", "150002.480000", "150004.481000", "150006.480000", "150008.480000", "150010.479000", "150012.480000", "150014.479000", "150016.480000", "150018.480000", "150020.480000", "150022.480000", "150024.480000", "150026.479000", "150028.480000", "150030.480000", "150032.480000", "150034.479000", "150036.480000", "150038.481000", "150040.481000", "150042.480000", "150044.480000", "150046.480000", "150048.480000", "150050.479000", "150052.479000", "150054.479000", "150056.481000", "150058.480000", "150100.481000", "150102.479000", "150104.479000", "150106.480000", "150108.480000", "150110.479000", "150112.479000", "150114.480000", "150116.481000", "150118.480000", "150120.479000", "150122.480000", "150124.479000", "150126.479000", "150128.480000", "150130.481000", "150132.481000", "150134.480000", "150136.479000", "150138.480000", "150140.480000", "150142.479000", "150144.480000", "150146.479000", "150148.481000", "150150.481000", "150152.481000", "150154.480000", "150156.479000", "150158.479000", "150200.479000", "150202.479000", "150204.479000", "150206.481000", "150208.481000", "150210.481000", "150212.480000", "150214.479000", "150216.479000", "150218.479000", "150220.480000", "150222.479000", "150224.480000", "150226.481000", "150228.479000", "150230.480000", "150232.479000", "150234.480000", "150236.480000", "150238.479000", "150240.481000", "150242.481000", "150244.493000", "150246.479000", "150248.479000", "150250.480000", "150252.480000", "150254.479000", "150256.479000", "150258.480000", "150300.481000", "150302.481000", "150304.480000", "150306.480000", "150308.479000", "150310.479000", "150312.480000", "150314.480000", "150316.480000", "150318.481000", "150320.481000", "150322.479000", "150324.479000", "150326.479000", "150328.480000", "150330.479000", "150332.480000", "150334.481000", "150336.481000", "150338.479000", "150340.480000", "150342.480000", "150344.480000", "150346.479000", "150348.480000", "150350.481000", "150352.481000", "150354.480000", "150356.479000", "150358.480000", "150400.480000", "150402.479000", "150404.479000", "150406.479000", "150408.481000", "150410.481000", "150412.481000", "150414.479000", "150416.479000", "150418.480000", "150420.479000", "150422.480000", "150424.479000", "150426.481000", "150428.481000", "150430.481000", "150432.479000", "150433.982000"],
      "InstanceNumber": [1, 2, 3, 4, 5, 6, 7, 8, 9, 10, 11, 12, 13, 14, 15, 16, 17, 18, 19, 20, 21, 22, 23, 24, 25, 26, 27, 28, 29, 30, 31, 32, 33, 34, 35, 36, 37, 38, 39, 40, 41, 42, 43, 44, 45, 46, 47, 48, 49, 50, 51, 52, 53, 54, 55, 56, 57, 58, 59, 60, 61, 62, 63, 64, 65, 66, 67, 68, 69, 70, 71, 72, 73, 74, 75, 76, 77, 78, 79, 80, 81, 82, 83, 84, 85, 86, 87, 88, 89, 90, 91, 92, 93, 94, 95, 96, 97, 98, 99, 100, 101, 102, 103, 104, 105, 106, 107, 108, 109, 110, 111, 112, 113, 114, 115, 116, 117, 118, 119, 120, 121, 122, 123, 124, 125, 126, 127, 128, 129, 130, 131, 132, 133, 134, 135, 136, 137, 138, 139, 140, 141, 142, 143, 144, 145, 146, 147, 148, 149, 150, 151, 152, 153, 154, 155, 156, 157, 158, 159, 160, 161, 162, 163, 164, 165, 166, 167, 168, 169, 170, 171, 172, 173, 174, 175, 176, 177, 178, 179, 180, 181, 182, 183, 184, 185, 186, 187, 188, 189, 190, 191, 192, 193, 194, 195, 196, 197, 198, 199, 200, 201, 202, 203, 204, 205, 206, 207, 208, 209, 210, 211, 212, 213, 214, 215, 216, 217, 218, 219, 220, 221, 222, 223, 224, 225, 226, 227, 228, 229, 230, 231, 232],
      "LargestImagePixelValue": [4095, 4095, 4066, 4095, 4095, 4095, 4095, 4095, 4095, 4085, 4095, 4084, 4095, 4083, 4095, 4095, 4095, 4095, 4095, 4095, 4095, 4095, 4095, 4095, 4095, 4095, 4095, 3982, 4095, 4095, 4095, 4095, 4095, 4095, 4017, 4095, 3984, 4095, 4095, 4095, 4095, 4095, 4055, 4095, 4095, 4095, 4095, 4095, 4095, 4095, 4095, 4082, 4095, 4095, 4095, 4095, 4095, 4087, 4095, 4095, 4095, 3991, 4095, 4095, 4048, 4095, 4063, 4095, 4095, 4095, 4095, 4095, 4095, 4011, 4071, 4042, 4026, 4095, 4006, 3939, 3987, 4095, 4004, 4095, 4095, 4095, 4095, 4095, 4095, 4095, 3981, 4095, 4095, 3961, 4095, 4095, 4095, 4069, 4063, 4065, 4060, 4095, 4052, 4091, 4095, 4095, 4095, 4095, 4095, 4095, 4095, 4095, 4040, 4086, 4095, 4006, 4095, 4058, 4051, 4070, 4063, 4095, 4095, 4095, 4095, 4095, 4095, 4095, 4095, 4095, 4095, 4084, 4095, 4080, 4095, 4091, 4070, 4095, 4095, 4095, 4095, 4071, 4086, 4095, 4095, 4095, 4090, 4095, 4094, 4095, 4095, 4095, 4052, 4095, 4095, 4086, 4095, 4095, 4095, 4095, 4095, 4095, 4092, 4095, 4095, 4092, 4086, 4095, 4095, 4095, 4077, 4095, 4084, 4095, 4081, 4095, 4095, 4083, 4077, 4095, 4095, 4085, 4067, 4090, 4095, 4095, 4095, 4095, 4091, 4095, 4088, 4095, 4095, 4083, 4087, 4095, 4075, 4095, 4092, 4089, 4095, 4095, 4095, 4087, 4095, 4095, 4095, 4095, 4056, 4095, 4095, 4095, 3962, 4016, 4095, 4045, 3975, 4002, 4006, 4060, 3976, 4089, 4095, 4095, 4095, 4095, 4095, 4095, 4095, 4095, 4095, 4095],
      "WindowCenter": [800.0, 798.0, 799.0, 798.0, 798.0, 800.0, 800.0, 798.0, 798.0, 798.0, 797.0, 798.0, 799.0, 798.0, 797.0, 797.0, 798.0, 801.0, 800.0, 801.0, 801.0, 801.0, 800.0, 799.0, 800.0, 797.0, 797.0, 794.0, 793.0, 796.0, 797.0, 797.0, 797.0, 797.0, 797.0, 798.0, 798.0, 799.0, 801.0, 801.0, 802.0, 799.0, 798.0, 798.0, 799.0, 800.0, 799.0, 799.0, 799.0, 799.0, 799.0, 799.0, 799.0, 799.0, 799.0, 799.0, 799.0, 800.0, 801.0, 802.0, 800.0, 799.0, 799.0, 798.0, 798.0, 799.0, 800.0, 800.0, 800.0, 801.0, 801.0, 800.0, 798.0, 798.0, 799.0, 799.0, 799.0, 800.0, 799.0, 798.0, 796.0, 797.0, 795.0, 793.0, 793.0, 794.0, 796.0, 797.0, 798.0, 796.0, 795.0, 796.0, 798.0, 794.0, 798.0, 796.0, 799.0, 798.0, 798.0, 799.0, 799.0, 800.0, 799.0, 799.0, 800.0, 801.0, 802.0, 802.0, 800.0, 799.0, 799.0, 799.0, 799.0, 799.0, 799.0, 800.0, 799.0, 797.0, 797.0, 798.0, 799.0, 799.0, 799.0, 798.0, 799.0, 800.0, 800.0, 799.0, 799.0, 800.0, 801.0, 801.0, 800.0, 799.0, 799.0, 799.0, 799.0, 798.0, 797.0, 797.0, 796.0, 794.0, 794.0, 795.0, 799.0, 799.0, 798.0, 798.0, 798.0, 799.0, 801.0, 801.0, 799.0, 798.0, 799.0, 798.0, 796.0, 798.0, 798.0, 798.0, 798.0, 799.0, 800.0, 800.0, 800.0, 799.0, 799.0, 799.0, 799.0, 800.0, 801.0, 800.0, 800.0, 799.0, 799.0, 799.0, 798.0, 798.0, 799.0, 799.0, 799.0, 799.0, 798.0, 800.0, 801.0, 800.0, 799.0, 799.0, 799.0, 800.0, 799.0, 799.0, 799.0, 801.0, 801.0, 801.0, 800.0, 800.0, 801.0, 801.0, 801.0, 800.0, 799.0, 797.0, 798.0, 795.0, 795.0, 795.0, 797.0, 799.0, 800.0, 798.0, 796.0, 797.0, 798.0, 798.0, 797.0, 797.0, 793.0, 792.0, 793.0, 795.0, 796.0, 797.0, 798.0, 798.0, 799.0, 798.0, 799.0, 799.0, 799.0, 800.0],
      "WindowWidth": [1777.0, 1773.0, 1773.0, 1772.0, 1773.0, 1777.0, 1776.0, 1772.0, 1771.0, 1771.0, 1770.0, 1773.0, 1776.0, 1770.0, 1768.0, 1770.0, 1771.0, 1781.0, 1779.0, 1782.0, 1783.0, 1782.0, 1780.0, 1777.0, 1777.0, 1768.0, 1769.0, 1759.0, 1757.0, 1765.0, 1767.0, 1768.0, 1768.0, 1767.0, 1769.0, 1772.0, 1771.0, 1776.0, 1781.0, 1783.0, 1783.0, 1776.0, 1773.0, 1771.0, 1775.0, 1776.0, 1775.0, 1775.0, 1774.0, 1775.0, 1773.0, 1775.0, 1775.0, 1775.0, 1775.0, 1774.0, 1776.0, 1779.0, 1781.0, 1784.0, 1778.0, 1774.0, 1776.0, 1771.0, 1770.0, 1775.0, 1776.0, 1777.0, 1777.0, 1780.0, 1781.0, 1777.0, 1771.0, 1770.0, 1775.0, 1773.0, 1775.0, 1778.0, 1773.0, 1771.0, 1764.0, 1767.0, 1763.0, 1756.0, 1756.0, 1761.0, 1764.0, 1768.0, 1770.0, 1765.0, 1763.0, 1765.0, 1771.0, 1759.0, 1773.0, 1764.0, 1775.0, 1770.0, 1770.0, 1773.0, 1775.0, 1777.0, 1775.0, 1775.0, 1778.0, 1780.0, 1785.0, 1783.0, 1779.0, 1776.0, 1775.0, 1775.0, 1774.0, 1774.0, 1776.0, 1776.0, 1774.0, 1767.0, 1767.0, 1771.0, 1774.0, 1775.0, 1775.0, 1772.0, 1773.0, 1777.0, 1777.0, 1775.0, 1774.0, 1777.0, 1781.0, 1781.0, 1779.0, 1774.0, 1774.0, 1775.0, 1774.0, 1772.0, 1769.0, 1769.0, 1764.0, 1761.0, 1758.0, 1762.0, 1774.0, 1775.0, 1771.0, 1770.0, 1771.0, 1775.0, 1780.0, 1780.0, 1774.0, 1772.0, 1774.0, 1769.0, 1765.0, 1769.0, 1770.0, 1772.0, 1771.0, 1775.0, 1775.0, 1777.0, 1777.0, 1774.0, 1772.0, 1774.0, 1775.0, 1777.0, 1778.0, 1778.0, 1776.0, 1774.0, 1774.0, 1773.0, 1771.0, 1769.0, 1773.0, 1774.0, 1775.0, 1773.0, 1773.0, 1776.0, 1780.0, 1777.0, 1773.0, 1773.0, 1775.0, 1776.0, 1774.0, 1775.0, 1776.0, 1779.0, 1781.0, 1781.0, 1778.0, 1776.0, 1780.0, 1782.0, 1781.0, 1777.0, 1777.0, 1770.0, 1770.0, 1764.0, 1763.0, 1762.0, 1769.0, 1774.0, 1776.0, 1771.0, 1765.0, 1767.0, 1770.0, 1771.0, 1766.0, 1765.0, 1755.0, 1753.0, 1755.0, 1760.0, 1765.0, 1769.0, 1770.0, 1771.0, 1773.0, 1772.0, 1773.0, 1775.0, 1776.0, 1779.0]
    },
    "slices": {}
  }
}