{
  "AcquisitionMatrixPE": 100,
  "AcquisitionNumber": 1,
  "AcquisitionTime": "14:28:5.285000",
  "BandwidthPerPixelPhaseEncode": 18.519,
  "BaseResolution": 100,
  "BodyPartExamined": "BRAIN",
  "ConsistencyInfo": "N4_VE11C_LATEST_20160120",
  "ConversionSoftware": "dcm2niix",
  "ConversionSoftwareVersion": "v1.0.20180622 GCC4.9.2",
  "DerivedVendorReportedEchoSpacing": 0.000539986,
  "DeviceSerialNumber": "166078",
  "DwellTime": 2.1e-06,
  "EchoTime": 0.034,
  "EchoTrainLength": 100,
  "EffectiveEchoSpacing": 0.000539986,
  "FlipAngle": 90,
  "ImageOrientationPatientDICOM": [0.997249, 0.0511658, 0.0536332, -0.0435408, 0.989918, -0.134784],
  "ImageType": [
    "ORIGINAL",
    "PRIMARY",
    "M",
    "ND",
    "MOSAIC"
],
  "InPlanePhaseEncodingDirectionDICOM": "COL",
  "InstitutionAddress": "Street_StreetNo_Bei_Jing_District_CN_ZIP",
  "InstitutionName": "BeiJing_Normal_University",
  "InstitutionalDepartmentName": "Department",
  "MRAcquisitionType": "2D",
  "MagneticFieldStrength": 3,
  "Manufacturer": "Siemens",
  "ManufacturersModelName": "Prisma",
  "Modality": "MR",
  "MultibandAccelerationFactor": 3,
  "PartialFourier": 1,
  "PatientPosition": "HFS",
  "PercentPhaseFOV": 100,
  "PhaseEncodingDirection": "j-",
  "PhaseEncodingSteps": 100,
  "PhaseResolution": 1,
  "PixelBandwidth": 2380,
  "ProcedureStepDescription": "BNU_P2018_64CH_Liu.Jia",
  "ProtocolName": "bold_100x100_s3_2x2x2_232",
  "PulseSequenceDetails": "%SiemensSeq%_ep2d_bold",
  "ReceiveCoilActiveElements": "HC1-7;NC1",
  "ReceiveCoilName": "HeadNeck_64",
  "ReconMatrixPE": 100,
  "RepetitionTime": 2,
  "SAR": 0.0649805,
  "ScanOptions": "FS",
  "ScanningSequence": "EP",
  "SequenceName": "_epfid2d1_100",
  "SequenceVariant": "SK",
  "SeriesDescription": "bold_100x100_s3_2x2x2_232",
  "SeriesNumber": 6,
  "ShimSetting": [-5451, -11491, -1262, 415, -75, -298, -110, -20],
  "SliceThickness": 2,
  "SliceTiming": [1.485, 0, 0.99, 0.0825, 1.0725, 0.165, 1.155, 0.2475, 1.2375, 0.33, 1.32, 0.4125, 1.4025, 0.5775, 1.5675, 0.66, 1.65, 0.7425, 1.7325, 0.825, 1.815, 0.9075, 1.8975, 0.495, 1.485, 0, 0.99, 0.0825, 1.0725, 0.165, 1.155, 0.2475, 1.2375, 0.33, 1.32, 0.4125, 1.4025, 0.5775, 1.5675, 0.66, 1.65, 0.7425, 1.7325, 0.825, 1.815, 0.9075, 1.8975, 0.495, 1.485, 0, 0.99, 0.0825, 1.0725, 0.165, 1.155, 0.2475, 1.2375, 0.33, 1.32, 0.4125, 1.4025, 0.5775, 1.5675, 0.66, 1.65, 0.7425, 1.7325, 0.825, 1.815, 0.9075, 1.8975, 0.495],
  "SoftwareVersions": "syngo_MR_E11",
  "SpacingBetweenSlices": 2,
  "StationName": "AWP166078",
  "TaskName": "motor",
  "TotalReadoutTime": 0.0534586,
  "TxRefAmp": 208.954,
  "dcmmeta_affine": [
    [-1.9944980144500732, -0.08708168566226959, 0.11997761577367783, 102.22037506103516],
    [-0.10233159363269806, 1.979835867881775, -0.26415517926216125, -80.52091979980469],
    [0.10726646333932877, 0.26956722140312195, 1.9788450002670288, -87.7056655883789],
    [0.0, 0.0, 0.0, 1.0]
],
  "dcmmeta_reorient_transform": [
    [0.0, -1.0, 0.0, 99.0],
    [1.0, 0.0, 0.0, 0.0],
    [0.0, 0.0, 1.0, 0.0],
    [0.0, 0.0, 0.0, 1.0]
],
  "dcmmeta_shape": [100, 100, 72, 232],
  "dcmmeta_slice_dim": 2,
  "dcmmeta_version": 0.6,
  "global": {
    "const": {
      "AcquisitionMatrix": [100, 0, 0, 100],
      "AngioFlag": "N",
      "BitsAllocated": 16,
      "BitsStored": 12,
      "BodyPartExamined": "BRAIN",
      "Columns": 900,
      "EchoNumbers": 1,
      "EchoTime": 34.0,
      "EchoTrainLength": 100,
      "FlipAngle": 90.0,
      "HighBit": 11,
      "ImageOrientationPatient": [0.99724898486874, 0.05116579691895, 0.05363323040727, -0.0435408422465, 0.98991796230781, -0.1347836153129],
      "ImagePositionPatient": [-856.56580369227, -948.34984733911, 3.9018014932109],
      "ImageType": [
        "ORIGINAL",
        "PRIMARY",
        "M",
        "ND",
        "MOSAIC"
],
      "ImagedNucleus": "1H",
      "ImagingFrequency": 123.257847,
      "InPlanePhaseEncodingDirection": "COL",
      "MRAcquisitionType": "2D",
      "MagneticFieldStrength": 3.0,
      "Manufacturer": "SIEMENS",
      "ManufacturerModelName": "Prisma",
      "Modality": "MR",
      "NumberOfAverages": 1.0,
      "NumberOfPhaseEncodingSteps": 100,
      "PercentPhaseFieldOfView": 100.0,
      "PercentSampling": 100.0,
      "PerformedProcedureStepStartTime": "140459.700000",
      "PhotometricInterpretation": "MONOCHROME2",
      "PixelBandwidth": 2380.0,
      "PixelRepresentation": 0,
      "PixelSpacing": [2.0, 2.0],
      "ProtocolName": "bold_100x100_s3_2x2x2_232",
      "RepetitionTime": 2000.0,
      "Rows": 900,
      "SAR": 0.06498051807339,
      "SamplesPerPixel": 1,
      "ScanOptions": "FS",
      "ScanningSequence": "EP",
      "SequenceName": "*epfid2d1_100",
      "SequenceVariant": "SK",
      "SeriesDescription": "bold_100x100_s3_2x2x2_232",
      "SeriesNumber": 6,
      "SeriesTime": "142807.894000",
      "SliceLocation": -70.010867231508,
      "SliceThickness": 2.0,
      "SmallestImagePixelValue": 0,
      "SoftwareVersions": "syngo MR E11",
      "SpacingBetweenSlices": 2.0000000082671,
      "SpecificCharacterSet": "ISO_IR 100",
      "StudyID": "1",
      "StudyTime": "140459.643000",
      "TransmitCoilName": "Body",
      "VariableFlipAngleFlag": "N",
      "WindowCenterWidthExplanation": "Algo1",
      "dBdt": 0.0},
    "slices": {}
  },
  "time": {
    "samples": {
      "AcquisitionNumber": [1, 2, 3, 4, 5, 6, 7, 8, 9, 10, 11, 12, 13, 14, 15, 16, 17, 18, 19, 20, 21, 22, 23, 24, 25, 26, 27, 28, 29, 30, 31, 32, 33, 34, 35, 36, 37, 38, 39, 40, 41, 42, 43, 44, 45, 46, 47, 48, 49, 50, 51, 52, 53, 54, 55, 56, 57, 58, 59, 60, 61, 62, 63, 64, 65, 66, 67, 68, 69, 70, 71, 72, 73, 74, 75, 76, 77, 78, 79, 80, 81, 82, 83, 84, 85, 86, 87, 88, 89, 90, 91, 92, 93, 94, 95, 96, 97, 98, 99, 100, 101, 102, 103, 104, 105, 106, 107, 108, 109, 110, 111, 112, 113, 114, 115, 116, 117, 118, 119, 120, 121, 122, 123, 124, 125, 126, 127, 128, 129, 130, 131, 132, 133, 134, 135, 136, 137, 138, 139, 140, 141, 142, 143, 144, 145, 146, 147, 148, 149, 150, 151, 152, 153, 154, 155, 156, 157, 158, 159, 160, 161, 162, 163, 164, 165, 166, 167, 168, 169, 170, 171, 172, 173, 174, 175, 176, 177, 178, 179, 180, 181, 182, 183, 184, 185, 186, 187, 188, 189, 190, 191, 192, 193, 194, 195, 196, 197, 198, 199, 200, 201, 202, 203, 204, 205, 206, 207, 208, 209, 210, 211, 212, 213, 214, 215, 216, 217, 218, 219, 220, 221, 222, 223, 224, 225, 226, 227, 228, 229, 230, 231, 232],
      "AcquisitionTime": ["142805.285000", "142807.285000", "142809.285000", "142811.285000", "142813.285000", "142815.285000", "142817.285000", "142819.285000", "142821.285000", "142823.285000", "142825.285000", "142827.285000", "142829.285000", "142831.285000", "142833.285000", "142835.285000", "142837.285000", "142839.285000", "142841.285000", "142843.285000", "142845.285000", "142847.285000", "142849.285000", "142851.285000", "142853.285000", "142855.285000", "142857.285000", "142859.285000", "142901.285000", "142903.285000", "142905.285000", "142907.285000", "142909.285000", "142911.285000", "142913.285000", "142915.285000", "142917.285000", "142919.285000", "142921.285000", "142923.285000", "142925.285000", "142927.285000", "142929.285000", "142931.285000", "142933.285000", "142935.285000", "142937.285000", "142939.285000", "142941.285000", "142943.285000", "142945.285000", "142947.285000", "142949.285000", "142951.285000", "142953.285000", "142955.285000", "142957.285000", "142959.285000", "143001.285000", "143003.285000", "143005.285000", "143007.285000", "143009.285000", "143011.285000", "143013.285000", "143015.285000", "143017.285000", "143019.285000", "143021.285000", "143023.285000", "143025.285000", "143027.285000", "143029.285000", "143031.285000", "143033.285000", "143035.285000", "143037.285000", "143039.285000", "143041.285000", "143043.285000", "143045.285000", "143047.285000", "143049.285000", "143051.285000", "143053.285000", "143055.285000", "143057.285000", "143059.285000", "143101.285000", "143103.285000", "143105.285000", "143107.285000", "143109.285000", "143111.285000", "143113.285000", "143115.285000", "143117.285000", "143119.285000", "143121.285000", "143123.285000", "143125.285000", "143127.285000", "143129.285000", "143131.285000", "143133.285000", "143135.285000", "143137.285000", "143139.285000", "143141.285000", "143143.285000", "143145.285000", "143147.285000", "143149.285000", "143151.285000", "143153.285000", "143155.285000", "143157.285000", "143159.285000", "143201.285000", "143203.285000", "143205.285000", "143207.285000", "143209.285000", "143211.285000", "143213.285000", "143215.285000", "143217.285000", "143219.285000", "143221.285000", "143223.285000", "143225.285000", "143227.285000", "143229.285000", "143231.285000", "143233.285000", "143235.285000", "143237.285000", "143239.285000", "143241.285000", "143243.285000", "143245.285000", "143247.285000", "143249.285000", "143251.285000", "143253.285000", "143255.285000", "143257.285000", "143259.285000", "143301.285000", "143303.285000", "143305.285000", "143307.285000", "143309.285000", "143311.285000", "143313.285000", "143315.285000", "143317.285000", "143319.285000", "143321.285000", "143323.285000", "143325.285000", "143327.285000", "143329.285000", "143331.285000", "143333.285000", "143335.285000", "143337.285000", "143339.285000", "143341.285000", "143343.285000", "143345.285000", "143347.285000", "143349.285000", "143351.285000", "143353.285000", "143355.285000", "143357.285000", "143359.285000", "143401.285000", "143403.285000", "143405.285000", "143407.285000", "143409.285000", "143411.285000", "143413.285000", "143415.285000", "143417.285000", "143419.285000", "143421.285000", "143423.285000", "143425.285000", "143427.285000", "143429.285000", "143431.285000", "143433.285000", "143435.285000", "143437.285000", "143439.285000", "143441.285000", "143443.285000", "143445.285000", "143447.285000", "143449.285000", "143451.285000", "143453.285000", "143455.285000", "143457.285000", "143459.285000", "143501.285000", "143503.285000", "143505.285000", "143507.285000", "143509.285000", "143511.285000", "143513.285000", "143515.285000", "143517.285000", "143519.285000", "143521.285000", "143523.285000", "143525.285000", "143527.285000", "143529.285000", "143531.285000", "143533.285000", "143535.285000", "143537.285000", "143539.285000", "143541.285000", "143543.285000", "143545.285000", "143547.285000"],
      "ContentTime": ["142807.897000", "142809.383000", "142811.384000", "142813.383000", "142815.383000", "142817.385000", "142819.384000", "142821.383000", "142823.383000", "142825.383000", "142827.383000", "142829.383000", "142831.384000", "142833.384000", "142835.384000", "142837.384000", "142839.383000", "142841.383000", "142843.383000", "142845.383000", "142847.383000", "142849.383000", "142851.384000", "142853.384000", "142855.383000", "142857.384000", "142859.383000", "142901.384000", "142903.384000", "142905.383000", "142907.383000", "142909.384000", "142911.385000", "142913.383000", "142915.383000", "142917.384000", "142919.383000", "142921.383000", "142923.383000", "142925.383000", "142927.384000", "142929.384000", "142931.384000", "142933.383000", "142935.383000", "142937.383000", "142939.383000", "142941.383000", "142943.383000", "142945.384000", "142947.384000", "142949.383000", "142951.383000", "142953.384000", "142955.384000", "142957.383000", "142959.383000", "143001.383000", "143003.384000", "143005.383000", "143007.383000", "143009.383000", "143011.383000", "143013.383000", "143015.383000", "143017.383000", "143019.383000", "143021.384000", "143023.383000", "143025.384000", "143027.383000", "143029.384000", "143031.383000", "143033.383000", "143035.383000", "143037.384000", "143039.384000", "143041.383000", "143043.383000", "143045.383000", "143047.383000", "143049.383000", "143051.383000", "143053.383000", "143055.384000", "143057.385000", "143059.383000", "143101.383000", "143103.383000", "143105.384000", "143107.384000", "143109.384000", "143111.383000", "143113.385000", "143115.383000", "143117.384000", "143119.383000", "143121.383000", "143123.383000", "143125.384000", "143127.384000", "143129.384000", "143131.384000", "143133.383000", "143135.383000", "143137.384000", "143139.384000", "143141.384000", "143143.383000", "143145.383000", "143147.384000", "143149.385000", "143151.383000", "143153.383000", "143155.383000", "143157.383000", "143159.383000", "143201.383000", "143203.383000", "143205.385000", "143207.385000", "143209.383000", "143211.383000", "143213.383000", "143215.383000", "143217.384000", "143219.383000", "143221.383000", "143223.385000", "143225.383000", "143227.384000", "143229.383000", "143231.383000", "143233.383000", "143235.383000", "143237.383000", "143239.384000", "143241.384000", "143243.384000", "143245.383000", "143247.384000", "143249.384000", "143251.383000", "143253.383000", "143255.384000", "143257.384000", "143259.385000", "143301.384000", "143303.383000", "143305.383000", "143307.383000", "143309.383000", "143311.383000", "143313.384000", "143315.385000", "143317.385000", "143319.383000", "143321.383000", "143323.383000", "143325.383000", "143327.383000", "143329.383000", "143331.383000", "143333.385000", "143335.384000", "143337.383000", "143339.383000", "143341.384000", "143343.383000", "143345.383000", "143347.383000", "143349.384000", "143351.385000", "143353.383000", "143355.383000", "143357.384000", "143359.390000", "143401.383000", "143403.384000", "143405.383000", "143407.385000", "143409.385000", "143411.383000", "143413.383000", "143415.383000", "143417.383000", "143419.383000", "143421.383000", "143423.384000", "143425.384000", "143427.384000", "143429.383000", "143431.383000", "143433.383000", "143435.384000", "143437.384000", "143439.383000", "143441.383000", "143443.384000", "143445.383000", "143447.384000", "143449.383000", "143451.384000", "143453.383000", "143455.383000", "143457.383000", "143459.384000", "143501.384000", "143503.384000", "143505.383000", "143507.383000", "143509.383000", "143511.384000", "143513.384000", "143515.383000", "143517.384000", "143519.384000", "143521.383000", "143523.383000", "143525.384000", "143527.383000", "143529.383000", "143531.384000", "143533.383000", "143535.384000", "143537.384000", "143539.383000", "143541.383000", "143543.383000", "143545.383000", "143547.384000", "143549.117000"],
      "InstanceCreationTime": ["142807.897000", "142809.383000", "142811.384000", "142813.383000", "142815.383000", "142817.385000", "142819.384000", "142821.383000", "142823.383000", "142825.383000", "142827.383000", "142829.383000", "142831.384000", "142833.384000", "142835.384000", "142837.384000", "142839.383000", "142841.383000", "142843.383000", "142845.383000", "142847.383000", "142849.383000", "142851.384000", "142853.384000", "142855.383000", "142857.384000", "142859.383000", "142901.384000", "142903.384000", "142905.383000", "142907.383000", "142909.384000", "142911.385000", "142913.383000", "142915.383000", "142917.384000", "142919.383000", "142921.383000", "142923.383000", "142925.383000", "142927.384000", "142929.384000", "142931.384000", "142933.383000", "142935.383000", "142937.383000", "142939.383000", "142941.383000", "142943.383000", "142945.384000", "142947.384000", "142949.383000", "142951.383000", "142953.384000", "142955.384000", "142957.383000", "142959.383000", "143001.383000", "143003.384000", "143005.383000", "143007.383000", "143009.383000", "143011.383000", "143013.383000", "143015.383000", "143017.383000", "143019.383000", "143021.384000", "143023.383000", "143025.384000", "143027.383000", "143029.384000", "143031.383000", "143033.383000", "143035.383000", "143037.384000", "143039.384000", "143041.383000", "143043.383000", "143045.383000", "143047.383000", "143049.383000", "143051.383000", "143053.383000", "143055.384000", "143057.385000", "143059.383000", "143101.383000", "143103.383000", "143105.384000", "143107.384000", "143109.384000", "143111.383000", "143113.385000", "143115.383000", "143117.384000", "143119.383000", "143121.383000", "143123.383000", "143125.384000", "143127.384000", "143129.384000", "143131.384000", "143133.383000", "143135.383000", "143137.384000", "143139.384000", "143141.384000", "143143.383000", "143145.383000", "143147.384000", "143149.385000", "143151.383000", "143153.383000", "143155.383000", "143157.383000", "143159.383000", "143201.383000", "143203.383000", "143205.385000", "143207.385000", "143209.383000", "143211.383000", "143213.383000", "143215.383000", "143217.384000", "143219.383000", "143221.383000", "143223.385000", "143225.383000", "143227.384000", "143229.383000", "143231.383000", "143233.383000", "143235.383000", "143237.383000", "143239.384000", "143241.384000", "143243.384000", "143245.383000", "143247.384000", "143249.384000", "143251.383000", "143253.383000", "143255.384000", "143257.384000", "143259.385000", "143301.384000", "143303.383000", "143305.383000", "143307.383000", "143309.383000", "143311.383000", "143313.384000", "143315.385000", "143317.385000", "143319.383000", "143321.383000", "143323.383000", "143325.383000", "143327.383000", "143329.383000", "143331.383000", "143333.385000", "143335.384000", "143337.383000", "143339.383000", "143341.384000", "143343.383000", "143345.383000", "143347.383000", "143349.384000", "143351.385000", "143353.383000", "143355.383000", "143357.384000", "143359.390000", "143401.383000", "143403.384000", "143405.383000", "143407.385000", "143409.385000", "143411.383000", "143413.383000", "143415.383000", "143417.383000", "143419.383000", "143421.383000", "143423.384000", "143425.384000", "143427.384000", "143429.383000", "143431.383000", "143433.383000", "143435.384000", "143437.384000", "143439.383000", "143441.383000", "143443.384000", "143445.383000", "143447.384000", "143449.383000", "143451.384000", "143453.383000", "143455.383000", "143457.383000", "143459.384000", "143501.384000", "143503.384000", "143505.383000", "143507.383000", "143509.383000", "143511.384000", "143513.384000", "143515.383000", "143517.384000", "143519.384000", "143521.383000", "143523.383000", "143525.384000", "143527.383000", "143529.383000", "143531.384000", "143533.383000", "143535.384000", "143537.384000", "143539.383000", "143541.383000", "143543.383000", "143545.383000", "143547.384000", "143549.117000"],
      "InstanceNumber": [1, 2, 3, 4, 5, 6, 7, 8, 9, 10, 11, 12, 13, 14, 15, 16, 17, 18, 19, 20, 21, 22, 23, 24, 25, 26, 27, 28, 29, 30, 31, 32, 33, 34, 35, 36, 37, 38, 39, 40, 41, 42, 43, 44, 45, 46, 47, 48, 49, 50, 51, 52, 53, 54, 55, 56, 57, 58, 59, 60, 61, 62, 63, 64, 65, 66, 67, 68, 69, 70, 71, 72, 73, 74, 75, 76, 77, 78, 79, 80, 81, 82, 83, 84, 85, 86, 87, 88, 89, 90, 91, 92, 93, 94, 95, 96, 97, 98, 99, 100, 101, 102, 103, 104, 105, 106, 107, 108, 109, 110, 111, 112, 113, 114, 115, 116, 117, 118, 119, 120, 121, 122, 123, 124, 125, 126, 127, 128, 129, 130, 131, 132, 133, 134, 135, 136, 137, 138, 139, 140, 141, 142, 143, 144, 145, 146, 147, 148, 149, 150, 151, 152, 153, 154, 155, 156, 157, 158, 159, 160, 161, 162, 163, 164, 165, 166, 167, 168, 169, 170, 171, 172, 173, 174, 175, 176, 177, 178, 179, 180, 181, 182, 183, 184, 185, 186, 187, 188, 189, 190, 191, 192, 193, 194, 195, 196, 197, 198, 199, 200, 201, 202, 203, 204, 205, 206, 207, 208, 209, 210, 211, 212, 213, 214, 215, 216, 217, 218, 219, 220, 221, 222, 223, 224, 225, 226, 227, 228, 229, 230, 231, 232],
      "LargestImagePixelValue": [3956, 3916, 3824, 3990, 3806, 3911, 3974, 3931, 3848, 3779, 3797, 3862, 3877, 3837, 3850, 3807, 3783, 3878, 3836, 3941, 3879, 3851, 3805, 3812, 3799, 3900, 3833, 3986, 3834, 3968, 3788, 4082, 3817, 3786, 4068, 3808, 3883, 3987, 3879, 3996, 3796, 3899, 3788, 3902, 3883, 3860, 3925, 3837, 3771, 3904, 3900, 3878, 3845, 3874, 3865, 3991, 3804, 3868, 3782, 3779, 3885, 3838, 3911, 3930, 3806, 3877, 3860, 3802, 3804, 3810, 3800, 3856, 3838, 3998, 3849, 3989, 3783, 3985, 3907, 3848, 3785, 3985, 3975, 3955, 3986, 4034, 4035, 3971, 3955, 4095, 4024, 4028, 3982, 4001, 4023, 3991, 3993, 3999, 4011, 3974, 3986, 3977, 3951, 3982, 3973, 3964, 4013, 3986, 3980, 3959, 3999, 4002, 3966, 4025, 3977, 3982, 4062, 4005, 3983, 3973, 3925, 3989, 3936, 4003, 3989, 3985, 4048, 3977, 3987, 4018, 3990, 4041, 3979, 3981, 3999, 3976, 3971, 4019, 3977, 3995, 4023, 4028, 3983, 4030, 3977, 3958, 4058, 3976, 3969, 3950, 3970, 3967, 3955, 4041, 3941, 4095, 4095, 4015, 4035, 3937, 3991, 4024, 3976, 3996, 4012, 3986, 3994, 3964, 3998, 3974, 3954, 3955, 3954, 3955, 3925, 3934, 4000, 3922, 3976, 3949, 3963, 3975, 3981, 3982, 3966, 3935, 3951, 3903, 4018, 3989, 3948, 3975, 3908, 3973, 3977, 3997, 3954, 3978, 3992, 4004, 4005, 4026, 3937, 3951, 3939, 3968, 3983, 3970, 3920, 3900, 3946, 3944, 3957, 3978, 3990, 3944, 3904, 3899, 3922, 3943, 3971, 3961, 3963, 3946, 3989, 3956, 3901, 3973, 3927, 3926, 3936, 3951],
      "WindowCenter": [797.0, 795.0, 794.0, 795.0, 794.0, 795.0, 796.0, 796.0, 793.0, 793.0, 794.0, 795.0, 795.0, 794.0, 795.0, 795.0, 796.0, 796.0, 797.0, 798.0, 797.0, 795.0, 795.0, 795.0, 795.0, 796.0, 796.0, 793.0, 795.0, 794.0, 794.0, 796.0, 794.0, 794.0, 796.0, 795.0, 796.0, 795.0, 794.0, 795.0, 794.0, 795.0, 795.0, 796.0, 797.0, 796.0, 797.0, 796.0, 796.0, 796.0, 796.0, 796.0, 796.0, 796.0, 797.0, 797.0, 795.0, 795.0, 795.0, 796.0, 796.0, 796.0, 796.0, 795.0, 796.0, 797.0, 796.0, 795.0, 795.0, 795.0, 795.0, 795.0, 794.0, 796.0, 795.0, 795.0, 794.0, 792.0, 796.0, 795.0, 794.0, 797.0, 797.0, 797.0, 797.0, 798.0, 798.0, 798.0, 796.0, 796.0, 795.0, 796.0, 796.0, 796.0, 796.0, 797.0, 798.0, 799.0, 799.0, 798.0, 798.0, 797.0, 798.0, 799.0, 799.0, 797.0, 796.0, 796.0, 797.0, 797.0, 797.0, 798.0, 798.0, 798.0, 798.0, 798.0, 798.0, 797.0, 797.0, 797.0, 796.0, 798.0, 798.0, 797.0, 796.0, 796.0, 796.0, 797.0, 797.0, 798.0, 798.0, 798.0, 798.0, 799.0, 799.0, 799.0, 798.0, 797.0, 797.0, 797.0, 798.0, 798.0, 798.0, 798.0, 798.0, 798.0, 798.0, 798.0, 798.0, 798.0, 797.0, 797.0, 796.0, 796.0, 795.0, 793.0, 798.0, 796.0, 795.0, 795.0, 796.0, 796.0, 795.0, 796.0, 797.0, 797.0, 798.0, 797.0, 799.0, 799.0, 798.0, 797.0, 796.0, 797.0, 796.0, 795.0, 795.0, 794.0, 795.0, 796.0, 795.0, 795.0, 797.0, 797.0, 798.0, 798.0, 797.0, 797.0, 797.0, 798.0, 798.0, 798.0, 798.0, 798.0, 798.0, 798.0, 797.0, 797.0, 797.0, 797.0, 797.0, 798.0, 796.0, 795.0, 795.0, 795.0, 795.0, 795.0, 794.0, 795.0, 796.0, 796.0, 797.0, 797.0, 797.0, 798.0, 797.0, 797.0, 797.0, 797.0, 797.0, 797.0, 797.0, 797.0, 797.0, 798.0, 798.0, 798.0, 798.0, 797.0, 796.0, 797.0],
      "WindowWidth": [1769.0, 1763.0, 1760.0, 1764.0, 1758.0, 1764.0, 1768.0, 1765.0, 1757.0, 1756.0, 1761.0, 1763.0, 1761.0, 1760.0, 1762.0, 1762.0, 1764.0, 1766.0, 1768.0, 1771.0, 1768.0, 1764.0, 1761.0, 1761.0, 1761.0, 1766.0, 1764.0, 1757.0, 1763.0, 1759.0, 1759.0, 1766.0, 1759.0, 1759.0, 1766.0, 1762.0, 1764.0, 1763.0, 1760.0, 1763.0, 1760.0, 1763.0, 1763.0, 1768.0, 1768.0, 1767.0, 1768.0, 1767.0, 1765.0, 1767.0, 1767.0, 1765.0, 1765.0, 1766.0, 1767.0, 1767.0, 1761.0, 1763.0, 1763.0, 1764.0, 1766.0, 1764.0, 1764.0, 1764.0, 1766.0, 1769.0, 1767.0, 1763.0, 1763.0, 1762.0, 1760.0, 1761.0, 1759.0, 1764.0, 1762.0, 1763.0, 1759.0, 1754.0, 1766.0, 1761.0, 1760.0, 1769.0, 1769.0, 1769.0, 1768.0, 1772.0, 1773.0, 1774.0, 1765.0, 1767.0, 1764.0, 1765.0, 1766.0, 1766.0, 1767.0, 1769.0, 1772.0, 1774.0, 1775.0, 1774.0, 1772.0, 1771.0, 1774.0, 1775.0, 1774.0, 1770.0, 1767.0, 1767.0, 1769.0, 1769.0, 1770.0, 1772.0, 1773.0, 1773.0, 1773.0, 1773.0, 1772.0, 1769.0, 1769.0, 1769.0, 1767.0, 1771.0, 1772.0, 1770.0, 1767.0, 1765.0, 1768.0, 1770.0, 1770.0, 1771.0, 1771.0, 1773.0, 1774.0, 1774.0, 1775.0, 1774.0, 1772.0, 1768.0, 1769.0, 1769.0, 1771.0, 1774.0, 1774.0, 1773.0, 1773.0, 1774.0, 1774.0, 1772.0, 1773.0, 1773.0, 1769.0, 1767.0, 1765.0, 1765.0, 1763.0, 1759.0, 1772.0, 1765.0, 1764.0, 1763.0, 1765.0, 1764.0, 1763.0, 1766.0, 1770.0, 1770.0, 1771.0, 1769.0, 1775.0, 1775.0, 1772.0, 1767.0, 1765.0, 1767.0, 1766.0, 1763.0, 1762.0, 1760.0, 1763.0, 1766.0, 1763.0, 1764.0, 1768.0, 1769.0, 1771.0, 1770.0, 1770.0, 1769.0, 1769.0, 1771.0, 1772.0, 1773.0, 1772.0, 1773.0, 1773.0, 1771.0, 1769.0, 1768.0, 1769.0, 1768.0, 1770.0, 1773.0, 1767.0, 1763.0, 1762.0, 1762.0, 1762.0, 1763.0, 1760.0, 1762.0, 1766.0, 1766.0, 1767.0, 1768.0, 1769.0, 1770.0, 1767.0, 1766.0, 1768.0, 1769.0, 1768.0, 1768.0, 1768.0, 1768.0, 1770.0, 1772.0, 1773.0, 1771.0, 1771.0, 1769.0, 1767.0, 1767.0]
    },
    "slices": {}
  }
}