{
  "AcquisitionMatrixPE": 100,
  "AcquisitionNumber": 1,
  "AcquisitionTime": "14:48:17.250000",
  "BandwidthPerPixelPhaseEncode": 18.519,
  "BaseResolution": 100,
  "BodyPartExamined": "BRAIN",
  "ConsistencyInfo": "N4_VE11C_LATEST_20160120",
  "ConversionSoftware": "dcm2niix",
  "ConversionSoftwareVersion": "v1.0.20180622 GCC4.9.2",
  "DerivedVendorReportedEchoSpacing": 0.000539986,
  "DeviceSerialNumber": "166078",
  "DwellTime": 2.1e-06,
  "EchoTime": 0.034,
  "EchoTrainLength": 100,
  "EffectiveEchoSpacing": 0.000539986,
  "FlipAngle": 90,
  "ImageOrientationPatientDICOM": [0.997249, 0.0511658, 0.0536332, -0.0435408, 0.989918, -0.134784],
  "ImageType": [
    "ORIGINAL",
    "PRIMARY",
    "M",
    "ND",
    "MOSAIC"
],
  "InPlanePhaseEncodingDirectionDICOM": "COL",
  "InstitutionAddress": "Street_StreetNo_Bei_Jing_District_CN_ZIP",
  "InstitutionName": "BeiJing_Normal_University",
  "InstitutionalDepartmentName": "Department",
  "MRAcquisitionType": "2D",
  "MagneticFieldStrength": 3,
  "Manufacturer": "Siemens",
  "ManufacturersModelName": "Prisma",
  "Modality": "MR",
  "MultibandAccelerationFactor": 3,
  "PartialFourier": 1,
  "PatientPosition": "HFS",
  "PercentPhaseFOV": 100,
  "PhaseEncodingDirection": "j-",
  "PhaseEncodingSteps": 100,
  "PhaseResolution": 1,
  "PixelBandwidth": 2380,
  "ProcedureStepDescription": "BNU_P2018_64CH_Liu.Jia",
  "ProtocolName": "bold_100x100_s3_2x2x2_232",
  "PulseSequenceDetails": "%SiemensSeq%_ep2d_bold",
  "ReceiveCoilActiveElements": "HC1-7;NC1",
  "ReceiveCoilName": "HeadNeck_64",
  "ReconMatrixPE": 100,
  "RepetitionTime": 2,
  "SAR": 0.0649805,
  "ScanOptions": "FS",
  "ScanningSequence": "EP",
  "SequenceName": "_epfid2d1_100",
  "SequenceVariant": "SK",
  "SeriesDescription": "bold_100x100_s3_2x2x2_232",
  "SeriesNumber": 10,
  "ShimSetting": [-5451, -11491, -1262, 415, -75, -298, -110, -20],
  "SliceThickness": 2,
  "SliceTiming": [1.485, 0, 0.99, 0.0825, 1.0725, 0.165, 1.155, 0.2475, 1.2375, 0.33, 1.32, 0.4125, 1.4025, 0.5775, 1.5675, 0.66, 1.65, 0.7425, 1.7325, 0.825, 1.815, 0.9075, 1.8975, 0.495, 1.485, 0, 0.99, 0.0825, 1.0725, 0.165, 1.155, 0.2475, 1.2375, 0.33, 1.32, 0.4125, 1.4025, 0.5775, 1.5675, 0.66, 1.65, 0.7425, 1.7325, 0.825, 1.815, 0.9075, 1.8975, 0.495, 1.485, 0, 0.99, 0.0825, 1.0725, 0.165, 1.155, 0.2475, 1.2375, 0.33, 1.32, 0.4125, 1.4025, 0.5775, 1.5675, 0.66, 1.65, 0.7425, 1.7325, 0.825, 1.815, 0.9075, 1.8975, 0.495],
  "SoftwareVersions": "syngo_MR_E11",
  "SpacingBetweenSlices": 2,
  "StationName": "AWP166078",
  "TaskName": "motor",
  "TotalReadoutTime": 0.0534586,
  "TxRefAmp": 208.954,
  "dcmmeta_affine": [
    [-1.9944980144500732, -0.08708168566226959, 0.11997761577367783, 102.22037506103516],
    [-0.10233159363269806, 1.979835867881775, -0.26415517926216125, -80.52091979980469],
    [0.10726646333932877, 0.26956722140312195, 1.9788450002670288, -87.7056655883789],
    [0.0, 0.0, 0.0, 1.0]
],
  "dcmmeta_reorient_transform": [
    [0.0, -1.0, 0.0, 99.0],
    [1.0, 0.0, 0.0, 0.0],
    [0.0, 0.0, 1.0, 0.0],
    [0.0, 0.0, 0.0, 1.0]
],
  "dcmmeta_shape": [100, 100, 72, 232],
  "dcmmeta_slice_dim": 2,
  "dcmmeta_version": 0.6,
  "global": {
    "const": {
      "AcquisitionMatrix": [100, 0, 0, 100],
      "AngioFlag": "N",
      "BitsAllocated": 16,
      "BitsStored": 12,
      "BodyPartExamined": "BRAIN",
      "Columns": 900,
      "EchoNumbers": 1,
      "EchoTime": 34.0,
      "EchoTrainLength": 100,
      "FlipAngle": 90.0,
      "HighBit": 11,
      "ImageOrientationPatient": [0.99724898486874, 0.05116579691895, 0.05363323040727, -0.0435408422465, 0.98991796230781, -0.1347836153129],
      "ImagePositionPatient": [-856.56580369227, -948.34984733911, 3.9018014932109],
      "ImageType": [
        "ORIGINAL",
        "PRIMARY",
        "M",
        "ND",
        "MOSAIC"
],
      "ImagedNucleus": "1H",
      "ImagingFrequency": 123.257849,
      "InPlanePhaseEncodingDirection": "COL",
      "MRAcquisitionType": "2D",
      "MagneticFieldStrength": 3.0,
      "Manufacturer": "SIEMENS",
      "ManufacturerModelName": "Prisma",
      "Modality": "MR",
      "NumberOfAverages": 1.0,
      "NumberOfPhaseEncodingSteps": 100,
      "PercentPhaseFieldOfView": 100.0,
      "PercentSampling": 100.0,
      "PerformedProcedureStepStartTime": "140459.700000",
      "PhotometricInterpretation": "MONOCHROME2",
      "PixelBandwidth": 2380.0,
      "PixelRepresentation": 0,
      "PixelSpacing": [2.0, 2.0],
      "ProtocolName": "bold_100x100_s3_2x2x2_232",
      "RepetitionTime": 2000.0,
      "Rows": 900,
      "SAR": 0.06498051807339,
      "SamplesPerPixel": 1,
      "ScanOptions": "FS",
      "ScanningSequence": "EP",
      "SequenceName": "*epfid2d1_100",
      "SequenceVariant": "SK",
      "SeriesDescription": "bold_100x100_s3_2x2x2_232",
      "SeriesNumber": 10,
      "SeriesTime": "144820.072000",
      "SliceLocation": -70.010867231508,
      "SliceThickness": 2.0,
      "SmallestImagePixelValue": 0,
      "SoftwareVersions": "syngo MR E11",
      "SpacingBetweenSlices": 2.0000000082671,
      "SpecificCharacterSet": "ISO_IR 100",
      "StudyID": "1",
      "StudyTime": "140459.643000",
      "TransmitCoilName": "Body",
      "VariableFlipAngleFlag": "N",
      "WindowCenterWidthExplanation": "Algo1",
      "dBdt": 0.0},
    "slices": {}
  },
  "time": {
    "samples": {
      "AcquisitionNumber": [1, 2, 3, 4, 5, 6, 7, 8, 9, 10, 11, 12, 13, 14, 15, 16, 17, 18, 19, 20, 21, 22, 23, 24, 25, 26, 27, 28, 29, 30, 31, 32, 33, 34, 35, 36, 37, 38, 39, 40, 41, 42, 43, 44, 45, 46, 47, 48, 49, 50, 51, 52, 53, 54, 55, 56, 57, 58, 59, 60, 61, 62, 63, 64, 65, 66, 67, 68, 69, 70, 71, 72, 73, 74, 75, 76, 77, 78, 79, 80, 81, 82, 83, 84, 85, 86, 87, 88, 89, 90, 91, 92, 93, 94, 95, 96, 97, 98, 99, 100, 101, 102, 103, 104, 105, 106, 107, 108, 109, 110, 111, 112, 113, 114, 115, 116, 117, 118, 119, 120, 121, 122, 123, 124, 125, 126, 127, 128, 129, 130, 131, 132, 133, 134, 135, 136, 137, 138, 139, 140, 141, 142, 143, 144, 145, 146, 147, 148, 149, 150, 151, 152, 153, 154, 155, 156, 157, 158, 159, 160, 161, 162, 163, 164, 165, 166, 167, 168, 169, 170, 171, 172, 173, 174, 175, 176, 177, 178, 179, 180, 181, 182, 183, 184, 185, 186, 187, 188, 189, 190, 191, 192, 193, 194, 195, 196, 197, 198, 199, 200, 201, 202, 203, 204, 205, 206, 207, 208, 209, 210, 211, 212, 213, 214, 215, 216, 217, 218, 219, 220, 221, 222, 223, 224, 225, 226, 227, 228, 229, 230, 231, 232],
      "AcquisitionTime": ["144817.250000", "144819.250000", "144821.250000", "144823.250000", "144825.250000", "144827.250000", "144829.250000", "144831.250000", "144833.250000", "144835.250000", "144837.250000", "144839.250000", "144841.250000", "144843.250000", "144845.250000", "144847.250000", "144849.250000", "144851.250000", "144853.250000", "144855.250000", "144857.250000", "144859.250000", "144901.250000", "144903.250000", "144905.250000", "144907.250000", "144909.250000", "144911.250000", "144913.250000", "144915.250000", "144917.250000", "144919.250000", "144921.250000", "144923.250000", "144925.250000", "144927.250000", "144929.250000", "144931.250000", "144933.250000", "144935.250000", "144937.250000", "144939.250000", "144941.250000", "144943.250000", "144945.250000", "144947.250000", "144949.250000", "144951.250000", "144953.250000", "144955.250000", "144957.250000", "144959.250000", "145001.250000", "145003.250000", "145005.250000", "145007.250000", "145009.250000", "145011.250000", "145013.250000", "145015.250000", "145017.250000", "145019.250000", "145021.250000", "145023.250000", "145025.250000", "145027.250000", "145029.250000", "145031.250000", "145033.250000", "145035.250000", "145037.250000", "145039.250000", "145041.250000", "145043.250000", "145045.250000", "145047.250000", "145049.250000", "145051.250000", "145053.250000", "145055.250000", "145057.250000", "145059.250000", "145101.250000", "145103.250000", "145105.250000", "145107.250000", "145109.250000", "145111.250000", "145113.250000", "145115.250000", "145117.250000", "145119.250000", "145121.250000", "145123.250000", "145125.250000", "145127.250000", "145129.250000", "145131.250000", "145133.250000", "145135.250000", "145137.250000", "145139.250000", "145141.250000", "145143.250000", "145145.250000", "145147.250000", "145149.250000", "145151.250000", "145153.250000", "145155.250000", "145157.250000", "145159.250000", "145201.250000", "145203.250000", "145205.250000", "145207.250000", "145209.250000", "145211.250000", "145213.250000", "145215.250000", "145217.250000", "145219.250000", "145221.250000", "145223.250000", "145225.250000", "145227.250000", "145229.250000", "145231.250000", "145233.250000", "145235.250000", "145237.250000", "145239.250000", "145241.250000", "145243.250000", "145245.250000", "145247.250000", "145249.250000", "145251.250000", "145253.250000", "145255.250000", "145257.250000", "145259.250000", "145301.250000", "145303.250000", "145305.250000", "145307.250000", "145309.250000", "145311.250000", "145313.250000", "145315.250000", "145317.250000", "145319.250000", "145321.250000", "145323.250000", "145325.250000", "145327.250000", "145329.250000", "145331.250000", "145333.250000", "145335.250000", "145337.250000", "145339.250000", "145341.250000", "145343.250000", "145345.250000", "145347.250000", "145349.250000", "145351.250000", "145353.250000", "145355.250000", "145357.250000", "145359.250000", "145401.250000", "145403.250000", "145405.250000", "145407.250000", "145409.250000", "145411.250000", "145413.250000", "145415.250000", "145417.250000", "145419.250000", "145421.250000", "145423.250000", "145425.250000", "145427.250000", "145429.250000", "145431.250000", "145433.250000", "145435.250000", "145437.250000", "145439.250000", "145441.250000", "145443.250000", "145445.250000", "145447.250000", "145449.250000", "145451.250000", "145453.250000", "145455.250000", "145457.250000", "145459.250000", "145501.250000", "145503.250000", "145505.250000", "145507.250000", "145509.250000", "145511.250000", "145513.250000", "145515.250000", "145517.250000", "145519.250000", "145521.250000", "145523.250000", "145525.250000", "145527.250000", "145529.250000", "145531.250000", "145533.250000", "145535.250000", "145537.250000", "145539.250000", "145541.250000", "145543.250000", "145545.250000", "145547.250000", "145549.250000", "145551.250000", "145553.250000", "145555.250000", "145557.250000", "145559.250000"],
      "ContentTime": ["144820.076000", "144821.572000", "144823.572000", "144825.572000", "144827.572000", "144829.571000", "144831.572000", "144833.571000", "144835.571000", "144837.571000", "144839.571000", "144841.573000", "144843.572000", "144845.572000", "144847.572000", "144849.571000", "144851.572000", "144853.572000", "144855.571000", "144857.572000", "144859.572000", "144901.573000", "144903.572000", "144905.571000", "144907.571000", "144909.571000", "144911.572000", "144913.572000", "144915.571000", "144917.573000", "144919.572000", "144921.571000", "144923.571000", "144925.571000", "144927.572000", "144929.571000", "144931.571000", "144933.572000", "144935.573000", "144937.572000", "144939.571000", "144941.572000", "144943.571000", "144945.572000", "144947.572000", "144949.571000", "144951.572000", "144953.573000", "144955.572000", "144957.571000", "144959.571000", "145001.571000", "145003.571000", "145005.571000", "145007.572000", "145009.573000", "145011.572000", "145013.571000", "145015.572000", "145017.571000", "145019.571000", "145021.571000", "145023.571000", "145025.571000", "145027.572000", "145029.572000", "145031.572000", "145033.572000", "145035.571000", "145037.571000", "145039.572000", "145041.572000", "145043.573000", "145045.572000", "145047.572000", "145049.572000", "145051.571000", "145053.571000", "145055.571000", "145057.571000", "145059.571000", "145101.572000", "145103.573000", "145105.572000", "145107.571000", "145109.571000", "145111.571000", "145113.572000", "145115.572000", "145117.572000", "145119.572000", "145121.573000", "145123.571000", "145125.572000", "145127.571000", "145129.572000", "145131.571000", "145133.572000", "145135.572000", "145137.572000", "145139.572000", "145141.572000", "145143.571000", "145145.571000", "145147.571000", "145149.571000", "145151.571000", "145153.573000", "145155.572000", "145157.573000", "145159.572000", "145201.572000", "145203.571000", "145205.571000", "145207.572000", "145209.572000", "145211.573000", "145213.572000", "145215.572000", "145217.571000", "145219.572000", "145221.571000", "145223.571000", "145225.572000", "145227.571000", "145229.572000", "145231.573000", "145233.572000", "145235.571000", "145237.572000", "145239.571000", "145241.571000", "145243.571000", "145245.571000", "145247.572000", "145249.572000", "145251.572000", "145253.572000", "145255.572000", "145257.572000", "145259.571000", "145301.571000", "145303.573000", "145305.587000", "145307.572000", "145309.571000", "145311.571000", "145313.571000", "145315.571000", "145317.571000", "145319.572000", "145321.572000", "145323.572000", "145325.573000", "145327.572000", "145329.571000", "145331.571000", "145333.571000", "145335.571000", "145337.571000", "145339.572000", "145341.572000", "145343.572000", "145345.571000", "145347.572000", "145349.571000", "145351.571000", "145353.571000", "145355.571000", "145357.573000", "145359.573000", "145401.571000", "145403.571000", "145405.571000", "145407.572000", "145409.572000", "145411.571000", "145413.572000", "145415.572000", "145417.572000", "145419.572000", "145421.572000", "145423.572000", "145425.571000", "145427.572000", "145429.571000", "145431.573000", "145433.572000", "145435.572000", "145437.571000", "145439.571000", "145441.571000", "145443.571000", "145445.572000", "145447.571000", "145449.572000", "145451.572000", "145453.571000", "145455.571000", "145457.571000", "145459.572000", "145501.571000", "145503.572000", "145505.573000", "145507.572000", "145509.572000", "145511.572000", "145513.572000", "145515.571000", "145517.572000", "145519.572000", "145521.571000", "145523.573000", "145525.573000", "145527.572000", "145529.572000", "145531.571000", "145533.571000", "145535.571000", "145537.572000", "145539.571000", "145541.572000", "145543.573000", "145545.572000", "145547.572000", "145549.571000", "145551.572000", "145553.572000", "145555.571000", "145557.572000", "145559.573000", "145601.248000"],
      "InstanceCreationTime": ["144820.076000", "144821.572000", "144823.572000", "144825.572000", "144827.572000", "144829.571000", "144831.572000", "144833.571000", "144835.571000", "144837.571000", "144839.571000", "144841.573000", "144843.572000", "144845.572000", "144847.572000", "144849.571000", "144851.572000", "144853.572000", "144855.571000", "144857.572000", "144859.572000", "144901.573000", "144903.572000", "144905.571000", "144907.571000", "144909.571000", "144911.572000", "144913.572000", "144915.571000", "144917.573000", "144919.572000", "144921.571000", "144923.571000", "144925.571000", "144927.572000", "144929.571000", "144931.571000", "144933.572000", "144935.573000", "144937.572000", "144939.571000", "144941.572000", "144943.571000", "144945.572000", "144947.572000", "144949.571000", "144951.572000", "144953.573000", "144955.572000", "144957.571000", "144959.571000", "145001.571000", "145003.571000", "145005.571000", "145007.572000", "145009.573000", "145011.572000", "145013.571000", "145015.572000", "145017.571000", "145019.571000", "145021.571000", "145023.571000", "145025.571000", "145027.572000", "145029.572000", "145031.572000", "145033.572000", "145035.571000", "145037.571000", "145039.572000", "145041.572000", "145043.573000", "145045.572000", "145047.572000", "145049.572000", "145051.571000", "145053.571000", "145055.571000", "145057.571000", "145059.571000", "145101.572000", "145103.573000", "145105.572000", "145107.571000", "145109.571000", "145111.571000", "145113.572000", "145115.572000", "145117.572000", "145119.572000", "145121.573000", "145123.571000", "145125.572000", "145127.571000", "145129.572000", "145131.571000", "145133.572000", "145135.572000", "145137.572000", "145139.572000", "145141.572000", "145143.571000", "145145.571000", "145147.571000", "145149.571000", "145151.571000", "145153.573000", "145155.572000", "145157.573000", "145159.572000", "145201.572000", "145203.571000", "145205.571000", "145207.572000", "145209.572000", "145211.573000", "145213.572000", "145215.572000", "145217.571000", "145219.572000", "145221.571000", "145223.571000", "145225.572000", "145227.571000", "145229.572000", "145231.573000", "145233.572000", "145235.571000", "145237.572000", "145239.571000", "145241.571000", "145243.571000", "145245.571000", "145247.572000", "145249.572000", "145251.572000", "145253.572000", "145255.572000", "145257.572000", "145259.571000", "145301.571000", "145303.573000", "145305.587000", "145307.572000", "145309.571000", "145311.571000", "145313.571000", "145315.571000", "145317.571000", "145319.572000", "145321.572000", "145323.572000", "145325.573000", "145327.572000", "145329.571000", "145331.571000", "145333.571000", "145335.571000", "145337.571000", "145339.572000", "145341.572000", "145343.572000", "145345.571000", "145347.572000", "145349.571000", "145351.571000", "145353.571000", "145355.571000", "145357.573000", "145359.573000", "145401.571000", "145403.571000", "145405.571000", "145407.572000", "145409.572000", "145411.571000", "145413.572000", "145415.572000", "145417.572000", "145419.572000", "145421.572000", "145423.572000", "145425.571000", "145427.572000", "145429.571000", "145431.573000", "145433.572000", "145435.572000", "145437.571000", "145439.571000", "145441.571000", "145443.571000", "145445.572000", "145447.571000", "145449.572000", "145451.572000", "145453.571000", "145455.571000", "145457.571000", "145459.572000", "145501.571000", "145503.572000", "145505.573000", "145507.572000", "145509.572000", "145511.572000", "145513.572000", "145515.571000", "145517.572000", "145519.572000", "145521.571000", "145523.573000", "145525.573000", "145527.572000", "145529.572000", "145531.571000", "145533.571000", "145535.571000", "145537.572000", "145539.571000", "145541.572000", "145543.573000", "145545.572000", "145547.572000", "145549.571000", "145551.572000", "145553.572000", "145555.571000", "145557.572000", "145559.573000", "145601.248000"],
      "InstanceNumber": [1, 2, 3, 4, 5, 6, 7, 8, 9, 10, 11, 12, 13, 14, 15, 16, 17, 18, 19, 20, 21, 22, 23, 24, 25, 26, 27, 28, 29, 30, 31, 32, 33, 34, 35, 36, 37, 38, 39, 40, 41, 42, 43, 44, 45, 46, 47, 48, 49, 50, 51, 52, 53, 54, 55, 56, 57, 58, 59, 60, 61, 62, 63, 64, 65, 66, 67, 68, 69, 70, 71, 72, 73, 74, 75, 76, 77, 78, 79, 80, 81, 82, 83, 84, 85, 86, 87, 88, 89, 90, 91, 92, 93, 94, 95, 96, 97, 98, 99, 100, 101, 102, 103, 104, 105, 106, 107, 108, 109, 110, 111, 112, 113, 114, 115, 116, 117, 118, 119, 120, 121, 122, 123, 124, 125, 126, 127, 128, 129, 130, 131, 132, 133, 134, 135, 136, 137, 138, 139, 140, 141, 142, 143, 144, 145, 146, 147, 148, 149, 150, 151, 152, 153, 154, 155, 156, 157, 158, 159, 160, 161, 162, 163, 164, 165, 166, 167, 168, 169, 170, 171, 172, 173, 174, 175, 176, 177, 178, 179, 180, 181, 182, 183, 184, 185, 186, 187, 188, 189, 190, 191, 192, 193, 194, 195, 196, 197, 198, 199, 200, 201, 202, 203, 204, 205, 206, 207, 208, 209, 210, 211, 212, 213, 214, 215, 216, 217, 218, 219, 220, 221, 222, 223, 224, 225, 226, 227, 228, 229, 230, 231, 232],
      "LargestImagePixelValue": [4020, 3976, 3905, 3893, 3920, 3930, 3937, 3949, 3928, 3994, 3948, 3922, 3921, 3940, 3909, 3919, 3948, 4095, 4067, 3902, 3893, 3997, 3990, 3884, 3922, 3926, 3978, 3951, 3983, 3973, 3970, 3994, 3987, 3886, 3990, 4050, 4057, 3912, 4002, 3988, 3861, 3957, 3955, 3869, 3976, 3941, 3855, 3894, 3932, 3872, 3968, 3871, 3997, 4005, 3867, 3983, 3868, 3912, 3955, 4045, 3904, 3959, 3989, 3965, 4020, 3944, 3993, 4028, 3992, 4094, 4006, 4067, 4066, 3957, 4033, 4001, 3959, 4024, 3989, 4040, 4095, 3952, 4017, 3965, 3949, 3969, 3983, 3965, 3985, 3937, 4009, 4057, 4069, 4095, 4052, 4095, 3998, 4043, 4095, 4095, 4077, 4072, 4095, 4078, 4095, 4074, 4095, 4095, 4070, 4042, 4078, 4095, 4021, 4050, 4085, 4069, 4095, 4095, 4095, 4072, 4058, 4064, 4045, 3955, 4095, 3976, 4068, 3995, 4095, 3967, 3991, 4058, 3969, 4035, 4061, 4026, 4074, 4045, 4074, 4053, 4062, 4082, 3969, 4016, 4041, 3960, 3963, 3962, 4031, 3963, 3994, 3940, 3967, 3984, 3956, 3970, 4019, 3929, 3991, 4004, 3975, 4034, 3973, 4032, 3962, 4055, 4030, 4010, 4077, 4070, 4088, 4095, 4060, 4095, 4089, 4065, 4095, 4067, 4057, 4031, 4095, 3997, 4093, 4050, 4050, 4095, 4064, 4091, 4055, 4095, 4075, 4095, 4093, 4002, 4065, 4078, 4080, 4036, 4022, 3961, 4044, 4047, 3969, 4026, 4051, 4049, 4048, 4066, 4042, 4095, 4064, 4095, 4081, 4095, 3954, 4012, 3967, 4002, 4026, 4028, 4079, 4025, 4010, 3986, 4055, 3972, 4080, 4049, 4021, 4016, 4002, 4012],
      "WindowCenter": [801.0, 798.0, 797.0, 797.0, 797.0, 797.0, 796.0, 797.0, 797.0, 798.0, 799.0, 799.0, 799.0, 798.0, 798.0, 797.0, 797.0, 797.0, 797.0, 797.0, 798.0, 798.0, 797.0, 793.0, 797.0, 798.0, 799.0, 799.0, 798.0, 797.0, 798.0, 799.0, 799.0, 798.0, 799.0, 799.0, 798.0, 797.0, 797.0, 796.0, 795.0, 794.0, 794.0, 793.0, 794.0, 795.0, 795.0, 796.0, 797.0, 798.0, 798.0, 798.0, 798.0, 798.0, 797.0, 797.0, 796.0, 797.0, 798.0, 798.0, 798.0, 797.0, 796.0, 796.0, 797.0, 796.0, 798.0, 799.0, 799.0, 798.0, 798.0, 798.0, 799.0, 799.0, 799.0, 799.0, 798.0, 798.0, 798.0, 798.0, 799.0, 798.0, 799.0, 799.0, 800.0, 799.0, 798.0, 797.0, 798.0, 799.0, 799.0, 798.0, 798.0, 798.0, 799.0, 799.0, 799.0, 800.0, 800.0, 799.0, 798.0, 799.0, 800.0, 800.0, 800.0, 799.0, 799.0, 798.0, 798.0, 797.0, 794.0, 798.0, 798.0, 798.0, 796.0, 797.0, 798.0, 797.0, 798.0, 798.0, 796.0, 795.0, 792.0, 792.0, 795.0, 794.0, 796.0, 793.0, 800.0, 798.0, 799.0, 798.0, 799.0, 799.0, 798.0, 798.0, 799.0, 800.0, 799.0, 798.0, 798.0, 798.0, 797.0, 798.0, 798.0, 798.0, 799.0, 798.0, 798.0, 798.0, 798.0, 796.0, 795.0, 795.0, 796.0, 798.0, 798.0, 796.0, 795.0, 796.0, 798.0, 798.0, 798.0, 797.0, 797.0, 798.0, 799.0, 799.0, 800.0, 798.0, 798.0, 797.0, 797.0, 798.0, 797.0, 797.0, 799.0, 800.0, 798.0, 799.0, 799.0, 798.0, 797.0, 796.0, 796.0, 797.0, 799.0, 799.0, 799.0, 799.0, 799.0, 800.0, 801.0, 802.0, 801.0, 800.0, 800.0, 799.0, 800.0, 799.0, 797.0, 797.0, 797.0, 797.0, 797.0, 796.0, 798.0, 799.0, 800.0, 797.0, 796.0, 797.0, 794.0, 795.0, 792.0, 795.0, 798.0, 797.0, 798.0, 798.0, 798.0, 799.0, 799.0, 799.0, 799.0, 800.0, 801.0, 800.0, 797.0, 795.0, 795.0, 796.0],
      "WindowWidth": [1780.0, 1771.0, 1768.0, 1768.0, 1768.0, 1768.0, 1766.0, 1767.0, 1768.0, 1772.0, 1775.0, 1777.0, 1774.0, 1771.0, 1769.0, 1769.0, 1769.0, 1769.0, 1770.0, 1767.0, 1771.0, 1771.0, 1769.0, 1757.0, 1767.0, 1772.0, 1774.0, 1773.0, 1770.0, 1768.0, 1771.0, 1773.0, 1773.0, 1772.0, 1775.0, 1775.0, 1771.0, 1768.0, 1767.0, 1766.0, 1762.0, 1759.0, 1758.0, 1756.0, 1759.0, 1762.0, 1761.0, 1763.0, 1769.0, 1770.0, 1772.0, 1771.0, 1772.0, 1772.0, 1766.0, 1767.0, 1763.0, 1767.0, 1770.0, 1772.0, 1769.0, 1768.0, 1765.0, 1764.0, 1767.0, 1766.0, 1771.0, 1775.0, 1774.0, 1772.0, 1772.0, 1772.0, 1773.0, 1773.0, 1775.0, 1773.0, 1772.0, 1770.0, 1772.0, 1773.0, 1773.0, 1771.0, 1774.0, 1775.0, 1777.0, 1773.0, 1772.0, 1769.0, 1773.0, 1773.0, 1775.0, 1773.0, 1771.0, 1772.0, 1775.0, 1776.0, 1776.0, 1777.0, 1778.0, 1774.0, 1771.0, 1775.0, 1777.0, 1778.0, 1779.0, 1775.0, 1775.0, 1772.0, 1772.0, 1768.0, 1760.0, 1774.0, 1773.0, 1771.0, 1764.0, 1767.0, 1771.0, 1770.0, 1771.0, 1770.0, 1764.0, 1762.0, 1754.0, 1753.0, 1764.0, 1760.0, 1766.0, 1759.0, 1778.0, 1773.0, 1773.0, 1771.0, 1773.0, 1775.0, 1771.0, 1770.0, 1774.0, 1778.0, 1776.0, 1771.0, 1772.0, 1771.0, 1769.0, 1770.0, 1770.0, 1771.0, 1773.0, 1771.0, 1772.0, 1769.0, 1770.0, 1765.0, 1762.0, 1761.0, 1764.0, 1770.0, 1771.0, 1764.0, 1762.0, 1766.0, 1770.0, 1772.0, 1770.0, 1768.0, 1767.0, 1772.0, 1775.0, 1774.0, 1776.0, 1771.0, 1771.0, 1769.0, 1769.0, 1769.0, 1766.0, 1767.0, 1774.0, 1777.0, 1770.0, 1774.0, 1775.0, 1771.0, 1769.0, 1766.0, 1765.0, 1769.0, 1774.0, 1774.0, 1774.0, 1774.0, 1776.0, 1779.0, 1781.0, 1784.0, 1781.0, 1779.0, 1778.0, 1777.0, 1776.0, 1773.0, 1767.0, 1767.0, 1768.0, 1767.0, 1767.0, 1765.0, 1770.0, 1775.0, 1777.0, 1768.0, 1765.0, 1767.0, 1758.0, 1764.0, 1752.0, 1762.0, 1771.0, 1769.0, 1770.0, 1770.0, 1772.0, 1773.0, 1775.0, 1772.0, 1773.0, 1778.0, 1781.0, 1777.0, 1767.0, 1763.0, 1762.0, 1765.0]
    },
    "slices": {}
  }
}