{
  "AcquisitionMatrixPE": 100,
  "AcquisitionNumber": 1,
  "AcquisitionTime": "11:11:6.675000",
  "BandwidthPerPixelPhaseEncode": 18.519,
  "BaseResolution": 100,
  "BodyPartExamined": "BRAIN",
  "ConsistencyInfo": "N4_VE11C_LATEST_20160120",
  "ConversionSoftware": "dcm2niix",
  "ConversionSoftwareVersion": "v1.0.20180622 GCC4.9.2",
  "DerivedVendorReportedEchoSpacing": 0.000539986,
  "DeviceSerialNumber": "166078",
  "DwellTime": 2.1e-06,
  "EchoTime": 0.034,
  "EchoTrainLength": 100,
  "EffectiveEchoSpacing": 0.000539986,
  "FlipAngle": 90,
  "ImageOrientationPatientDICOM": [0.999815, 0.0192095, 0.000247927, -0.0191975, 0.998535, 0.0505874],
  "ImageType": [
    "ORIGINAL",
    "PRIMARY",
    "M",
    "ND",
    "MOSAIC"
],
  "InPlanePhaseEncodingDirectionDICOM": "COL",
  "InstitutionAddress": "Street_StreetNo_Bei_Jing_District_CN_ZIP",
  "InstitutionName": "BeiJing_Normal_University",
  "InstitutionalDepartmentName": "Department",
  "MRAcquisitionType": "2D",
  "MagneticFieldStrength": 3,
  "Manufacturer": "Siemens",
  "ManufacturersModelName": "Prisma",
  "Modality": "MR",
  "MultibandAccelerationFactor": 3,
  "PartialFourier": 1,
  "PatientPosition": "HFS",
  "PercentPhaseFOV": 100,
  "PhaseEncodingDirection": "j-",
  "PhaseEncodingSteps": 100,
  "PhaseResolution": 1,
  "PixelBandwidth": 2380,
  "ProcedureStepDescription": "BNU_P2018_64CH_Liu.Jia",
  "ProtocolName": "bold_100x100_s3_2x2x2_232",
  "PulseSequenceDetails": "%SiemensSeq%_ep2d_bold",
  "ReceiveCoilActiveElements": "HC1-7;NC1",
  "ReceiveCoilName": "HeadNeck_64",
  "ReconMatrixPE": 100,
  "RepetitionTime": 2,
  "SAR": 0.0766015,
  "ScanOptions": "FS",
  "ScanningSequence": "EP",
  "SequenceName": "_epfid2d1_100",
  "SequenceVariant": "SK",
  "SeriesDescription": "bold_100x100_s3_2x2x2_232",
  "SeriesNumber": 9,
  "ShimSetting": [-5468, -11514, -1290, 447, 1, -233, -134, 52],
  "SliceThickness": 2,
  "SliceTiming": [1.485, 0, 0.99, 0.0825, 1.0725, 0.165, 1.155, 0.2475, 1.2375, 0.33, 1.32, 0.4125, 1.4025, 0.5775, 1.5675, 0.66, 1.65, 0.7425, 1.7325, 0.825, 1.815, 0.9075, 1.8975, 0.495, 1.485, 0, 0.99, 0.0825, 1.0725, 0.165, 1.155, 0.2475, 1.2375, 0.33, 1.32, 0.4125, 1.4025, 0.5775, 1.5675, 0.66, 1.65, 0.7425, 1.7325, 0.825, 1.815, 0.9075, 1.8975, 0.495, 1.485, 0, 0.99, 0.0825, 1.0725, 0.165, 1.155, 0.2475, 1.2375, 0.33, 1.32, 0.4125, 1.4025, 0.5775, 1.5675, 0.66, 1.65, 0.7425, 1.7325, 0.825, 1.815, 0.9075, 1.8975, 0.495],
  "SoftwareVersions": "syngo_MR_E11",
  "SpacingBetweenSlices": 2,
  "StationName": "AWP166078",
  "TaskName": "motor",
  "TotalReadoutTime": 0.0534586,
  "TxRefAmp": 221.157,
  "dcmmeta_affine": [
    [-1.9996309280395508, -0.03839493915438652, -0.0014483924023807049, 103.22065734863281],
    [-0.038419049233198166, 1.9970701932907104, 0.10116565227508545, -91.37850189208984],
    [0.0004958538920618594, -0.10117480903863907, 1.9974392652511597, -70.91099548339844],
    [0.0, 0.0, 0.0, 1.0]
],
  "dcmmeta_reorient_transform": [
    [0.0, -1.0, 0.0, 99.0],
    [1.0, 0.0, 0.0, 0.0],
    [0.0, 0.0, 1.0, 0.0],
    [0.0, 0.0, 0.0, 1.0]
],
  "dcmmeta_shape": [100, 100, 72, 232],
  "dcmmeta_slice_dim": 2,
  "dcmmeta_version": 0.6,
  "global": {
    "const": {
      "AcquisitionMatrix": [100, 0, 0, 100],
      "AngioFlag": "N",
      "BitsAllocated": 16,
      "BitsStored": 12,
      "BodyPartExamined": "BRAIN",
      "Columns": 900,
      "EchoNumbers": 1,
      "EchoTime": 34.0,
      "EchoTrainLength": 100,
      "FlipAngle": 90.0,
      "HighBit": 11,
      "ImageOrientationPatient": [0.99981544933389, 0.0192095238227, 0.0002479269413, -0.0191974689253, 0.9985351129095, 0.05058740429867],
      "ImagePositionPatient": [-883.91394100894, -920.52715796041, -121.59556337476],
      "ImageType": [
        "ORIGINAL",
        "PRIMARY",
        "M",
        "ND",
        "MOSAIC"
],
      "ImagedNucleus": "1H",
      "ImagingFrequency": 123.257848,
      "InPlanePhaseEncodingDirection": "COL",
      "MRAcquisitionType": "2D",
      "MagneticFieldStrength": 3.0,
      "Manufacturer": "SIEMENS",
      "ManufacturerModelName": "Prisma",
      "Modality": "MR",
      "NumberOfAverages": 1.0,
      "NumberOfPhaseEncodingSteps": 100,
      "PercentPhaseFieldOfView": 100.0,
      "PercentSampling": 100.0,
      "PerformedProcedureStepStartTime": "103015.322000",
      "PhotometricInterpretation": "MONOCHROME2",
      "PixelBandwidth": 2380.0,
      "PixelRepresentation": 0,
      "PixelSpacing": [2.0, 2.0],
      "ProtocolName": "bold_100x100_s3_2x2x2_232",
      "RepetitionTime": 2000.0,
      "Rows": 900,
      "SAR": 0.07660147827824,
      "SamplesPerPixel": 1,
      "ScanOptions": "FS",
      "ScanningSequence": "EP",
      "SequenceName": "*epfid2d1_100",
      "SequenceVariant": "SK",
      "SeriesDescription": "bold_100x100_s3_2x2x2_232",
      "SeriesNumber": 9,
      "SeriesTime": "111109.532000",
      "SliceLocation": -75.517133519949,
      "SliceThickness": 2.0,
      "SmallestImagePixelValue": 0,
      "SoftwareVersions": "syngo MR E11",
      "SpacingBetweenSlices": 1.99999999593,
      "SpecificCharacterSet": "ISO_IR 100",
      "StudyID": "1",
      "StudyTime": "103015.223000",
      "TransmitCoilName": "Body",
      "VariableFlipAngleFlag": "N",
      "WindowCenterWidthExplanation": "Algo1",
      "dBdt": 0.0},
    "slices": {}
  },
  "time": {
    "samples": {
      "AcquisitionNumber": [1, 2, 3, 4, 5, 6, 7, 8, 9, 10, 11, 12, 13, 14, 15, 16, 17, 18, 19, 20, 21, 22, 23, 24, 25, 26, 27, 28, 29, 30, 31, 32, 33, 34, 35, 36, 37, 38, 39, 40, 41, 42, 43, 44, 45, 46, 47, 48, 49, 50, 51, 52, 53, 54, 55, 56, 57, 58, 59, 60, 61, 62, 63, 64, 65, 66, 67, 68, 69, 70, 71, 72, 73, 74, 75, 76, 77, 78, 79, 80, 81, 82, 83, 84, 85, 86, 87, 88, 89, 90, 91, 92, 93, 94, 95, 96, 97, 98, 99, 100, 101, 102, 103, 104, 105, 106, 107, 108, 109, 110, 111, 112, 113, 114, 115, 116, 117, 118, 119, 120, 121, 122, 123, 124, 125, 126, 127, 128, 129, 130, 131, 132, 133, 134, 135, 136, 137, 138, 139, 140, 141, 142, 143, 144, 145, 146, 147, 148, 149, 150, 151, 152, 153, 154, 155, 156, 157, 158, 159, 160, 161, 162, 163, 164, 165, 166, 167, 168, 169, 170, 171, 172, 173, 174, 175, 176, 177, 178, 179, 180, 181, 182, 183, 184, 185, 186, 187, 188, 189, 190, 191, 192, 193, 194, 195, 196, 197, 198, 199, 200, 201, 202, 203, 204, 205, 206, 207, 208, 209, 210, 211, 212, 213, 214, 215, 216, 217, 218, 219, 220, 221, 222, 223, 224, 225, 226, 227, 228, 229, 230, 231, 232],
      "AcquisitionTime": ["111106.675000", "111108.675000", "111110.675000", "111112.675000", "111114.675000", "111116.675000", "111118.675000", "111120.675000", "111122.675000", "111124.675000", "111126.675000", "111128.675000", "111130.675000", "111132.675000", "111134.675000", "111136.675000", "111138.675000", "111140.675000", "111142.675000", "111144.675000", "111146.675000", "111148.675000", "111150.675000", "111152.675000", "111154.675000", "111156.675000", "111158.675000", "111200.675000", "111202.675000", "111204.675000", "111206.675000", "111208.675000", "111210.675000", "111212.675000", "111214.675000", "111216.675000", "111218.675000", "111220.675000", "111222.675000", "111224.675000", "111226.675000", "111228.675000", "111230.675000", "111232.675000", "111234.675000", "111236.675000", "111238.675000", "111240.675000", "111242.675000", "111244.675000", "111246.675000", "111248.675000", "111250.675000", "111252.675000", "111254.675000", "111256.675000", "111258.675000", "111300.675000", "111302.675000", "111304.675000", "111306.675000", "111308.675000", "111310.675000", "111312.675000", "111314.675000", "111316.675000", "111318.675000", "111320.675000", "111322.675000", "111324.675000", "111326.675000", "111328.675000", "111330.675000", "111332.675000", "111334.675000", "111336.675000", "111338.675000", "111340.675000", "111342.675000", "111344.675000", "111346.675000", "111348.675000", "111350.675000", "111352.675000", "111354.675000", "111356.675000", "111358.675000", "111400.675000", "111402.675000", "111404.675000", "111406.675000", "111408.675000", "111410.675000", "111412.675000", "111414.675000", "111416.675000", "111418.675000", "111420.675000", "111422.675000", "111424.675000", "111426.675000", "111428.675000", "111430.675000", "111432.675000", "111434.675000", "111436.675000", "111438.675000", "111440.675000", "111442.675000", "111444.675000", "111446.675000", "111448.675000", "111450.675000", "111452.675000", "111454.675000", "111456.675000", "111458.675000", "111500.675000", "111502.675000", "111504.675000", "111506.675000", "111508.675000", "111510.675000", "111512.675000", "111514.675000", "111516.675000", "111518.675000", "111520.675000", "111522.675000", "111524.675000", "111526.675000", "111528.675000", "111530.675000", "111532.675000", "111534.675000", "111536.675000", "111538.675000", "111540.675000", "111542.675000", "111544.675000", "111546.675000", "111548.675000", "111550.675000", "111552.675000", "111554.675000", "111556.675000", "111558.675000", "111600.675000", "111602.675000", "111604.675000", "111606.675000", "111608.675000", "111610.675000", "111612.675000", "111614.675000", "111616.675000", "111618.675000", "111620.675000", "111622.675000", "111624.675000", "111626.675000", "111628.675000", "111630.675000", "111632.675000", "111634.675000", "111636.675000", "111638.675000", "111640.675000", "111642.675000", "111644.675000", "111646.675000", "111648.675000", "111650.675000", "111652.675000", "111654.675000", "111656.675000", "111658.675000", "111700.675000", "111702.675000", "111704.675000", "111706.675000", "111708.675000", "111710.675000", "111712.675000", "111714.675000", "111716.675000", "111718.675000", "111720.675000", "111722.675000", "111724.675000", "111726.675000", "111728.675000", "111730.675000", "111732.675000", "111734.675000", "111736.675000", "111738.675000", "111740.675000", "111742.675000", "111744.675000", "111746.675000", "111748.675000", "111750.675000", "111752.675000", "111754.675000", "111756.675000", "111758.675000", "111800.675000", "111802.675000", "111804.675000", "111806.675000", "111808.675000", "111810.675000", "111812.675000", "111814.675000", "111816.675000", "111818.675000", "111820.675000", "111822.675000", "111824.675000", "111826.675000", "111828.675000", "111830.675000", "111832.675000", "111834.675000", "111836.675000", "111838.675000", "111840.675000", "111842.675000", "111844.675000", "111846.675000", "111848.675000"],
      "ContentTime": ["111109.536000", "111111.032000", "111113.030000", "111115.030000", "111117.031000", "111119.031000", "111121.030000", "111123.030000", "111125.030000", "111127.031000", "111129.031000", "111131.030000", "111133.031000", "111135.030000", "111137.031000", "111139.030000", "111141.030000", "111143.031000", "111145.032000", "111147.031000", "111149.031000", "111151.030000", "111153.030000", "111155.031000", "111157.030000", "111159.030000", "111201.030000", "111203.032000", "111205.031000", "111207.031000", "111209.030000", "111211.030000", "111213.030000", "111215.030000", "111217.031000", "111219.050000", "111221.031000", "111223.030000", "111225.030000", "111227.031000", "111229.030000", "111231.031000", "111233.030000", "111235.031000", "111237.031000", "111239.032000", "111241.030000", "111243.031000", "111245.030000", "111247.030000", "111249.030000", "111251.030000", "111253.030000", "111255.031000", "111257.032000", "111259.030000", "111301.030000", "111303.030000", "111305.030000", "111307.031000", "111309.030000", "111311.031000", "111313.031000", "111315.030000", "111317.030000", "111319.030000", "111321.031000", "111323.030000", "111325.031000", "111327.030000", "111329.031000", "111331.031000", "111333.030000", "111335.030000", "111337.030000", "111339.030000", "111341.030000", "111343.030000", "111345.031000", "111347.031000", "111349.031000", "111351.030000", "111353.030000", "111355.030000", "111357.030000", "111359.031000", "111401.031000", "111403.030000", "111405.031000", "111407.031000", "111409.031000", "111411.030000", "111413.030000", "111415.030000", "111417.031000", "111419.031000", "111421.030000", "111423.031000", "111425.030000", "111427.030000", "111429.030000", "111431.030000", "111433.031000", "111435.030000", "111437.030000", "111439.031000", "111441.031000", "111443.030000", "111445.031000", "111447.031000", "111449.031000", "111451.031000", "111453.031000", "111455.030000", "111457.031000", "111459.032000", "111501.031000", "111503.031000", "111505.030000", "111507.031000", "111509.032000", "111511.031000", "111513.031000", "111515.031000", "111517.031000", "111519.030000", "111521.030000", "111523.030000", "111525.031000", "111527.030000", "111529.030000", "111531.031000", "111533.032000", "111535.030000", "111537.031000", "111539.030000", "111541.030000", "111543.030000", "111545.030000", "111547.030000", "111549.030000", "111551.031000", "111553.030000", "111555.030000", "111557.031000", "111559.030000", "111601.030000", "111603.030000", "111605.031000", "111607.031000", "111609.031000", "111611.030000", "111613.030000", "111615.031000", "111617.031000", "111619.031000", "111621.030000", "111623.030000", "111625.031000", "111627.031000", "111629.031000", "111631.030000", "111633.031000", "111635.031000", "111637.030000", "111639.030000", "111641.031000", "111643.031000", "111645.031000", "111647.030000", "111649.030000", "111651.031000", "111653.030000", "111655.030000", "111657.030000", "111659.030000", "111701.032000", "111703.030000", "111705.031000", "111707.030000", "111709.030000", "111711.030000", "111713.031000", "111715.030000", "111717.031000", "111719.031000", "111721.030000", "111723.030000", "111725.030000", "111727.030000", "111729.030000", "111731.031000", "111733.030000", "111735.031000", "111737.031000", "111739.030000", "111741.030000", "111743.030000", "111745.030000", "111747.030000", "111749.030000", "111751.030000", "111753.031000", "111755.030000", "111757.030000", "111759.030000", "111801.030000", "111803.030000", "111805.031000", "111807.041000", "111809.031000", "111811.032000", "111813.030000", "111815.030000", "111817.030000", "111819.030000", "111821.030000", "111823.030000", "111825.030000", "111827.031000", "111829.031000", "111831.031000", "111833.030000", "111835.031000", "111837.030000", "111839.030000", "111841.031000", "111843.030000", "111845.031000", "111847.031000", "111849.030000", "111850.686000"],
      "InstanceCreationTime": ["111109.536000", "111111.032000", "111113.030000", "111115.030000", "111117.031000", "111119.031000", "111121.030000", "111123.030000", "111125.030000", "111127.031000", "111129.031000", "111131.030000", "111133.031000", "111135.030000", "111137.031000", "111139.030000", "111141.030000", "111143.031000", "111145.032000", "111147.031000", "111149.031000", "111151.030000", "111153.030000", "111155.031000", "111157.030000", "111159.030000", "111201.030000", "111203.032000", "111205.031000", "111207.031000", "111209.030000", "111211.030000", "111213.030000", "111215.030000", "111217.031000", "111219.050000", "111221.031000", "111223.030000", "111225.030000", "111227.031000", "111229.030000", "111231.031000", "111233.030000", "111235.031000", "111237.031000", "111239.032000", "111241.030000", "111243.031000", "111245.030000", "111247.030000", "111249.030000", "111251.030000", "111253.030000", "111255.031000", "111257.032000", "111259.030000", "111301.030000", "111303.030000", "111305.030000", "111307.031000", "111309.030000", "111311.031000", "111313.031000", "111315.030000", "111317.030000", "111319.030000", "111321.031000", "111323.030000", "111325.031000", "111327.030000", "111329.031000", "111331.031000", "111333.030000", "111335.030000", "111337.030000", "111339.030000", "111341.030000", "111343.030000", "111345.031000", "111347.031000", "111349.031000", "111351.030000", "111353.030000", "111355.030000", "111357.030000", "111359.031000", "111401.031000", "111403.030000", "111405.031000", "111407.031000", "111409.031000", "111411.030000", "111413.030000", "111415.030000", "111417.031000", "111419.031000", "111421.030000", "111423.031000", "111425.030000", "111427.030000", "111429.030000", "111431.030000", "111433.031000", "111435.030000", "111437.030000", "111439.031000", "111441.031000", "111443.030000", "111445.031000", "111447.031000", "111449.031000", "111451.031000", "111453.031000", "111455.030000", "111457.031000", "111459.032000", "111501.031000", "111503.031000", "111505.030000", "111507.031000", "111509.032000", "111511.031000", "111513.031000", "111515.031000", "111517.031000", "111519.030000", "111521.030000", "111523.030000", "111525.031000", "111527.030000", "111529.030000", "111531.031000", "111533.032000", "111535.030000", "111537.031000", "111539.030000", "111541.030000", "111543.030000", "111545.030000", "111547.030000", "111549.030000", "111551.031000", "111553.030000", "111555.030000", "111557.031000", "111559.030000", "111601.030000", "111603.030000", "111605.031000", "111607.031000", "111609.031000", "111611.030000", "111613.030000", "111615.031000", "111617.031000", "111619.031000", "111621.030000", "111623.030000", "111625.031000", "111627.031000", "111629.031000", "111631.030000", "111633.031000", "111635.031000", "111637.030000", "111639.030000", "111641.031000", "111643.031000", "111645.031000", "111647.030000", "111649.030000", "111651.031000", "111653.030000", "111655.030000", "111657.030000", "111659.030000", "111701.032000", "111703.030000", "111705.031000", "111707.030000", "111709.030000", "111711.030000", "111713.031000", "111715.030000", "111717.031000", "111719.031000", "111721.030000", "111723.030000", "111725.030000", "111727.030000", "111729.030000", "111731.031000", "111733.030000", "111735.031000", "111737.031000", "111739.030000", "111741.030000", "111743.030000", "111745.030000", "111747.030000", "111749.030000", "111751.030000", "111753.031000", "111755.030000", "111757.030000", "111759.030000", "111801.030000", "111803.030000", "111805.031000", "111807.041000", "111809.031000", "111811.032000", "111813.030000", "111815.030000", "111817.030000", "111819.030000", "111821.030000", "111823.030000", "111825.030000", "111827.031000", "111829.031000", "111831.031000", "111833.030000", "111835.031000", "111837.030000", "111839.030000", "111841.031000", "111843.030000", "111845.031000", "111847.031000", "111849.030000", "111850.686000"],
      "InstanceNumber": [1, 2, 3, 4, 5, 6, 7, 8, 9, 10, 11, 12, 13, 14, 15, 16, 17, 18, 19, 20, 21, 22, 23, 24, 25, 26, 27, 28, 29, 30, 31, 32, 33, 34, 35, 36, 37, 38, 39, 40, 41, 42, 43, 44, 45, 46, 47, 48, 49, 50, 51, 52, 53, 54, 55, 56, 57, 58, 59, 60, 61, 62, 63, 64, 65, 66, 67, 68, 69, 70, 71, 72, 73, 74, 75, 76, 77, 78, 79, 80, 81, 82, 83, 84, 85, 86, 87, 88, 89, 90, 91, 92, 93, 94, 95, 96, 97, 98, 99, 100, 101, 102, 103, 104, 105, 106, 107, 108, 109, 110, 111, 112, 113, 114, 115, 116, 117, 118, 119, 120, 121, 122, 123, 124, 125, 126, 127, 128, 129, 130, 131, 132, 133, 134, 135, 136, 137, 138, 139, 140, 141, 142, 143, 144, 145, 146, 147, 148, 149, 150, 151, 152, 153, 154, 155, 156, 157, 158, 159, 160, 161, 162, 163, 164, 165, 166, 167, 168, 169, 170, 171, 172, 173, 174, 175, 176, 177, 178, 179, 180, 181, 182, 183, 184, 185, 186, 187, 188, 189, 190, 191, 192, 193, 194, 195, 196, 197, 198, 199, 200, 201, 202, 203, 204, 205, 206, 207, 208, 209, 210, 211, 212, 213, 214, 215, 216, 217, 218, 219, 220, 221, 222, 223, 224, 225, 226, 227, 228, 229, 230, 231, 232],
      "LargestImagePixelValue": [2980, 2932, 2923, 2941, 2911, 2947, 2931, 2934, 2945, 2940, 2911, 2902, 2904, 2892, 2884, 2902, 2895, 2924, 2901, 2876, 2882, 2909, 2900, 2895, 2921, 2919, 2925, 2856, 2887, 2934, 2891, 2900, 2877, 2919, 2923, 2903, 2904, 2925, 2927, 2912, 2896, 2914, 2902, 2909, 2890, 2905, 2927, 2970, 2893, 2906, 2913, 2883, 2966, 2939, 2946, 2851, 3034, 2915, 2902, 2912, 2974, 2941, 2962, 2914, 2931, 2913, 2931, 2934, 2941, 2927, 2935, 2936, 2970, 2956, 2984, 2956, 2924, 2927, 2947, 2947, 2958, 2943, 2948, 2948, 2967, 2961, 2986, 2966, 2948, 2933, 2984, 2975, 2948, 3007, 2958, 2916, 3072, 2932, 2949, 2939, 2967, 2961, 2966, 2919, 2928, 2927, 2893, 2904, 2942, 2935, 2909, 2917, 2905, 2961, 2886, 2902, 2930, 2944, 2941, 2994, 2964, 2963, 2983, 2945, 2965, 2968, 2941, 2942, 2943, 2951, 2947, 2940, 2939, 2954, 2953, 2961, 2956, 2962, 2962, 2903, 2924, 2942, 2989, 2961, 2962, 2977, 2970, 2985, 2985, 2981, 2970, 2973, 2982, 2997, 2963, 2989, 2989, 2989, 3003, 3004, 2968, 2973, 2981, 2999, 2971, 2977, 3019, 2962, 2982, 2985, 2956, 2953, 2954, 2990, 2987, 3012, 2991, 3003, 2968, 2913, 2973, 2970, 3010, 2977, 2995, 3000, 2973, 3012, 2966, 3005, 2953, 2979, 2978, 2973, 2971, 3002, 3016, 2988, 2979, 2967, 3001, 2989, 2943, 2924, 2948, 2933, 2933, 2917, 2921, 2942, 2952, 2941, 2928, 2911, 2942, 2930, 2958, 2959, 2986, 2947, 3002, 2998, 2965, 2950, 2968, 2978, 2941, 2930, 2928, 2916, 2952, 2955],
      "WindowCenter": [764.0, 762.0, 761.0, 761.0, 760.0, 760.0, 761.0, 760.0, 760.0, 761.0, 761.0, 761.0, 760.0, 760.0, 760.0, 760.0, 761.0, 761.0, 762.0, 762.0, 762.0, 763.0, 762.0, 762.0, 762.0, 762.0, 763.0, 762.0, 762.0, 763.0, 761.0, 762.0, 761.0, 762.0, 762.0, 762.0, 762.0, 763.0, 762.0, 762.0, 761.0, 761.0, 761.0, 762.0, 762.0, 762.0, 762.0, 764.0, 764.0, 763.0, 763.0, 761.0, 761.0, 760.0, 761.0, 761.0, 759.0, 762.0, 763.0, 762.0, 762.0, 762.0, 762.0, 763.0, 763.0, 762.0, 762.0, 763.0, 762.0, 761.0, 761.0, 761.0, 761.0, 761.0, 761.0, 761.0, 761.0, 761.0, 761.0, 762.0, 762.0, 762.0, 762.0, 762.0, 761.0, 761.0, 762.0, 761.0, 761.0, 761.0, 762.0, 762.0, 762.0, 761.0, 762.0, 762.0, 761.0, 762.0, 763.0, 763.0, 763.0, 763.0, 763.0, 763.0, 762.0, 763.0, 763.0, 764.0, 764.0, 764.0, 762.0, 763.0, 764.0, 764.0, 763.0, 762.0, 762.0, 762.0, 762.0, 761.0, 761.0, 761.0, 762.0, 762.0, 761.0, 761.0, 762.0, 761.0, 762.0, 761.0, 761.0, 762.0, 762.0, 762.0, 762.0, 762.0, 762.0, 762.0, 765.0, 764.0, 763.0, 761.0, 761.0, 762.0, 762.0, 763.0, 764.0, 762.0, 762.0, 763.0, 762.0, 762.0, 762.0, 762.0, 761.0, 763.0, 763.0, 763.0, 763.0, 763.0, 762.0, 761.0, 761.0, 761.0, 762.0, 761.0, 762.0, 762.0, 762.0, 763.0, 763.0, 763.0, 763.0, 763.0, 762.0, 762.0, 761.0, 761.0, 762.0, 761.0, 760.0, 758.0, 760.0, 760.0, 760.0, 761.0, 762.0, 762.0, 762.0, 761.0, 762.0, 762.0, 762.0, 763.0, 762.0, 763.0, 763.0, 762.0, 761.0, 762.0, 761.0, 761.0, 764.0, 761.0, 760.0, 760.0, 760.0, 759.0, 757.0, 758.0, 757.0, 756.0, 757.0, 757.0, 758.0, 759.0, 759.0, 760.0, 761.0, 761.0, 762.0, 761.0, 761.0, 759.0, 760.0, 761.0, 762.0, 761.0, 761.0, 762.0, 762.0, 762.0],
      "WindowWidth": [1665.0, 1660.0, 1656.0, 1657.0, 1655.0, 1655.0, 1655.0, 1653.0, 1654.0, 1655.0, 1656.0, 1655.0, 1654.0, 1655.0, 1654.0, 1654.0, 1655.0, 1657.0, 1658.0, 1659.0, 1660.0, 1661.0, 1659.0, 1658.0, 1660.0, 1660.0, 1662.0, 1659.0, 1660.0, 1662.0, 1657.0, 1658.0, 1655.0, 1660.0, 1660.0, 1659.0, 1660.0, 1660.0, 1659.0, 1659.0, 1658.0, 1658.0, 1658.0, 1658.0, 1658.0, 1658.0, 1659.0, 1665.0, 1663.0, 1661.0, 1661.0, 1655.0, 1655.0, 1651.0, 1656.0, 1655.0, 1651.0, 1660.0, 1661.0, 1660.0, 1660.0, 1659.0, 1659.0, 1660.0, 1661.0, 1659.0, 1659.0, 1660.0, 1659.0, 1656.0, 1657.0, 1656.0, 1657.0, 1655.0, 1656.0, 1656.0, 1657.0, 1655.0, 1657.0, 1657.0, 1659.0, 1659.0, 1660.0, 1658.0, 1657.0, 1657.0, 1657.0, 1656.0, 1656.0, 1655.0, 1658.0, 1658.0, 1658.0, 1656.0, 1657.0, 1658.0, 1656.0, 1659.0, 1661.0, 1662.0, 1662.0, 1662.0, 1662.0, 1661.0, 1660.0, 1661.0, 1663.0, 1664.0, 1665.0, 1664.0, 1659.0, 1661.0, 1662.0, 1664.0, 1662.0, 1659.0, 1659.0, 1659.0, 1659.0, 1657.0, 1656.0, 1657.0, 1658.0, 1658.0, 1655.0, 1657.0, 1659.0, 1656.0, 1657.0, 1654.0, 1655.0, 1657.0, 1659.0, 1659.0, 1659.0, 1658.0, 1658.0, 1658.0, 1666.0, 1663.0, 1660.0, 1656.0, 1655.0, 1658.0, 1658.0, 1661.0, 1663.0, 1659.0, 1659.0, 1660.0, 1658.0, 1659.0, 1659.0, 1658.0, 1656.0, 1660.0, 1662.0, 1662.0, 1660.0, 1661.0, 1659.0, 1656.0, 1655.0, 1656.0, 1658.0, 1657.0, 1659.0, 1658.0, 1659.0, 1662.0, 1662.0, 1662.0, 1661.0, 1662.0, 1660.0, 1658.0, 1655.0, 1656.0, 1659.0, 1655.0, 1652.0, 1647.0, 1652.0, 1654.0, 1652.0, 1655.0, 1656.0, 1658.0, 1657.0, 1656.0, 1658.0, 1658.0, 1659.0, 1660.0, 1659.0, 1660.0, 1660.0, 1658.0, 1657.0, 1657.0, 1655.0, 1657.0, 1664.0, 1656.0, 1653.0, 1651.0, 1652.0, 1651.0, 1644.0, 1646.0, 1645.0, 1642.0, 1644.0, 1643.0, 1647.0, 1649.0, 1650.0, 1652.0, 1654.0, 1654.0, 1656.0, 1656.0, 1654.0, 1650.0, 1653.0, 1655.0, 1658.0, 1655.0, 1657.0, 1658.0, 1657.0, 1657.0]
    },
    "slices": {}
  }
}