{
  "AcquisitionMatrixPE": 100,
  "AcquisitionNumber": 1,
  "AcquisitionTime": "10:42:13.010000",
  "BandwidthPerPixelPhaseEncode": 18.519,
  "BaseResolution": 100,
  "BodyPartExamined": "BRAIN",
  "ConsistencyInfo": "N4_VE11C_LATEST_20160120",
  "ConversionSoftware": "dcm2niix",
  "ConversionSoftwareVersion": "v1.0.20180622 GCC4.9.2",
  "DerivedVendorReportedEchoSpacing": 0.000539986,
  "DeviceSerialNumber": "166078",
  "DwellTime": 2.1e-06,
  "EchoTime": 0.034,
  "EchoTrainLength": 100,
  "EffectiveEchoSpacing": 0.000539986,
  "FlipAngle": 90,
  "ImageOrientationPatientDICOM": [0.999815, 0.0192095, 0.000247927, -0.0191975, 0.998535, 0.0505874],
  "ImageType": [
    "ORIGINAL",
    "PRIMARY",
    "M",
    "ND",
    "MOSAIC"
],
  "InPlanePhaseEncodingDirectionDICOM": "COL",
  "InstitutionAddress": "Street_StreetNo_Bei_Jing_District_CN_ZIP",
  "InstitutionName": "BeiJing_Normal_University",
  "InstitutionalDepartmentName": "Department",
  "MRAcquisitionType": "2D",
  "MagneticFieldStrength": 3,
  "Manufacturer": "Siemens",
  "ManufacturersModelName": "Prisma",
  "Modality": "MR",
  "MultibandAccelerationFactor": 3,
  "PartialFourier": 1,
  "PatientPosition": "HFS",
  "PercentPhaseFOV": 100,
  "PhaseEncodingDirection": "j-",
  "PhaseEncodingSteps": 100,
  "PhaseResolution": 1,
  "PixelBandwidth": 2380,
  "ProcedureStepDescription": "BNU_P2018_64CH_Liu.Jia",
  "ProtocolName": "bold_100x100_s3_2x2x2_232",
  "PulseSequenceDetails": "%SiemensSeq%_ep2d_bold",
  "ReceiveCoilActiveElements": "HC1-7;NC1",
  "ReceiveCoilName": "HeadNeck_64",
  "ReconMatrixPE": 100,
  "RepetitionTime": 2,
  "SAR": 0.0766015,
  "ScanOptions": "FS",
  "ScanningSequence": "EP",
  "SequenceName": "_epfid2d1_100",
  "SequenceVariant": "SK",
  "SeriesDescription": "bold_100x100_s3_2x2x2_232",
  "SeriesNumber": 4,
  "ShimSetting": [-5468, -11514, -1290, 447, 1, -233, -134, 52],
  "SliceThickness": 2,
  "SliceTiming": [1.485, 0, 0.99, 0.0825, 1.0725, 0.165, 1.155, 0.2475, 1.2375, 0.33, 1.32, 0.4125, 1.4025, 0.5775, 1.5675, 0.66, 1.65, 0.7425, 1.7325, 0.825, 1.815, 0.9075, 1.8975, 0.495, 1.485, 0, 0.99, 0.0825, 1.0725, 0.165, 1.155, 0.2475, 1.2375, 0.33, 1.32, 0.4125, 1.4025, 0.5775, 1.5675, 0.66, 1.65, 0.7425, 1.7325, 0.825, 1.815, 0.9075, 1.8975, 0.495, 1.485, 0, 0.99, 0.0825, 1.0725, 0.165, 1.155, 0.2475, 1.2375, 0.33, 1.32, 0.4125, 1.4025, 0.5775, 1.5675, 0.66, 1.65, 0.7425, 1.7325, 0.825, 1.815, 0.9075, 1.8975, 0.495],
  "SoftwareVersions": "syngo_MR_E11",
  "SpacingBetweenSlices": 2,
  "StationName": "AWP166078",
  "TaskName": "motor",
  "TotalReadoutTime": 0.0534586,
  "TxRefAmp": 221.157,
  "dcmmeta_affine": [
    [-1.9996309280395508, -0.03839493915438652, -0.0014483924023807049, 103.22065734863281],
    [-0.038419049233198166, 1.9970701932907104, 0.10116565227508545, -91.37850189208984],
    [0.0004958538920618594, -0.10117480903863907, 1.9974392652511597, -70.91099548339844],
    [0.0, 0.0, 0.0, 1.0]
],
  "dcmmeta_reorient_transform": [
    [0.0, -1.0, 0.0, 99.0],
    [1.0, 0.0, 0.0, 0.0],
    [0.0, 0.0, 1.0, 0.0],
    [0.0, 0.0, 0.0, 1.0]
],
  "dcmmeta_shape": [100, 100, 72, 232],
  "dcmmeta_slice_dim": 2,
  "dcmmeta_version": 0.6,
  "global": {
    "const": {
      "AcquisitionMatrix": [100, 0, 0, 100],
      "AngioFlag": "N",
      "BitsAllocated": 16,
      "BitsStored": 12,
      "BodyPartExamined": "BRAIN",
      "Columns": 900,
      "EchoNumbers": 1,
      "EchoTime": 34.0,
      "EchoTrainLength": 100,
      "FlipAngle": 90.0,
      "HighBit": 11,
      "ImageOrientationPatient": [0.99981544933389, 0.0192095238227, 0.0002479269413, -0.0191974689253, 0.9985351129095, 0.05058740429867],
      "ImagePositionPatient": [-883.91394100894, -920.52715796041, -121.59556337476],
      "ImageType": [
        "ORIGINAL",
        "PRIMARY",
        "M",
        "ND",
        "MOSAIC"
],
      "ImagedNucleus": "1H",
      "ImagingFrequency": 123.257837,
      "InPlanePhaseEncodingDirection": "COL",
      "MRAcquisitionType": "2D",
      "MagneticFieldStrength": 3.0,
      "Manufacturer": "SIEMENS",
      "ManufacturerModelName": "Prisma",
      "Modality": "MR",
      "NumberOfAverages": 1.0,
      "NumberOfPhaseEncodingSteps": 100,
      "PercentPhaseFieldOfView": 100.0,
      "PercentSampling": 100.0,
      "PerformedProcedureStepStartTime": "103015.322000",
      "PhotometricInterpretation": "MONOCHROME2",
      "PixelBandwidth": 2380.0,
      "PixelRepresentation": 0,
      "PixelSpacing": [2.0, 2.0],
      "ProtocolName": "bold_100x100_s3_2x2x2_232",
      "RepetitionTime": 2000.0,
      "Rows": 900,
      "SAR": 0.07660147827824,
      "SamplesPerPixel": 1,
      "ScanOptions": "FS",
      "ScanningSequence": "EP",
      "SequenceName": "*epfid2d1_100",
      "SequenceVariant": "SK",
      "SeriesDescription": "bold_100x100_s3_2x2x2_232",
      "SeriesNumber": 4,
      "SeriesTime": "104215.508000",
      "SliceLocation": -75.517133519949,
      "SliceThickness": 2.0,
      "SmallestImagePixelValue": 0,
      "SoftwareVersions": "syngo MR E11",
      "SpacingBetweenSlices": 1.99999999593,
      "SpecificCharacterSet": "ISO_IR 100",
      "StudyID": "1",
      "StudyTime": "103015.223000",
      "TransmitCoilName": "Body",
      "VariableFlipAngleFlag": "N",
      "WindowCenterWidthExplanation": "Algo1",
      "dBdt": 0.0},
    "slices": {}
  },
  "time": {
    "samples": {
      "AcquisitionNumber": [1, 2, 3, 4, 5, 6, 7, 8, 9, 10, 11, 12, 13, 14, 15, 16, 17, 18, 19, 20, 21, 22, 23, 24, 25, 26, 27, 28, 29, 30, 31, 32, 33, 34, 35, 36, 37, 38, 39, 40, 41, 42, 43, 44, 45, 46, 47, 48, 49, 50, 51, 52, 53, 54, 55, 56, 57, 58, 59, 60, 61, 62, 63, 64, 65, 66, 67, 68, 69, 70, 71, 72, 73, 74, 75, 76, 77, 78, 79, 80, 81, 82, 83, 84, 85, 86, 87, 88, 89, 90, 91, 92, 93, 94, 95, 96, 97, 98, 99, 100, 101, 102, 103, 104, 105, 106, 107, 108, 109, 110, 111, 112, 113, 114, 115, 116, 117, 118, 119, 120, 121, 122, 123, 124, 125, 126, 127, 128, 129, 130, 131, 132, 133, 134, 135, 136, 137, 138, 139, 140, 141, 142, 143, 144, 145, 146, 147, 148, 149, 150, 151, 152, 153, 154, 155, 156, 157, 158, 159, 160, 161, 162, 163, 164, 165, 166, 167, 168, 169, 170, 171, 172, 173, 174, 175, 176, 177, 178, 179, 180, 181, 182, 183, 184, 185, 186, 187, 188, 189, 190, 191, 192, 193, 194, 195, 196, 197, 198, 199, 200, 201, 202, 203, 204, 205, 206, 207, 208, 209, 210, 211, 212, 213, 214, 215, 216, 217, 218, 219, 220, 221, 222, 223, 224, 225, 226, 227, 228, 229, 230, 231, 232],
      "AcquisitionTime": ["104213.010000", "104215.010000", "104217.010000", "104219.010000", "104221.010000", "104223.010000", "104225.010000", "104227.010000", "104229.010000", "104231.010000", "104233.010000", "104235.010000", "104237.010000", "104239.010000", "104241.010000", "104243.010000", "104245.010000", "104247.010000", "104249.010000", "104251.010000", "104253.010000", "104255.010000", "104257.010000", "104259.010000", "104301.010000", "104303.010000", "104305.010000", "104307.010000", "104309.010000", "104311.010000", "104313.010000", "104315.010000", "104317.010000", "104319.010000", "104321.010000", "104323.010000", "104325.010000", "104327.010000", "104329.010000", "104331.010000", "104333.010000", "104335.010000", "104337.010000", "104339.010000", "104341.010000", "104343.010000", "104345.010000", "104347.010000", "104349.010000", "104351.010000", "104353.010000", "104355.010000", "104357.010000", "104359.010000", "104401.010000", "104403.010000", "104405.010000", "104407.010000", "104409.010000", "104411.010000", "104413.010000", "104415.010000", "104417.010000", "104419.010000", "104421.010000", "104423.010000", "104425.010000", "104427.010000", "104429.010000", "104431.010000", "104433.010000", "104435.010000", "104437.010000", "104439.010000", "104441.010000", "104443.010000", "104445.010000", "104447.010000", "104449.010000", "104451.010000", "104453.010000", "104455.010000", "104457.010000", "104459.010000", "104501.010000", "104503.010000", "104505.010000", "104507.010000", "104509.010000", "104511.010000", "104513.010000", "104515.010000", "104517.010000", "104519.010000", "104521.010000", "104523.010000", "104525.010000", "104527.010000", "104529.010000", "104531.010000", "104533.010000", "104535.010000", "104537.010000", "104539.010000", "104541.010000", "104543.010000", "104545.010000", "104547.010000", "104549.010000", "104551.010000", "104553.010000", "104555.010000", "104557.010000", "104559.010000", "104601.010000", "104603.010000", "104605.010000", "104607.010000", "104609.010000", "104611.010000", "104613.010000", "104615.010000", "104617.010000", "104619.010000", "104621.010000", "104623.010000", "104625.010000", "104627.010000", "104629.010000", "104631.010000", "104633.010000", "104635.010000", "104637.010000", "104639.010000", "104641.010000", "104643.010000", "104645.010000", "104647.010000", "104649.010000", "104651.010000", "104653.010000", "104655.010000", "104657.010000", "104659.010000", "104701.010000", "104703.010000", "104705.010000", "104707.010000", "104709.010000", "104711.010000", "104713.010000", "104715.010000", "104717.010000", "104719.010000", "104721.010000", "104723.010000", "104725.010000", "104727.010000", "104729.010000", "104731.010000", "104733.010000", "104735.010000", "104737.010000", "104739.010000", "104741.010000", "104743.010000", "104745.010000", "104747.010000", "104749.010000", "104751.010000", "104753.010000", "104755.010000", "104757.010000", "104759.010000", "104801.010000", "104803.010000", "104805.010000", "104807.010000", "104809.010000", "104811.010000", "104813.010000", "104815.010000", "104817.010000", "104819.010000", "104821.010000", "104823.010000", "104825.010000", "104827.010000", "104829.010000", "104831.010000", "104833.010000", "104835.010000", "104837.010000", "104839.010000", "104841.010000", "104843.010000", "104845.010000", "104847.010000", "104849.010000", "104851.010000", "104853.010000", "104855.010000", "104857.010000", "104859.010000", "104901.010000", "104903.010000", "104905.010000", "104907.010000", "104909.010000", "104911.010000", "104913.010000", "104915.010000", "104917.010000", "104919.010000", "104921.010000", "104923.010000", "104925.010000", "104927.010000", "104929.010000", "104931.010000", "104933.010000", "104935.010000", "104937.010000", "104939.010000", "104941.010000", "104943.010000", "104945.010000", "104947.010000", "104949.010000", "104951.010000", "104953.010000", "104955.010000"],
      "ContentTime": ["104215.512000", "104217.008000", "104219.508000", "104221.008000", "104223.508000", "104225.008000", "104227.508000", "104229.507000", "104231.007000", "104233.008000", "104235.507000", "104237.008000", "104239.009000", "104241.508000", "104243.509000", "104245.507000", "104247.508000", "104249.007000", "104251.007000", "104253.007000", "104255.508000", "104257.508000", "104259.508000", "104301.507000", "104303.007000", "104305.007000", "104307.007000", "104309.508000", "104311.008000", "104313.509000", "104315.508000", "104317.008000", "104319.007000", "104321.507000", "104323.007000", "104325.007000", "104327.007000", "104329.508000", "104331.009000", "104333.008000", "104335.508000", "104337.507000", "104339.507000", "104341.507000", "104343.507000", "104345.508000", "104347.008000", "104349.508000", "104351.009000", "104353.008000", "104355.007000", "104357.007000", "104359.507000", "104401.508000", "104403.508000", "104405.008000", "104407.008000", "104409.008000", "104411.008000", "104413.507000", "104415.507000", "104417.007000", "104419.508000", "104421.008000", "104423.008000", "104425.008000", "104427.509000", "104429.508000", "104431.007000", "104433.509000", "104435.008000", "104437.508000", "104439.009000", "104441.509000", "104443.009000", "104445.509000", "104447.507000", "104449.007000", "104451.507000", "104453.007000", "104455.507000", "104457.008000", "104459.508000", "104501.508000", "104503.008000", "104505.507000", "104507.508000", "104509.508000", "104511.507000", "104513.509000", "104515.009000", "104517.009000", "104519.508000", "104521.008000", "104523.007000", "104525.507000", "104527.507000", "104529.007000", "104531.509000", "104533.508000", "104535.508000", "104537.009000", "104539.508000", "104541.507000", "104543.507000", "104545.007000", "104547.508000", "104549.508000", "104551.008000", "104553.008000", "104555.508000", "104557.007000", "104559.007000", "104601.007000", "104603.508000", "104605.008000", "104607.508000", "104609.508000", "104611.508000", "104613.509000", "104615.507000", "104617.508000", "104619.508000", "104621.507000", "104623.508000", "104625.508000", "104627.008000", "104629.508000", "104631.009000", "104633.507000", "104635.507000", "104637.507000", "104639.507000", "104641.509000", "104643.508000", "104645.008000", "104647.508000", "104649.507000", "104651.507000", "104653.007000", "104655.508000", "104657.508000", "104659.508000", "104701.008000", "104703.509000", "104705.508000", "104707.007000", "104709.507000", "104711.508000", "104713.007000", "104715.007000", "104717.008000", "104719.008000", "104721.008000", "104723.009000", "104725.508000", "104727.008000", "104729.007000", "104731.007000", "104733.508000", "104735.008000", "104737.008000", "104739.508000", "104741.008000", "104743.007000", "104745.008000", "104747.007000", "104749.508000", "104751.508000", "104753.508000", "104755.508000", "104757.009000", "104759.507000", "104801.007000", "104803.007000", "104805.508000", "104807.508000", "104809.008000", "104811.008000", "104813.508000", "104815.508000", "104817.008000", "104819.508000", "104821.508000", "104823.507000", "104825.507000", "104827.508000", "104829.009000", "104831.509000", "104833.008000", "104835.007000", "104837.008000", "104839.508000", "104841.508000", "104843.007000", "104845.009000", "104847.008000", "104849.008000", "104851.008000", "104853.507000", "104855.507000", "104857.007000", "104859.007000", "104901.008000", "104903.008000", "104905.008000", "104907.508000", "104909.508000", "104911.508000", "104913.508000", "104915.007000", "104917.007000", "104919.509000", "104921.008000", "104923.008000", "104925.008000", "104927.508000", "104929.507000", "104931.507000", "104933.007000", "104935.508000", "104937.509000", "104939.009000", "104941.508000", "104943.509000", "104945.008000", "104947.007000", "104949.507000", "104951.508000", "104953.508000", "104955.508000", "104956.978000"],
      "InstanceCreationTime": ["104215.512000", "104217.008000", "104219.508000", "104221.008000", "104223.508000", "104225.008000", "104227.508000", "104229.507000", "104231.007000", "104233.008000", "104235.507000", "104237.008000", "104239.009000", "104241.508000", "104243.509000", "104245.507000", "104247.508000", "104249.007000", "104251.007000", "104253.007000", "104255.508000", "104257.508000", "104259.508000", "104301.507000", "104303.007000", "104305.007000", "104307.007000", "104309.508000", "104311.008000", "104313.509000", "104315.508000", "104317.008000", "104319.007000", "104321.507000", "104323.007000", "104325.007000", "104327.007000", "104329.508000", "104331.009000", "104333.008000", "104335.508000", "104337.507000", "104339.507000", "104341.507000", "104343.507000", "104345.508000", "104347.008000", "104349.508000", "104351.009000", "104353.008000", "104355.007000", "104357.007000", "104359.507000", "104401.508000", "104403.508000", "104405.008000", "104407.008000", "104409.008000", "104411.008000", "104413.507000", "104415.507000", "104417.007000", "104419.508000", "104421.008000", "104423.008000", "104425.008000", "104427.509000", "104429.508000", "104431.007000", "104433.509000", "104435.008000", "104437.508000", "104439.009000", "104441.509000", "104443.009000", "104445.509000", "104447.507000", "104449.007000", "104451.507000", "104453.007000", "104455.507000", "104457.008000", "104459.508000", "104501.508000", "104503.008000", "104505.507000", "104507.508000", "104509.508000", "104511.507000", "104513.509000", "104515.009000", "104517.009000", "104519.508000", "104521.008000", "104523.007000", "104525.507000", "104527.507000", "104529.007000", "104531.509000", "104533.508000", "104535.508000", "104537.009000", "104539.508000", "104541.507000", "104543.507000", "104545.007000", "104547.508000", "104549.508000", "104551.008000", "104553.008000", "104555.508000", "104557.007000", "104559.007000", "104601.007000", "104603.508000", "104605.008000", "104607.508000", "104609.508000", "104611.508000", "104613.509000", "104615.507000", "104617.508000", "104619.508000", "104621.507000", "104623.508000", "104625.508000", "104627.008000", "104629.508000", "104631.009000", "104633.507000", "104635.507000", "104637.507000", "104639.507000", "104641.509000", "104643.508000", "104645.008000", "104647.508000", "104649.507000", "104651.507000", "104653.007000", "104655.508000", "104657.508000", "104659.508000", "104701.008000", "104703.509000", "104705.508000", "104707.007000", "104709.507000", "104711.508000", "104713.007000", "104715.007000", "104717.008000", "104719.008000", "104721.008000", "104723.009000", "104725.508000", "104727.008000", "104729.007000", "104731.007000", "104733.508000", "104735.008000", "104737.008000", "104739.508000", "104741.008000", "104743.007000", "104745.008000", "104747.007000", "104749.508000", "104751.508000", "104753.508000", "104755.508000", "104757.009000", "104759.507000", "104801.007000", "104803.007000", "104805.508000", "104807.508000", "104809.008000", "104811.008000", "104813.508000", "104815.508000", "104817.008000", "104819.508000", "104821.508000", "104823.507000", "104825.507000", "104827.508000", "104829.009000", "104831.509000", "104833.008000", "104835.007000", "104837.008000", "104839.508000", "104841.508000", "104843.007000", "104845.009000", "104847.008000", "104849.008000", "104851.008000", "104853.507000", "104855.507000", "104857.007000", "104859.007000", "104901.008000", "104903.008000", "104905.008000", "104907.508000", "104909.508000", "104911.508000", "104913.508000", "104915.007000", "104917.007000", "104919.509000", "104921.008000", "104923.008000", "104925.008000", "104927.508000", "104929.507000", "104931.507000", "104933.007000", "104935.508000", "104937.509000", "104939.009000", "104941.508000", "104943.509000", "104945.008000", "104947.007000", "104949.507000", "104951.508000", "104953.508000", "104955.508000", "104956.978000"],
      "InstanceNumber": [1, 2, 3, 4, 5, 6, 7, 8, 9, 10, 11, 12, 13, 14, 15, 16, 17, 18, 19, 20, 21, 22, 23, 24, 25, 26, 27, 28, 29, 30, 31, 32, 33, 34, 35, 36, 37, 38, 39, 40, 41, 42, 43, 44, 45, 46, 47, 48, 49, 50, 51, 52, 53, 54, 55, 56, 57, 58, 59, 60, 61, 62, 63, 64, 65, 66, 67, 68, 69, 70, 71, 72, 73, 74, 75, 76, 77, 78, 79, 80, 81, 82, 83, 84, 85, 86, 87, 88, 89, 90, 91, 92, 93, 94, 95, 96, 97, 98, 99, 100, 101, 102, 103, 104, 105, 106, 107, 108, 109, 110, 111, 112, 113, 114, 115, 116, 117, 118, 119, 120, 121, 122, 123, 124, 125, 126, 127, 128, 129, 130, 131, 132, 133, 134, 135, 136, 137, 138, 139, 140, 141, 142, 143, 144, 145, 146, 147, 148, 149, 150, 151, 152, 153, 154, 155, 156, 157, 158, 159, 160, 161, 162, 163, 164, 165, 166, 167, 168, 169, 170, 171, 172, 173, 174, 175, 176, 177, 178, 179, 180, 181, 182, 183, 184, 185, 186, 187, 188, 189, 190, 191, 192, 193, 194, 195, 196, 197, 198, 199, 200, 201, 202, 203, 204, 205, 206, 207, 208, 209, 210, 211, 212, 213, 214, 215, 216, 217, 218, 219, 220, 221, 222, 223, 224, 225, 226, 227, 228, 229, 230, 231, 232],
      "LargestImagePixelValue": [3190, 3075, 3042, 3055, 3064, 3049, 3044, 3015, 3033, 3021, 3046, 3041, 3044, 3018, 3057, 3032, 3010, 3033, 3010, 3056, 3026, 3026, 3001, 3027, 3012, 3081, 3003, 2990, 2989, 2964, 2984, 3038, 3017, 3005, 2993, 2981, 3007, 2996, 3012, 2959, 2934, 3051, 3011, 3095, 3017, 2947, 2937, 3056, 2956, 2897, 2918, 2934, 2995, 2992, 2990, 2982, 2963, 2934, 2959, 2913, 2922, 2938, 2938, 2937, 2958, 2978, 2987, 2974, 2995, 2945, 2942, 2929, 2974, 2957, 2961, 2968, 2970, 3028, 3000, 3004, 3022, 3011, 2989, 2998, 3002, 2979, 2960, 2954, 2951, 2974, 2976, 2986, 2974, 2982, 2996, 2991, 2995, 2969, 2969, 2955, 2978, 2970, 2959, 2972, 2973, 2986, 2960, 3038, 3017, 2992, 3011, 3015, 3034, 2905, 2928, 2924, 2904, 2898, 2913, 2922, 2913, 2992, 3020, 2976, 2967, 2916, 3038, 3041, 2961, 2912, 2907, 2956, 2987, 2909, 2938, 2932, 2974, 2954, 2938, 2954, 2952, 3004, 2950, 2907, 3027, 2911, 2941, 2936, 2937, 2927, 2946, 2958, 2948, 2989, 2942, 2968, 2969, 2977, 2955, 2948, 2975, 2955, 2951, 2948, 2940, 2959, 2922, 2956, 2989, 2954, 2952, 2952, 2981, 2983, 2987, 2994, 3014, 2976, 3017, 3020, 3018, 3031, 3062, 3049, 3064, 3028, 2942, 2888, 2927, 2957, 2929, 2956, 2964, 3116, 2955, 2978, 2995, 2957, 2993, 3017, 3029, 2986, 2994, 2998, 2964, 2967, 2995, 2968, 2970, 2998, 2996, 2965, 2995, 2962, 3007, 2979, 2982, 2991, 2992, 2994, 3003, 3004, 3018, 3007, 2998, 2993, 2985, 2965, 2968, 2974, 2965, 2978],
      "WindowCenter": [768.0, 765.0, 765.0, 764.0, 764.0, 764.0, 764.0, 764.0, 765.0, 765.0, 765.0, 765.0, 765.0, 764.0, 764.0, 764.0, 764.0, 765.0, 764.0, 765.0, 764.0, 764.0, 764.0, 764.0, 765.0, 766.0, 766.0, 766.0, 766.0, 766.0, 765.0, 765.0, 765.0, 766.0, 766.0, 766.0, 765.0, 765.0, 765.0, 765.0, 764.0, 767.0, 766.0, 767.0, 766.0, 762.0, 764.0, 766.0, 762.0, 764.0, 764.0, 765.0, 765.0, 765.0, 765.0, 765.0, 765.0, 763.0, 764.0, 765.0, 764.0, 764.0, 763.0, 763.0, 763.0, 763.0, 762.0, 761.0, 762.0, 762.0, 762.0, 761.0, 761.0, 761.0, 762.0, 763.0, 763.0, 763.0, 763.0, 763.0, 763.0, 763.0, 763.0, 764.0, 765.0, 765.0, 763.0, 763.0, 762.0, 763.0, 763.0, 764.0, 764.0, 764.0, 764.0, 764.0, 764.0, 763.0, 764.0, 764.0, 764.0, 763.0, 763.0, 764.0, 764.0, 764.0, 762.0, 766.0, 764.0, 763.0, 764.0, 766.0, 766.0, 763.0, 764.0, 764.0, 764.0, 764.0, 764.0, 764.0, 763.0, 765.0, 765.0, 765.0, 763.0, 762.0, 765.0, 766.0, 764.0, 763.0, 764.0, 765.0, 766.0, 765.0, 766.0, 765.0, 764.0, 764.0, 764.0, 764.0, 764.0, 764.0, 763.0, 763.0, 764.0, 764.0, 764.0, 763.0, 763.0, 762.0, 762.0, 763.0, 762.0, 763.0, 763.0, 763.0, 763.0, 763.0, 763.0, 763.0, 764.0, 763.0, 765.0, 765.0, 765.0, 765.0, 763.0, 763.0, 764.0, 761.0, 764.0, 765.0, 764.0, 763.0, 763.0, 764.0, 764.0, 763.0, 763.0, 762.0, 761.0, 761.0, 762.0, 762.0, 762.0, 761.0, 762.0, 760.0, 760.0, 761.0, 762.0, 763.0, 757.0, 766.0, 762.0, 763.0, 763.0, 763.0, 762.0, 762.0, 760.0, 762.0, 763.0, 762.0, 761.0, 761.0, 762.0, 762.0, 762.0, 763.0, 762.0, 762.0, 761.0, 761.0, 761.0, 761.0, 761.0, 762.0, 762.0, 762.0, 762.0, 763.0, 763.0, 763.0, 763.0, 763.0, 764.0, 764.0, 764.0, 763.0, 764.0, 764.0],
      "WindowWidth": [1679.0, 1671.0, 1668.0, 1668.0, 1668.0, 1667.0, 1666.0, 1667.0, 1669.0, 1668.0, 1670.0, 1668.0, 1668.0, 1665.0, 1667.0, 1666.0, 1666.0, 1668.0, 1668.0, 1669.0, 1667.0, 1666.0, 1667.0, 1667.0, 1670.0, 1672.0, 1672.0, 1671.0, 1672.0, 1672.0, 1670.0, 1670.0, 1669.0, 1671.0, 1672.0, 1672.0, 1671.0, 1671.0, 1668.0, 1668.0, 1667.0, 1674.0, 1673.0, 1675.0, 1672.0, 1660.0, 1665.0, 1674.0, 1661.0, 1665.0, 1667.0, 1668.0, 1669.0, 1669.0, 1668.0, 1668.0, 1667.0, 1664.0, 1665.0, 1669.0, 1667.0, 1665.0, 1663.0, 1662.0, 1662.0, 1661.0, 1659.0, 1657.0, 1661.0, 1659.0, 1661.0, 1656.0, 1658.0, 1659.0, 1661.0, 1661.0, 1661.0, 1662.0, 1661.0, 1663.0, 1662.0, 1662.0, 1663.0, 1667.0, 1668.0, 1667.0, 1664.0, 1662.0, 1661.0, 1661.0, 1663.0, 1665.0, 1665.0, 1666.0, 1665.0, 1665.0, 1665.0, 1664.0, 1666.0, 1665.0, 1665.0, 1663.0, 1664.0, 1665.0, 1666.0, 1666.0, 1661.0, 1671.0, 1666.0, 1662.0, 1667.0, 1670.0, 1671.0, 1664.0, 1664.0, 1666.0, 1666.0, 1666.0, 1666.0, 1665.0, 1664.0, 1668.0, 1669.0, 1668.0, 1664.0, 1660.0, 1669.0, 1671.0, 1666.0, 1664.0, 1664.0, 1668.0, 1670.0, 1670.0, 1670.0, 1669.0, 1667.0, 1665.0, 1665.0, 1666.0, 1666.0, 1667.0, 1664.0, 1662.0, 1667.0, 1666.0, 1664.0, 1662.0, 1661.0, 1661.0, 1661.0, 1662.0, 1661.0, 1662.0, 1662.0, 1663.0, 1662.0, 1663.0, 1663.0, 1664.0, 1665.0, 1664.0, 1669.0, 1669.0, 1668.0, 1668.0, 1662.0, 1663.0, 1664.0, 1658.0, 1667.0, 1668.0, 1665.0, 1662.0, 1662.0, 1665.0, 1666.0, 1663.0, 1663.0, 1660.0, 1657.0, 1657.0, 1660.0, 1659.0, 1659.0, 1657.0, 1661.0, 1653.0, 1654.0, 1657.0, 1660.0, 1662.0, 1647.0, 1671.0, 1660.0, 1663.0, 1663.0, 1662.0, 1659.0, 1659.0, 1654.0, 1659.0, 1661.0, 1659.0, 1657.0, 1657.0, 1658.0, 1658.0, 1659.0, 1661.0, 1660.0, 1658.0, 1656.0, 1655.0, 1655.0, 1655.0, 1656.0, 1658.0, 1659.0, 1659.0, 1660.0, 1662.0, 1663.0, 1662.0, 1663.0, 1662.0, 1664.0, 1665.0, 1664.0, 1663.0, 1665.0, 1663.0]
    },
    "slices": {}
  }
}