{
  "AcquisitionMatrixPE": 100,
  "AcquisitionNumber": 1,
  "AcquisitionTime": "10:33:12.607500",
  "BandwidthPerPixelPhaseEncode": 18.519,
  "BaseResolution": 100,
  "BodyPartExamined": "BRAIN",
  "ConsistencyInfo": "N4_VE11C_LATEST_20160120",
  "ConversionSoftware": "dcm2niix",
  "ConversionSoftwareVersion": "v1.0.20180622 GCC4.9.2",
  "DerivedVendorReportedEchoSpacing": 0.000539986,
  "DeviceSerialNumber": "166078",
  "DwellTime": 2.1e-06,
  "EchoTime": 0.034,
  "EchoTrainLength": 100,
  "EffectiveEchoSpacing": 0.000539986,
  "FlipAngle": 90,
  "ImageOrientationPatientDICOM": [0.999815, 0.0192095, 0.000247927, -0.0191975, 0.998535, 0.0505874],
  "ImageType": [
    "ORIGINAL",
    "PRIMARY",
    "M",
    "ND",
    "MOSAIC"
],
  "InPlanePhaseEncodingDirectionDICOM": "COL",
  "InstitutionAddress": "Street_StreetNo_Bei_Jing_District_CN_ZIP",
  "InstitutionName": "BeiJing_Normal_University",
  "InstitutionalDepartmentName": "Department",
  "MRAcquisitionType": "2D",
  "MagneticFieldStrength": 3,
  "Manufacturer": "Siemens",
  "ManufacturersModelName": "Prisma",
  "Modality": "MR",
  "MultibandAccelerationFactor": 3,
  "PartialFourier": 1,
  "PatientPosition": "HFS",
  "PercentPhaseFOV": 100,
  "PhaseEncodingDirection": "j-",
  "PhaseEncodingSteps": 100,
  "PhaseResolution": 1,
  "PixelBandwidth": 2380,
  "ProcedureStepDescription": "BNU_P2018_64CH_Liu.Jia",
  "ProtocolName": "bold_100x100_s3_2x2x2_232",
  "PulseSequenceDetails": "%SiemensSeq%_ep2d_bold",
  "ReceiveCoilActiveElements": "HC1-7;NC1",
  "ReceiveCoilName": "HeadNeck_64",
  "ReconMatrixPE": 100,
  "RepetitionTime": 2,
  "SAR": 0.0766015,
  "ScanOptions": "FS",
  "ScanningSequence": "EP",
  "SequenceName": "_epfid2d1_100",
  "SequenceVariant": "SK",
  "SeriesDescription": "bold_100x100_s3_2x2x2_232",
  "SeriesNumber": 3,
  "ShimSetting": [-5468, -11514, -1290, 447, 1, -233, -134, 52],
  "SliceThickness": 2,
  "SliceTiming": [1.485, 0, 0.99, 0.0825, 1.0725, 0.165, 1.155, 0.2475, 1.2375, 0.33, 1.32, 0.4125, 1.4025, 0.5775, 1.5675, 0.66, 1.65, 0.7425, 1.7325, 0.825, 1.815, 0.9075, 1.8975, 0.495, 1.485, 0, 0.99, 0.0825, 1.0725, 0.165, 1.155, 0.2475, 1.2375, 0.33, 1.32, 0.4125, 1.4025, 0.5775, 1.5675, 0.66, 1.65, 0.7425, 1.7325, 0.825, 1.815, 0.9075, 1.8975, 0.495, 1.485, 0, 0.99, 0.0825, 1.0725, 0.165, 1.155, 0.2475, 1.2375, 0.33, 1.32, 0.4125, 1.4025, 0.5775, 1.5675, 0.66, 1.65, 0.7425, 1.7325, 0.825, 1.815, 0.9075, 1.8975, 0.495],
  "SoftwareVersions": "syngo_MR_E11",
  "SpacingBetweenSlices": 2,
  "StationName": "AWP166078",
  "TaskName": "motor",
  "TotalReadoutTime": 0.0534586,
  "TxRefAmp": 221.157,
  "dcmmeta_affine": [
    [-1.9996309280395508, -0.03839493915438652, -0.0014483924023807049, 103.22065734863281],
    [-0.038419049233198166, 1.9970701932907104, 0.10116565227508545, -91.37850189208984],
    [0.0004958538920618594, -0.10117480903863907, 1.9974392652511597, -70.91099548339844],
    [0.0, 0.0, 0.0, 1.0]
],
  "dcmmeta_reorient_transform": [
    [0.0, -1.0, 0.0, 99.0],
    [1.0, 0.0, 0.0, 0.0],
    [0.0, 0.0, 1.0, 0.0],
    [0.0, 0.0, 0.0, 1.0]
],
  "dcmmeta_shape": [100, 100, 72, 232],
  "dcmmeta_slice_dim": 2,
  "dcmmeta_version": 0.6,
  "global": {
    "const": {
      "AcquisitionMatrix": [100, 0, 0, 100],
      "AngioFlag": "N",
      "BitsAllocated": 16,
      "BitsStored": 12,
      "BodyPartExamined": "BRAIN",
      "Columns": 900,
      "EchoNumbers": 1,
      "EchoTime": 34.0,
      "EchoTrainLength": 100,
      "FlipAngle": 90.0,
      "HighBit": 11,
      "ImageOrientationPatient": [0.99981544933389, 0.0192095238227, 0.0002479269413, -0.0191974689253, 0.9985351129095, 0.05058740429867],
      "ImagePositionPatient": [-883.91394100894, -920.52715796041, -121.59556337476],
      "ImageType": [
        "ORIGINAL",
        "PRIMARY",
        "M",
        "ND",
        "MOSAIC"
],
      "ImagedNucleus": "1H",
      "ImagingFrequency": 123.257828,
      "InPlanePhaseEncodingDirection": "COL",
      "MRAcquisitionType": "2D",
      "MagneticFieldStrength": 3.0,
      "Manufacturer": "SIEMENS",
      "ManufacturerModelName": "Prisma",
      "Modality": "MR",
      "NumberOfAverages": 1.0,
      "NumberOfPhaseEncodingSteps": 100,
      "PercentPhaseFieldOfView": 100.0,
      "PercentSampling": 100.0,
      "PerformedProcedureStepStartTime": "103015.322000",
      "PhotometricInterpretation": "MONOCHROME2",
      "PixelBandwidth": 2380.0,
      "PixelRepresentation": 0,
      "PixelSpacing": [2.0, 2.0],
      "ProtocolName": "bold_100x100_s3_2x2x2_232",
      "RepetitionTime": 2000.0,
      "Rows": 900,
      "SAR": 0.07660147827824,
      "SamplesPerPixel": 1,
      "ScanOptions": "FS",
      "ScanningSequence": "EP",
      "SequenceName": "*epfid2d1_100",
      "SequenceVariant": "SK",
      "SeriesDescription": "bold_100x100_s3_2x2x2_232",
      "SeriesNumber": 3,
      "SeriesTime": "103315.810000",
      "SliceLocation": -75.517133519949,
      "SliceThickness": 2.0,
      "SmallestImagePixelValue": 0,
      "SoftwareVersions": "syngo MR E11",
      "SpacingBetweenSlices": 1.99999999593,
      "SpecificCharacterSet": "ISO_IR 100",
      "StudyID": "1",
      "StudyTime": "103015.223000",
      "TransmitCoilName": "Body",
      "VariableFlipAngleFlag": "N",
      "dBdt": 0.0},
    "slices": {}
  },
  "time": {
    "samples": {
      "AcquisitionNumber": [1, 2, 3, 4, 5, 6, 7, 8, 9, 10, 11, 12, 13, 14, 15, 16, 17, 18, 19, 20, 21, 22, 23, 24, 25, 26, 27, 28, 29, 30, 31, 32, 33, 34, 35, 36, 37, 38, 39, 40, 41, 42, 43, 44, 45, 46, 47, 48, 49, 50, 51, 52, 53, 54, 55, 56, 57, 58, 59, 60, 61, 62, 63, 64, 65, 66, 67, 68, 69, 70, 71, 72, 73, 74, 75, 76, 77, 78, 79, 80, 81, 82, 83, 84, 85, 86, 87, 88, 89, 90, 91, 92, 93, 94, 95, 96, 97, 98, 99, 100, 101, 102, 103, 104, 105, 106, 107, 108, 109, 110, 111, 112, 113, 114, 115, 116, 117, 118, 119, 120, 121, 122, 123, 124, 125, 126, 127, 128, 129, 130, 131, 132, 133, 134, 135, 136, 137, 138, 139, 140, 141, 142, 143, 144, 145, 146, 147, 148, 149, 150, 151, 152, 153, 154, 155, 156, 157, 158, 159, 160, 161, 162, 163, 164, 165, 166, 167, 168, 169, 170, 171, 172, 173, 174, 175, 176, 177, 178, 179, 180, 181, 182, 183, 184, 185, 186, 187, 188, 189, 190, 191, 192, 193, 194, 195, 196, 197, 198, 199, 200, 201, 202, 203, 204, 205, 206, 207, 208, 209, 210, 211, 212, 213, 214, 215, 216, 217, 218, 219, 220, 221, 222, 223, 224, 225, 226, 227, 228, 229, 230, 231, 232],
      "AcquisitionTime": ["103312.607500", "103314.607500", "103316.607500", "103318.607500", "103320.607500", "103322.607500", "103324.607500", "103326.607500", "103328.607500", "103330.607500", "103332.607500", "103334.607500", "103336.607500", "103338.607500", "103340.607500", "103342.607500", "103344.607500", "103346.607500", "103348.607500", "103350.607500", "103352.607500", "103354.607500", "103356.607500", "103358.607500", "103400.607500", "103402.607500", "103404.607500", "103406.607500", "103408.607500", "103410.607500", "103412.607500", "103414.607500", "103416.607500", "103418.607500", "103420.607500", "103422.607500", "103424.607500", "103426.607500", "103428.607500", "103430.607500", "103432.607500", "103434.607500", "103436.607500", "103438.607500", "103440.607500", "103442.607500", "103444.607500", "103446.607500", "103448.607500", "103450.607500", "103452.607500", "103454.607500", "103456.607500", "103458.607500", "103500.607500", "103502.607500", "103504.607500", "103506.607500", "103508.607500", "103510.607500", "103512.607500", "103514.607500", "103516.607500", "103518.607500", "103520.607500", "103522.607500", "103524.607500", "103526.607500", "103528.607500", "103530.607500", "103532.607500", "103534.607500", "103536.607500", "103538.607500", "103540.607500", "103542.607500", "103544.607500", "103546.607500", "103548.607500", "103550.607500", "103552.607500", "103554.607500", "103556.607500", "103558.607500", "103600.607500", "103602.607500", "103604.607500", "103606.607500", "103608.607500", "103610.607500", "103612.607500", "103614.607500", "103616.607500", "103618.607500", "103620.607500", "103622.607500", "103624.607500", "103626.607500", "103628.607500", "103630.607500", "103632.607500", "103634.607500", "103636.607500", "103638.607500", "103640.607500", "103642.607500", "103644.607500", "103646.607500", "103648.607500", "103650.607500", "103652.607500", "103654.607500", "103656.607500", "103658.607500", "103700.607500", "103702.607500", "103704.607500", "103706.607500", "103708.607500", "103710.607500", "103712.607500", "103714.607500", "103716.607500", "103718.607500", "103720.607500", "103722.607500", "103724.607500", "103726.607500", "103728.607500", "103730.607500", "103732.607500", "103734.607500", "103736.607500", "103738.607500", "103740.607500", "103742.607500", "103744.607500", "103746.607500", "103748.607500", "103750.607500", "103752.607500", "103754.607500", "103756.607500", "103758.607500", "103800.607500", "103802.607500", "103804.607500", "103806.607500", "103808.607500", "103810.607500", "103812.607500", "103814.607500", "103816.607500", "103818.607500", "103820.607500", "103822.607500", "103824.607500", "103826.607500", "103828.607500", "103830.607500", "103832.607500", "103834.607500", "103836.607500", "103838.607500", "103840.607500", "103842.607500", "103844.607500", "103846.607500", "103848.607500", "103850.607500", "103852.607500", "103854.607500", "103856.607500", "103858.607500", "103900.607500", "103902.607500", "103904.607500", "103906.607500", "103908.607500", "103910.607500", "103912.607500", "103914.607500", "103916.607500", "103918.607500", "103920.607500", "103922.607500", "103924.607500", "103926.607500", "103928.607500", "103930.607500", "103932.607500", "103934.607500", "103936.607500", "103938.607500", "103940.607500", "103942.607500", "103944.607500", "103946.607500", "103948.607500", "103950.607500", "103952.607500", "103954.607500", "103956.607500", "103958.607500", "104000.607500", "104002.607500", "104004.607500", "104006.607500", "104008.607500", "104010.607500", "104012.607500", "104014.607500", "104016.607500", "104018.607500", "104020.607500", "104022.607500", "104024.607500", "104026.607500", "104028.607500", "104030.607500", "104032.607500", "104034.607500", "104036.607500", "104038.607500", "104040.607500", "104042.607500", "104044.607500", "104046.607500", "104048.607500", "104050.607500", "104052.607500", "104054.607500"],
      "ContentTime": ["103315.813000", "103317.309000", "103319.310000", "103321.309000", "103323.308000", "103325.308000", "103327.308000", "103329.308000", "103331.309000", "103333.309000", "103335.309000", "103337.310000", "103339.308000", "103341.308000", "103343.309000", "103345.309000", "103347.309000", "103349.308000", "103351.309000", "103353.309000", "103355.310000", "103357.308000", "103359.309000", "103401.308000", "103403.309000", "103405.309000", "103407.309000", "103409.309000", "103411.309000", "103413.310000", "103415.308000", "103417.308000", "103419.309000", "103421.308000", "103423.308000", "103425.309000", "103427.309000", "103429.309000", "103431.309000", "103433.309000", "103435.309000", "103437.308000", "103439.309000", "103441.309000", "103443.308000", "103445.310000", "103447.309000", "103449.308000", "103451.308000", "103453.308000", "103455.309000", "103457.309000", "103459.308000", "103501.308000", "103503.309000", "103505.310000", "103507.309000", "103509.308000", "103511.308000", "103513.309000", "103515.308000", "103517.308000", "103519.309000", "103521.310000", "103523.309000", "103525.309000", "103527.309000", "103529.308000", "103531.309000", "103533.309000", "103535.308000", "103537.309000", "103539.310000", "103541.309000", "103543.308000", "103545.308000", "103547.309000", "103549.308000", "103551.309000", "103553.308000", "103555.329000", "103557.310000", "103559.308000", "103601.308000", "103603.309000", "103605.308000", "103607.309000", "103609.309000", "103611.309000", "103613.309000", "103615.309000", "103617.308000", "103619.308000", "103621.308000", "103623.308000", "103625.308000", "103627.309000", "103629.309000", "103631.309000", "103633.309000", "103635.308000", "103637.308000", "103639.309000", "103641.308000", "103643.308000", "103645.309000", "103647.309000", "103649.309000", "103651.308000", "103653.309000", "103655.308000", "103657.309000", "103659.308000", "103701.308000", "103703.309000", "103705.309000", "103707.309000", "103709.309000", "103711.309000", "103713.308000", "103715.309000", "103717.309000", "103719.309000", "103721.310000", "103723.309000", "103725.309000", "103727.308000", "103729.308000", "103731.309000", "103733.309000", "103735.309000", "103737.309000", "103739.310000", "103741.309000", "103743.309000", "103745.308000", "103747.309000", "103749.308000", "103751.308000", "103753.308000", "103755.308000", "103757.309000", "103759.309000", "103801.308000", "103803.309000", "103805.309000", "103807.309000", "103809.309000", "103811.309000", "103813.309000", "103815.310000", "103817.310000", "103819.309000", "103821.309000", "103823.308000", "103825.309000", "103827.309000", "103829.309000", "103831.310000", "103833.309000", "103835.309000", "103837.309000", "103839.309000", "103841.308000", "103843.308000", "103845.309000", "103847.308000", "103849.309000", "103851.309000", "103853.310000", "103855.309000", "103857.309000", "103859.309000", "103901.308000", "103903.308000", "103905.309000", "103907.310000", "103909.310000", "103911.308000", "103913.308000", "103915.309000", "103917.308000", "103919.308000", "103921.309000", "103923.309000", "103925.309000", "103927.310000", "103929.308000", "103931.309000", "103933.308000", "103935.308000", "103937.308000", "103939.309000", "103941.309000", "103943.309000", "103945.309000", "103947.308000", "103949.309000", "103951.323000", "103953.309000", "103955.309000", "103957.309000", "103959.310000", "104001.309000", "104003.309000", "104005.309000", "104007.308000", "104009.309000", "104011.308000", "104013.309000", "104015.309000", "104017.310000", "104019.310000", "104021.308000", "104023.308000", "104025.308000", "104027.308000", "104029.308000", "104031.309000", "104033.308000", "104035.309000", "104037.310000", "104039.309000", "104041.308000", "104043.308000", "104045.308000", "104047.308000", "104049.309000", "104051.311000", "104053.311000", "104055.310000", "104056.839000"],
      "InstanceCreationTime": ["103315.813000", "103317.309000", "103319.310000", "103321.309000", "103323.308000", "103325.308000", "103327.308000", "103329.308000", "103331.309000", "103333.309000", "103335.309000", "103337.310000", "103339.308000", "103341.308000", "103343.309000", "103345.309000", "103347.309000", "103349.308000", "103351.309000", "103353.309000", "103355.310000", "103357.308000", "103359.309000", "103401.308000", "103403.309000", "103405.309000", "103407.309000", "103409.309000", "103411.309000", "103413.310000", "103415.308000", "103417.308000", "103419.309000", "103421.308000", "103423.308000", "103425.309000", "103427.309000", "103429.309000", "103431.309000", "103433.309000", "103435.309000", "103437.308000", "103439.309000", "103441.309000", "103443.308000", "103445.310000", "103447.309000", "103449.308000", "103451.308000", "103453.308000", "103455.309000", "103457.309000", "103459.308000", "103501.308000", "103503.309000", "103505.310000", "103507.309000", "103509.308000", "103511.308000", "103513.309000", "103515.308000", "103517.308000", "103519.309000", "103521.310000", "103523.309000", "103525.309000", "103527.309000", "103529.308000", "103531.309000", "103533.309000", "103535.308000", "103537.309000", "103539.310000", "103541.309000", "103543.308000", "103545.308000", "103547.309000", "103549.308000", "103551.309000", "103553.308000", "103555.329000", "103557.310000", "103559.308000", "103601.308000", "103603.309000", "103605.308000", "103607.309000", "103609.309000", "103611.309000", "103613.309000", "103615.309000", "103617.308000", "103619.308000", "103621.308000", "103623.308000", "103625.308000", "103627.309000", "103629.309000", "103631.309000", "103633.309000", "103635.308000", "103637.308000", "103639.309000", "103641.308000", "103643.308000", "103645.309000", "103647.309000", "103649.309000", "103651.308000", "103653.309000", "103655.308000", "103657.309000", "103659.308000", "103701.308000", "103703.309000", "103705.309000", "103707.309000", "103709.309000", "103711.309000", "103713.308000", "103715.309000", "103717.309000", "103719.309000", "103721.310000", "103723.309000", "103725.309000", "103727.308000", "103729.308000", "103731.309000", "103733.309000", "103735.309000", "103737.309000", "103739.310000", "103741.309000", "103743.309000", "103745.308000", "103747.309000", "103749.308000", "103751.308000", "103753.308000", "103755.308000", "103757.309000", "103759.309000", "103801.308000", "103803.309000", "103805.309000", "103807.309000", "103809.309000", "103811.309000", "103813.309000", "103815.310000", "103817.310000", "103819.309000", "103821.309000", "103823.308000", "103825.309000", "103827.309000", "103829.309000", "103831.310000", "103833.309000", "103835.309000", "103837.309000", "103839.309000", "103841.308000", "103843.308000", "103845.309000", "103847.308000", "103849.309000", "103851.309000", "103853.310000", "103855.309000", "103857.309000", "103859.309000", "103901.308000", "103903.308000", "103905.309000", "103907.310000", "103909.310000", "103911.308000", "103913.308000", "103915.309000", "103917.308000", "103919.308000", "103921.309000", "103923.309000", "103925.309000", "103927.310000", "103929.308000", "103931.309000", "103933.308000", "103935.308000", "103937.308000", "103939.309000", "103941.309000", "103943.309000", "103945.309000", "103947.308000", "103949.309000", "103951.323000", "103953.309000", "103955.309000", "103957.309000", "103959.310000", "104001.309000", "104003.309000", "104005.309000", "104007.308000", "104009.309000", "104011.308000", "104013.309000", "104015.309000", "104017.310000", "104019.310000", "104021.308000", "104023.308000", "104025.308000", "104027.308000", "104029.308000", "104031.309000", "104033.308000", "104035.309000", "104037.310000", "104039.309000", "104041.308000", "104043.308000", "104045.308000", "104047.308000", "104049.309000", "104051.311000", "104053.311000", "104055.310000", "104056.839000"],
      "InstanceNumber": [1, 2, 3, 4, 5, 6, 7, 8, 9, 10, 11, 12, 13, 14, 15, 16, 17, 18, 19, 20, 21, 22, 23, 24, 25, 26, 27, 28, 29, 30, 31, 32, 33, 34, 35, 36, 37, 38, 39, 40, 41, 42, 43, 44, 45, 46, 47, 48, 49, 50, 51, 52, 53, 54, 55, 56, 57, 58, 59, 60, 61, 62, 63, 64, 65, 66, 67, 68, 69, 70, 71, 72, 73, 74, 75, 76, 77, 78, 79, 80, 81, 82, 83, 84, 85, 86, 87, 88, 89, 90, 91, 92, 93, 94, 95, 96, 97, 98, 99, 100, 101, 102, 103, 104, 105, 106, 107, 108, 109, 110, 111, 112, 113, 114, 115, 116, 117, 118, 119, 120, 121, 122, 123, 124, 125, 126, 127, 128, 129, 130, 131, 132, 133, 134, 135, 136, 137, 138, 139, 140, 141, 142, 143, 144, 145, 146, 147, 148, 149, 150, 151, 152, 153, 154, 155, 156, 157, 158, 159, 160, 161, 162, 163, 164, 165, 166, 167, 168, 169, 170, 171, 172, 173, 174, 175, 176, 177, 178, 179, 180, 181, 182, 183, 184, 185, 186, 187, 188, 189, 190, 191, 192, 193, 194, 195, 196, 197, 198, 199, 200, 201, 202, 203, 204, 205, 206, 207, 208, 209, 210, 211, 212, 213, 214, 215, 216, 217, 218, 219, 220, 221, 222, 223, 224, 225, 226, 227, 228, 229, 230, 231, 232],
      "LargestImagePixelValue": [3148, 3011, 3045, 3017, 3005, 3001, 3036, 3070, 3015, 3040, 3028, 3027, 2997, 3065, 3049, 3037, 3040, 3060, 3043, 3046, 3037, 3056, 3046, 3025, 3062, 3058, 3056, 3053, 3028, 3052, 3027, 3016, 3032, 3022, 3039, 3031, 3041, 3054, 3030, 3065, 3051, 3140, 3100, 3097, 3066, 3057, 3078, 3116, 3100, 3083, 3281, 3093, 3111, 3170, 3046, 3152, 3055, 3041, 3052, 3085, 3145, 3136, 3105, 3105, 3160, 3164, 3094, 3079, 3114, 3087, 3133, 3117, 3117, 3092, 3185, 3124, 3127, 3148, 3157, 3160, 3118, 3087, 3116, 3115, 3149, 3153, 3154, 3186, 3170, 3162, 3110, 3180, 3182, 3204, 3210, 3176, 3193, 3178, 3157, 3193, 3126, 3188, 3121, 3120, 3110, 3135, 3077, 3070, 3115, 3149, 3117, 3131, 3144, 3122, 3128, 3188, 3134, 3167, 3151, 3154, 3163, 3169, 3147, 3167, 3182, 3180, 3179, 3136, 3136, 3134, 3160, 3126, 3161, 3074, 3079, 3073, 3079, 3139, 3130, 3012, 3173, 3128, 2958, 3186, 3111, 3155, 3087, 3075, 3094, 3089, 3112, 3135, 3119, 3110, 3111, 3130, 3153, 3167, 3125, 3160, 3167, 3146, 3116, 3120, 3155, 3191, 3179, 3162, 3171, 3161, 3138, 3132, 3172, 3120, 3132, 3118, 3117, 3161, 3364, 3299, 3124, 3150, 3121, 3141, 3172, 3108, 3124, 3168, 3134, 3114, 3123, 3124, 3180, 3163, 3113, 3154, 3125, 3134, 3144, 3124, 3136, 3143, 3111, 3140, 3171, 3132, 3099, 3182, 3139, 3174, 3153, 3159, 3198, 3203, 3162, 3175, 3183, 3172, 3153, 3112, 3098, 3069, 3093, 3072, 3084, 3070, 3115, 3146, 3114, 3175, 3164, 3123],
      "WindowCenter": [768.0, 764.0, 764.0, 763.0, 763.0, 764.0, 764.0, 764.0, 764.0, 765.0, 767.0, 767.0, 766.0, 766.0, 766.0, 766.0, 766.0, 766.0, 767.0, 768.0, 767.0, 767.0, 767.0, 860.0, 860.0, 860.0, 860.0, 860.0, 860.0, 860.0, 860.0, 860.0, 860.0, 860.0, 860.0, 860.0, 860.0, 860.0, 860.0, 860.0, 860.0, 860.0, 860.0, 860.0, 860.0, 860.0, 860.0, 860.0, 860.0, 860.0, 860.0, 860.0, 860.0, 860.0, 860.0, 860.0, 860.0, 860.0, 860.0, 860.0, 769.0, 768.0, 767.0, 767.0, 768.0, 767.0, 767.0, 766.0, 766.0, 765.0, 767.0, 767.0, 766.0, 767.0, 769.0, 769.0, 769.0, 768.0, 768.0, 769.0, 768.0, 767.0, 769.0, 769.0, 770.0, 770.0, 771.0, 771.0, 770.0, 771.0, 770.0, 771.0, 769.0, 771.0, 770.0, 769.0, 769.0, 769.0, 771.0, 771.0, 769.0, 770.0, 768.0, 767.0, 767.0, 767.0, 767.0, 767.0, 767.0, 767.0, 767.0, 767.0, 766.0, 767.0, 768.0, 769.0, 769.0, 769.0, 769.0, 768.0, 768.0, 768.0, 769.0, 769.0, 768.0, 768.0, 768.0, 768.0, 768.0, 767.0, 766.0, 766.0, 766.0, 764.0, 764.0, 764.0, 764.0, 760.0, 767.0, 758.0, 764.0, 764.0, 760.0, 762.0, 766.0, 767.0, 767.0, 768.0, 767.0, 767.0, 767.0, 767.0, 767.0, 768.0, 770.0, 769.0, 769.0, 769.0, 769.0, 769.0, 768.0, 768.0, 767.0, 767.0, 768.0, 769.0, 769.0, 769.0, 769.0, 769.0, 769.0, 769.0, 768.0, 767.0, 767.0, 767.0, 767.0, 757.0, 767.0, 768.0, 765.0, 765.0, 764.0, 768.0, 764.0, 766.0, 767.0, 767.0, 767.0, 767.0, 766.0, 767.0, 767.0, 768.0, 768.0, 769.0, 768.0, 767.0, 766.0, 766.0, 767.0, 767.0, 767.0, 767.0, 767.0, 766.0, 766.0, 767.0, 766.0, 767.0, 767.0, 766.0, 767.0, 766.0, 765.0, 766.0, 766.0, 767.0, 767.0, 766.0, 767.0, 766.0, 765.0, 765.0, 765.0, 765.0, 766.0, 767.0, 767.0, 767.0, 768.0, 766.0],
      "WindowCenterWidthExplanation": [
        "Algo1",
        "Algo1",
        "Algo1",
        "Algo1",
        "Algo1",
        "Algo1",
        "Algo1",
        "Algo1",
        "Algo1",
        "Algo1",
        "Algo1",
        "Algo1",
        "Algo1",
        "Algo1",
        "Algo1",
        "Algo1",
        "Algo1",
        "Algo1",
        "Algo1",
        "Algo1",
        "Algo1",
        "Algo1",
        "Algo1",
        "WINDOW1",
        "WINDOW1",
        "WINDOW1",
        "WINDOW1",
        "WINDOW1",
        "WINDOW1",
        "WINDOW1",
        "WINDOW1",
        "WINDOW1",
        "WINDOW1",
        "WINDOW1",
        "WINDOW1",
        "WINDOW1",
        "WINDOW1",
        "WINDOW1",
        "WINDOW1",
        "WINDOW1",
        "WINDOW1",
        "WINDOW1",
        "WINDOW1",
        "WINDOW1",
        "WINDOW1",
        "WINDOW1",
        "WINDOW1",
        "WINDOW1",
        "WINDOW1",
        "WINDOW1",
        "WINDOW1",
        "WINDOW1",
        "WINDOW1",
        "WINDOW1",
        "WINDOW1",
        "WINDOW1",
        "WINDOW1",
        "WINDOW1",
        "WINDOW1",
        "WINDOW1",
        "Algo1",
        "Algo1",
        "Algo1",
        "Algo1",
        "Algo1",
        "Algo1",
        "Algo1",
        "Algo1",
        "Algo1",
        "Algo1",
        "Algo1",
        "Algo1",
        "Algo1",
        "Algo1",
        "Algo1",
        "Algo1",
        "Algo1",
        "Algo1",
        "Algo1",
        "Algo1",
        "Algo1",
        "Algo1",
        "Algo1",
        "Algo1",
        "Algo1",
        "Algo1",
        "Algo1",
        "Algo1",
        "Algo1",
        "Algo1",
        "Algo1",
        "Algo1",
        "Algo1",
        "Algo1",
        "Algo1",
        "Algo1",
        "Algo1",
        "Algo1",
        "Algo1",
        "Algo1",
        "Algo1",
        "Algo1",
        "Algo1",
        "Algo1",
        "Algo1",
        "Algo1",
        "Algo1",
        "Algo1",
        "Algo1",
        "Algo1",
        "Algo1",
        "Algo1",
        "Algo1",
        "Algo1",
        "Algo1",
        "Algo1",
        "Algo1",
        "Algo1",
        "Algo1",
        "Algo1",
        "Algo1",
        "Algo1",
        "Algo1",
        "Algo1",
        "Algo1",
        "Algo1",
        "Algo1",
        "Algo1",
        "Algo1",
        "Algo1",
        "Algo1",
        "Algo1",
        "Algo1",
        "Algo1",
        "Algo1",
        "Algo1",
        "Algo1",
        "Algo1",
        "Algo1",
        "Algo1",
        "Algo1",
        "Algo1",
        "Algo1",
        "Algo1",
        "Algo1",
        "Algo1",
        "Algo1",
        "Algo1",
        "Algo1",
        "Algo1",
        "Algo1",
        "Algo1",
        "Algo1",
        "Algo1",
        "Algo1",
        "Algo1",
        "Algo1",
        "Algo1",
        "Algo1",
        "Algo1",
        "Algo1",
        "Algo1",
        "Algo1",
        "Algo1",
        "Algo1",
        "Algo1",
        "Algo1",
        "Algo1",
        "Algo1",
        "Algo1",
        "Algo1",
        "Algo1",
        "Algo1",
        "Algo1",
        "Algo1",
        "Algo1",
        "Algo1",
        "Algo1",
        "Algo1",
        "Algo1",
        "Algo1",
        "Algo1",
        "Algo1",
        "Algo1",
        "Algo1",
        "Algo1",
        "Algo1",
        "Algo1",
        "Algo1",
        "Algo1",
        "Algo1",
        "Algo1",
        "Algo1",
        "Algo1",
        "Algo1",
        "Algo1",
        "Algo1",
        "Algo1",
        "Algo1",
        "Algo1",
        "Algo1",
        "Algo1",
        "Algo1",
        "Algo1",
        "Algo1",
        "Algo1",
        "Algo1",
        "Algo1",
        "Algo1",
        "Algo1",
        "Algo1",
        "Algo1",
        "Algo1",
        "Algo1",
        "Algo1",
        "Algo1",
        "Algo1",
        "Algo1",
        "Algo1",
        "Algo1",
        "Algo1",
        "Algo1",
        "Algo1",
        "Algo1",
        "Algo1",
        "Algo1",
        "Algo1",
        "Algo1",
        "Algo1",
        "Algo1",
        "Algo1",
        "Algo1"
],
      "WindowWidth": [1678.0, 1668.0, 1668.0, 1665.0, 1665.0, 1666.0, 1666.0, 1668.0, 1666.0, 1671.0, 1675.0, 1676.0, 1673.0, 1674.0, 1673.0, 1672.0, 1673.0, 1673.0, 1675.0, 1678.0, 1676.0, 1677.0, 1676.0, 1760.0, 1760.0, 1760.0, 1760.0, 1760.0, 1760.0, 1760.0, 1760.0, 1760.0, 1760.0, 1760.0, 1760.0, 1760.0, 1760.0, 1760.0, 1760.0, 1760.0, 1760.0, 1760.0, 1760.0, 1760.0, 1760.0, 1760.0, 1760.0, 1760.0, 1760.0, 1760.0, 1760.0, 1760.0, 1760.0, 1760.0, 1760.0, 1760.0, 1760.0, 1760.0, 1760.0, 1760.0, 1681.0, 1678.0, 1676.0, 1674.0, 1677.0, 1676.0, 1676.0, 1673.0, 1673.0, 1671.0, 1674.0, 1674.0, 1672.0, 1676.0, 1681.0, 1680.0, 1681.0, 1679.0, 1679.0, 1681.0, 1679.0, 1676.0, 1680.0, 1681.0, 1684.0, 1684.0, 1687.0, 1688.0, 1683.0, 1687.0, 1684.0, 1688.0, 1683.0, 1686.0, 1685.0, 1683.0, 1682.0, 1681.0, 1686.0, 1686.0, 1682.0, 1685.0, 1679.0, 1675.0, 1676.0, 1675.0, 1676.0, 1675.0, 1674.0, 1676.0, 1676.0, 1675.0, 1672.0, 1675.0, 1678.0, 1681.0, 1683.0, 1681.0, 1681.0, 1680.0, 1678.0, 1679.0, 1680.0, 1680.0, 1680.0, 1680.0, 1679.0, 1679.0, 1678.0, 1675.0, 1673.0, 1672.0, 1673.0, 1667.0, 1667.0, 1667.0, 1666.0, 1655.0, 1675.0, 1649.0, 1666.0, 1667.0, 1655.0, 1661.0, 1672.0, 1675.0, 1675.0, 1677.0, 1676.0, 1675.0, 1674.0, 1676.0, 1675.0, 1677.0, 1682.0, 1682.0, 1682.0, 1681.0, 1679.0, 1680.0, 1679.0, 1677.0, 1676.0, 1675.0, 1677.0, 1681.0, 1681.0, 1680.0, 1681.0, 1680.0, 1680.0, 1679.0, 1678.0, 1675.0, 1674.0, 1674.0, 1674.0, 1648.0, 1677.0, 1678.0, 1671.0, 1668.0, 1667.0, 1677.0, 1668.0, 1674.0, 1676.0, 1677.0, 1676.0, 1673.0, 1672.0, 1674.0, 1676.0, 1678.0, 1678.0, 1680.0, 1677.0, 1676.0, 1673.0, 1672.0, 1674.0, 1675.0, 1676.0, 1676.0, 1675.0, 1672.0, 1671.0, 1674.0, 1672.0, 1674.0, 1676.0, 1673.0, 1674.0, 1673.0, 1670.0, 1671.0, 1673.0, 1675.0, 1676.0, 1673.0, 1673.0, 1670.0, 1669.0, 1668.0, 1668.0, 1670.0, 1672.0, 1674.0, 1674.0, 1675.0, 1676.0, 1672.0]
    },
    "slices": {}
  }
}