{
  "AcquisitionMatrixPE": 100,
  "AcquisitionNumber": 1,
  "AcquisitionTime": "10:50:59.320000",
  "BandwidthPerPixelPhaseEncode": 18.519,
  "BaseResolution": 100,
  "BodyPartExamined": "BRAIN",
  "ConsistencyInfo": "N4_VE11C_LATEST_20160120",
  "ConversionSoftware": "dcm2niix",
  "ConversionSoftwareVersion": "v1.0.20180622 GCC4.9.2",
  "DerivedVendorReportedEchoSpacing": 0.000539986,
  "DeviceSerialNumber": "166078",
  "DwellTime": 2.1e-06,
  "EchoTime": 0.034,
  "EchoTrainLength": 100,
  "EffectiveEchoSpacing": 0.000539986,
  "FlipAngle": 90,
  "ImageOrientationPatientDICOM": [0.999815, 0.0192095, 0.000247927, -0.0191975, 0.998535, 0.0505874],
  "ImageType": [
    "ORIGINAL",
    "PRIMARY",
    "M",
    "ND",
    "MOSAIC"
],
  "InPlanePhaseEncodingDirectionDICOM": "COL",
  "InstitutionAddress": "Street_StreetNo_Bei_Jing_District_CN_ZIP",
  "InstitutionName": "BeiJing_Normal_University",
  "InstitutionalDepartmentName": "Department",
  "MRAcquisitionType": "2D",
  "MagneticFieldStrength": 3,
  "Manufacturer": "Siemens",
  "ManufacturersModelName": "Prisma",
  "Modality": "MR",
  "MultibandAccelerationFactor": 3,
  "PartialFourier": 1,
  "PatientPosition": "HFS",
  "PercentPhaseFOV": 100,
  "PhaseEncodingDirection": "j-",
  "PhaseEncodingSteps": 100,
  "PhaseResolution": 1,
  "PixelBandwidth": 2380,
  "ProcedureStepDescription": "BNU_P2018_64CH_Liu.Jia",
  "ProtocolName": "bold_100x100_s3_2x2x2_232",
  "PulseSequenceDetails": "%SiemensSeq%_ep2d_bold",
  "ReceiveCoilActiveElements": "HC1-7;NC1",
  "ReceiveCoilName": "HeadNeck_64",
  "ReconMatrixPE": 100,
  "RepetitionTime": 2,
  "SAR": 0.0766015,
  "ScanOptions": "FS",
  "ScanningSequence": "EP",
  "SequenceName": "_epfid2d1_100",
  "SequenceVariant": "SK",
  "SeriesDescription": "bold_100x100_s3_2x2x2_232",
  "SeriesNumber": 5,
  "ShimSetting": [-5468, -11514, -1290, 447, 1, -233, -134, 52],
  "SliceThickness": 2,
  "SliceTiming": [1.485, 0, 0.99, 0.0825, 1.0725, 0.165, 1.155, 0.2475, 1.2375, 0.33, 1.32, 0.4125, 1.4025, 0.5775, 1.5675, 0.66, 1.65, 0.7425, 1.7325, 0.825, 1.815, 0.9075, 1.8975, 0.495, 1.485, 0, 0.99, 0.0825, 1.0725, 0.165, 1.155, 0.2475, 1.2375, 0.33, 1.32, 0.4125, 1.4025, 0.5775, 1.5675, 0.66, 1.65, 0.7425, 1.7325, 0.825, 1.815, 0.9075, 1.8975, 0.495, 1.485, 0, 0.99, 0.0825, 1.0725, 0.165, 1.155, 0.2475, 1.2375, 0.33, 1.32, 0.4125, 1.4025, 0.5775, 1.5675, 0.66, 1.65, 0.7425, 1.7325, 0.825, 1.815, 0.9075, 1.8975, 0.495],
  "SoftwareVersions": "syngo_MR_E11",
  "SpacingBetweenSlices": 2,
  "StationName": "AWP166078",
  "TaskName": "motor",
  "TotalReadoutTime": 0.0534586,
  "TxRefAmp": 221.157,
  "dcmmeta_affine": [
    [-1.9996309280395508, -0.03839493915438652, -0.0014483924023807049, 103.22065734863281],
    [-0.038419049233198166, 1.9970701932907104, 0.10116565227508545, -91.37850189208984],
    [0.0004958538920618594, -0.10117480903863907, 1.9974392652511597, -70.91099548339844],
    [0.0, 0.0, 0.0, 1.0]
],
  "dcmmeta_reorient_transform": [
    [0.0, -1.0, 0.0, 99.0],
    [1.0, 0.0, 0.0, 0.0],
    [0.0, 0.0, 1.0, 0.0],
    [0.0, 0.0, 0.0, 1.0]
],
  "dcmmeta_shape": [100, 100, 72, 232],
  "dcmmeta_slice_dim": 2,
  "dcmmeta_version": 0.6,
  "global": {
    "const": {
      "AcquisitionMatrix": [100, 0, 0, 100],
      "AngioFlag": "N",
      "BitsAllocated": 16,
      "BitsStored": 12,
      "BodyPartExamined": "BRAIN",
      "Columns": 900,
      "EchoNumbers": 1,
      "EchoTime": 34.0,
      "EchoTrainLength": 100,
      "FlipAngle": 90.0,
      "HighBit": 11,
      "ImageOrientationPatient": [0.99981544933389, 0.0192095238227, 0.0002479269413, -0.0191974689253, 0.9985351129095, 0.05058740429867],
      "ImagePositionPatient": [-883.91394100894, -920.52715796041, -121.59556337476],
      "ImageType": [
        "ORIGINAL",
        "PRIMARY",
        "M",
        "ND",
        "MOSAIC"
],
      "ImagedNucleus": "1H",
      "ImagingFrequency": 123.257843,
      "InPlanePhaseEncodingDirection": "COL",
      "MRAcquisitionType": "2D",
      "MagneticFieldStrength": 3.0,
      "Manufacturer": "SIEMENS",
      "ManufacturerModelName": "Prisma",
      "Modality": "MR",
      "NumberOfAverages": 1.0,
      "NumberOfPhaseEncodingSteps": 100,
      "PercentPhaseFieldOfView": 100.0,
      "PercentSampling": 100.0,
      "PerformedProcedureStepStartTime": "103015.322000",
      "PhotometricInterpretation": "MONOCHROME2",
      "PixelBandwidth": 2380.0,
      "PixelRepresentation": 0,
      "PixelSpacing": [2.0, 2.0],
      "ProtocolName": "bold_100x100_s3_2x2x2_232",
      "RepetitionTime": 2000.0,
      "Rows": 900,
      "SAR": 0.07660147827824,
      "SamplesPerPixel": 1,
      "ScanOptions": "FS",
      "ScanningSequence": "EP",
      "SequenceName": "*epfid2d1_100",
      "SequenceVariant": "SK",
      "SeriesDescription": "bold_100x100_s3_2x2x2_232",
      "SeriesNumber": 5,
      "SeriesTime": "105102.137000",
      "SliceLocation": -75.517133519949,
      "SliceThickness": 2.0,
      "SmallestImagePixelValue": 0,
      "SoftwareVersions": "syngo MR E11",
      "SpacingBetweenSlices": 1.99999999593,
      "SpecificCharacterSet": "ISO_IR 100",
      "StudyID": "1",
      "StudyTime": "103015.223000",
      "TransmitCoilName": "Body",
      "VariableFlipAngleFlag": "N",
      "WindowCenterWidthExplanation": "Algo1",
      "dBdt": 0.0},
    "slices": {}
  },
  "time": {
    "samples": {
      "AcquisitionNumber": [1, 2, 3, 4, 5, 6, 7, 8, 9, 10, 11, 12, 13, 14, 15, 16, 17, 18, 19, 20, 21, 22, 23, 24, 25, 26, 27, 28, 29, 30, 31, 32, 33, 34, 35, 36, 37, 38, 39, 40, 41, 42, 43, 44, 45, 46, 47, 48, 49, 50, 51, 52, 53, 54, 55, 56, 57, 58, 59, 60, 61, 62, 63, 64, 65, 66, 67, 68, 69, 70, 71, 72, 73, 74, 75, 76, 77, 78, 79, 80, 81, 82, 83, 84, 85, 86, 87, 88, 89, 90, 91, 92, 93, 94, 95, 96, 97, 98, 99, 100, 101, 102, 103, 104, 105, 106, 107, 108, 109, 110, 111, 112, 113, 114, 115, 116, 117, 118, 119, 120, 121, 122, 123, 124, 125, 126, 127, 128, 129, 130, 131, 132, 133, 134, 135, 136, 137, 138, 139, 140, 141, 142, 143, 144, 145, 146, 147, 148, 149, 150, 151, 152, 153, 154, 155, 156, 157, 158, 159, 160, 161, 162, 163, 164, 165, 166, 167, 168, 169, 170, 171, 172, 173, 174, 175, 176, 177, 178, 179, 180, 181, 182, 183, 184, 185, 186, 187, 188, 189, 190, 191, 192, 193, 194, 195, 196, 197, 198, 199, 200, 201, 202, 203, 204, 205, 206, 207, 208, 209, 210, 211, 212, 213, 214, 215, 216, 217, 218, 219, 220, 221, 222, 223, 224, 225, 226, 227, 228, 229, 230, 231, 232],
      "AcquisitionTime": ["105059.320000", "105101.320000", "105103.320000", "105105.320000", "105107.320000", "105109.320000", "105111.320000", "105113.320000", "105115.320000", "105117.320000", "105119.320000", "105121.320000", "105123.320000", "105125.320000", "105127.320000", "105129.320000", "105131.320000", "105133.320000", "105135.320000", "105137.320000", "105139.320000", "105141.320000", "105143.320000", "105145.320000", "105147.320000", "105149.320000", "105151.320000", "105153.320000", "105155.320000", "105157.320000", "105159.320000", "105201.320000", "105203.320000", "105205.320000", "105207.320000", "105209.320000", "105211.320000", "105213.320000", "105215.320000", "105217.320000", "105219.320000", "105221.320000", "105223.320000", "105225.320000", "105227.320000", "105229.320000", "105231.320000", "105233.320000", "105235.320000", "105237.320000", "105239.320000", "105241.320000", "105243.320000", "105245.320000", "105247.320000", "105249.320000", "105251.320000", "105253.320000", "105255.320000", "105257.320000", "105259.320000", "105301.320000", "105303.320000", "105305.320000", "105307.320000", "105309.320000", "105311.320000", "105313.320000", "105315.320000", "105317.320000", "105319.320000", "105321.320000", "105323.320000", "105325.320000", "105327.320000", "105329.320000", "105331.320000", "105333.320000", "105335.320000", "105337.320000", "105339.320000", "105341.320000", "105343.320000", "105345.320000", "105347.320000", "105349.320000", "105351.320000", "105353.320000", "105355.320000", "105357.320000", "105359.320000", "105401.320000", "105403.320000", "105405.320000", "105407.320000", "105409.320000", "105411.320000", "105413.320000", "105415.320000", "105417.320000", "105419.320000", "105421.320000", "105423.320000", "105425.320000", "105427.320000", "105429.320000", "105431.320000", "105433.320000", "105435.320000", "105437.320000", "105439.320000", "105441.320000", "105443.320000", "105445.320000", "105447.320000", "105449.320000", "105451.320000", "105453.320000", "105455.320000", "105457.320000", "105459.320000", "105501.320000", "105503.320000", "105505.320000", "105507.320000", "105509.320000", "105511.320000", "105513.320000", "105515.320000", "105517.320000", "105519.320000", "105521.320000", "105523.320000", "105525.320000", "105527.320000", "105529.320000", "105531.320000", "105533.320000", "105535.320000", "105537.320000", "105539.320000", "105541.320000", "105543.320000", "105545.320000", "105547.320000", "105549.320000", "105551.320000", "105553.320000", "105555.320000", "105557.320000", "105559.320000", "105601.320000", "105603.320000", "105605.320000", "105607.320000", "105609.320000", "105611.320000", "105613.320000", "105615.320000", "105617.320000", "105619.320000", "105621.320000", "105623.320000", "105625.320000", "105627.320000", "105629.320000", "105631.320000", "105633.320000", "105635.320000", "105637.320000", "105639.320000", "105641.320000", "105643.320000", "105645.320000", "105647.320000", "105649.320000", "105651.320000", "105653.320000", "105655.320000", "105657.320000", "105659.320000", "105701.320000", "105703.320000", "105705.320000", "105707.320000", "105709.320000", "105711.320000", "105713.320000", "105715.320000", "105717.320000", "105719.320000", "105721.320000", "105723.320000", "105725.320000", "105727.320000", "105729.320000", "105731.320000", "105733.320000", "105735.320000", "105737.320000", "105739.320000", "105741.320000", "105743.320000", "105745.320000", "105747.320000", "105749.320000", "105751.320000", "105753.320000", "105755.320000", "105757.320000", "105759.320000", "105801.320000", "105803.320000", "105805.320000", "105807.320000", "105809.320000", "105811.320000", "105813.320000", "105815.320000", "105817.320000", "105819.320000", "105821.320000", "105823.320000", "105825.320000", "105827.320000", "105829.320000", "105831.320000", "105833.320000", "105835.320000", "105837.320000", "105839.320000", "105841.320000"],
      "ContentTime": ["105102.141000", "105103.637000", "105105.637000", "105107.638000", "105109.636000", "105111.636000", "105113.636000", "105115.636000", "105117.636000", "105119.637000", "105121.637000", "105123.637000", "105125.637000", "105127.636000", "105129.636000", "105131.637000", "105133.636000", "105135.637000", "105137.636000", "105139.637000", "105141.638000", "105143.637000", "105145.636000", "105147.636000", "105149.636000", "105151.636000", "105153.636000", "105155.638000", "105157.637000", "105159.638000", "105201.637000", "105203.636000", "105205.636000", "105207.636000", "105209.636000", "105211.637000", "105213.637000", "105215.637000", "105217.637000", "105219.636000", "105221.637000", "105223.637000", "105225.637000", "105227.636000", "105229.636000", "105231.638000", "105233.637000", "105235.637000", "105237.636000", "105239.636000", "105241.636000", "105243.636000", "105245.636000", "105247.636000", "105249.638000", "105251.637000", "105253.637000", "105255.637000", "105257.636000", "105259.636000", "105301.636000", "105303.636000", "105305.638000", "105307.637000", "105309.638000", "105311.636000", "105313.636000", "105315.636000", "105317.636000", "105319.636000", "105321.636000", "105323.637000", "105325.638000", "105327.637000", "105329.637000", "105331.637000", "105333.636000", "105335.637000", "105337.636000", "105339.636000", "105341.638000", "105343.637000", "105345.637000", "105347.637000", "105349.636000", "105351.636000", "105353.636000", "105355.636000", "105357.636000", "105359.637000", "105401.638000", "105403.637000", "105405.636000", "105407.637000", "105409.636000", "105411.636000", "105413.637000", "105415.637000", "105417.637000", "105419.638000", "105421.636000", "105423.636000", "105425.637000", "105427.636000", "105429.636000", "105431.637000", "105433.638000", "105435.637000", "105437.638000", "105439.636000", "105441.636000", "105443.636000", "105445.637000", "105447.636000", "105449.637000", "105451.638000", "105453.637000", "105455.638000", "105457.636000", "105459.636000", "105501.636000", "105503.637000", "105505.636000", "105507.636000", "105509.637000", "105511.637000", "105513.637000", "105515.636000", "105517.636000", "105519.636000", "105521.636000", "105523.636000", "105525.637000", "105527.637000", "105529.637000", "105531.637000", "105533.636000", "105535.636000", "105537.636000", "105539.637000", "105541.636000", "105543.637000", "105545.638000", "105547.637000", "105549.636000", "105551.637000", "105553.637000", "105555.636000", "105557.636000", "105559.636000", "105601.638000", "105603.638000", "105605.638000", "105607.637000", "105609.636000", "105611.637000", "105613.637000", "105615.636000", "105617.636000", "105619.637000", "105621.637000", "105623.637000", "105625.637000", "105627.636000", "105629.637000", "105631.637000", "105633.636000", "105635.637000", "105637.637000", "105639.637000", "105641.636000", "105643.637000", "105645.637000", "105647.636000", "105649.637000", "105651.637000", "105653.637000", "105655.638000", "105657.637000", "105659.637000", "105701.636000", "105703.637000", "105705.637000", "105707.636000", "105709.637000", "105711.637000", "105713.638000", "105715.638000", "105717.637000", "105719.637000", "105721.637000", "105723.636000", "105725.637000", "105727.636000", "105729.637000", "105731.638000", "105733.638000", "105735.636000", "105737.636000", "105739.636000", "105741.636000", "105743.637000", "105745.637000", "105747.638000", "105749.637000", "105751.637000", "105753.636000", "105755.637000", "105757.636000", "105759.636000", "105801.636000", "105803.638000", "105805.638000", "105807.638000", "105809.636000", "105811.636000", "105813.636000", "105815.636000", "105817.636000", "105819.637000", "105821.638000", "105823.637000", "105825.638000", "105827.636000", "105829.637000", "105831.636000", "105833.637000", "105835.636000", "105837.637000", "105839.637000", "105841.637000", "105843.378000"],
      "InstanceCreationTime": ["105102.141000", "105103.637000", "105105.637000", "105107.638000", "105109.636000", "105111.636000", "105113.636000", "105115.636000", "105117.636000", "105119.637000", "105121.637000", "105123.637000", "105125.637000", "105127.636000", "105129.636000", "105131.637000", "105133.636000", "105135.637000", "105137.636000", "105139.637000", "105141.638000", "105143.637000", "105145.636000", "105147.636000", "105149.636000", "105151.636000", "105153.636000", "105155.638000", "105157.637000", "105159.638000", "105201.637000", "105203.636000", "105205.636000", "105207.636000", "105209.636000", "105211.637000", "105213.637000", "105215.637000", "105217.637000", "105219.636000", "105221.637000", "105223.637000", "105225.637000", "105227.636000", "105229.636000", "105231.638000", "105233.637000", "105235.637000", "105237.636000", "105239.636000", "105241.636000", "105243.636000", "105245.636000", "105247.636000", "105249.638000", "105251.637000", "105253.637000", "105255.637000", "105257.636000", "105259.636000", "105301.636000", "105303.636000", "105305.638000", "105307.637000", "105309.638000", "105311.636000", "105313.636000", "105315.636000", "105317.636000", "105319.636000", "105321.636000", "105323.637000", "105325.638000", "105327.637000", "105329.637000", "105331.637000", "105333.636000", "105335.637000", "105337.636000", "105339.636000", "105341.638000", "105343.637000", "105345.637000", "105347.637000", "105349.636000", "105351.636000", "105353.636000", "105355.636000", "105357.636000", "105359.637000", "105401.638000", "105403.637000", "105405.636000", "105407.637000", "105409.636000", "105411.636000", "105413.637000", "105415.637000", "105417.637000", "105419.638000", "105421.636000", "105423.636000", "105425.637000", "105427.636000", "105429.636000", "105431.637000", "105433.638000", "105435.637000", "105437.638000", "105439.636000", "105441.636000", "105443.636000", "105445.637000", "105447.636000", "105449.637000", "105451.638000", "105453.637000", "105455.638000", "105457.636000", "105459.636000", "105501.636000", "105503.637000", "105505.636000", "105507.636000", "105509.637000", "105511.637000", "105513.637000", "105515.636000", "105517.636000", "105519.636000", "105521.636000", "105523.636000", "105525.637000", "105527.637000", "105529.637000", "105531.637000", "105533.636000", "105535.636000", "105537.636000", "105539.637000", "105541.636000", "105543.637000", "105545.638000", "105547.637000", "105549.636000", "105551.637000", "105553.637000", "105555.636000", "105557.636000", "105559.636000", "105601.638000", "105603.638000", "105605.638000", "105607.637000", "105609.636000", "105611.637000", "105613.637000", "105615.636000", "105617.636000", "105619.637000", "105621.637000", "105623.637000", "105625.637000", "105627.636000", "105629.637000", "105631.637000", "105633.636000", "105635.637000", "105637.637000", "105639.637000", "105641.636000", "105643.637000", "105645.637000", "105647.636000", "105649.637000", "105651.637000", "105653.637000", "105655.638000", "105657.637000", "105659.637000", "105701.636000", "105703.637000", "105705.637000", "105707.636000", "105709.637000", "105711.637000", "105713.638000", "105715.638000", "105717.637000", "105719.637000", "105721.637000", "105723.636000", "105725.637000", "105727.636000", "105729.637000", "105731.638000", "105733.638000", "105735.636000", "105737.636000", "105739.636000", "105741.636000", "105743.637000", "105745.637000", "105747.638000", "105749.637000", "105751.637000", "105753.636000", "105755.637000", "105757.636000", "105759.636000", "105801.636000", "105803.638000", "105805.638000", "105807.638000", "105809.636000", "105811.636000", "105813.636000", "105815.636000", "105817.636000", "105819.637000", "105821.638000", "105823.637000", "105825.638000", "105827.636000", "105829.637000", "105831.636000", "105833.637000", "105835.636000", "105837.637000", "105839.637000", "105841.637000", "105843.378000"],
      "InstanceNumber": [1, 2, 3, 4, 5, 6, 7, 8, 9, 10, 11, 12, 13, 14, 15, 16, 17, 18, 19, 20, 21, 22, 23, 24, 25, 26, 27, 28, 29, 30, 31, 32, 33, 34, 35, 36, 37, 38, 39, 40, 41, 42, 43, 44, 45, 46, 47, 48, 49, 50, 51, 52, 53, 54, 55, 56, 57, 58, 59, 60, 61, 62, 63, 64, 65, 66, 67, 68, 69, 70, 71, 72, 73, 74, 75, 76, 77, 78, 79, 80, 81, 82, 83, 84, 85, 86, 87, 88, 89, 90, 91, 92, 93, 94, 95, 96, 97, 98, 99, 100, 101, 102, 103, 104, 105, 106, 107, 108, 109, 110, 111, 112, 113, 114, 115, 116, 117, 118, 119, 120, 121, 122, 123, 124, 125, 126, 127, 128, 129, 130, 131, 132, 133, 134, 135, 136, 137, 138, 139, 140, 141, 142, 143, 144, 145, 146, 147, 148, 149, 150, 151, 152, 153, 154, 155, 156, 157, 158, 159, 160, 161, 162, 163, 164, 165, 166, 167, 168, 169, 170, 171, 172, 173, 174, 175, 176, 177, 178, 179, 180, 181, 182, 183, 184, 185, 186, 187, 188, 189, 190, 191, 192, 193, 194, 195, 196, 197, 198, 199, 200, 201, 202, 203, 204, 205, 206, 207, 208, 209, 210, 211, 212, 213, 214, 215, 216, 217, 218, 219, 220, 221, 222, 223, 224, 225, 226, 227, 228, 229, 230, 231, 232],
      "LargestImagePixelValue": [2996, 2979, 2989, 2960, 2973, 2987, 2964, 2983, 2972, 2982, 2986, 2987, 2973, 2956, 2981, 2938, 2949, 2945, 2964, 2937, 2943, 2931, 2950, 2936, 2956, 2932, 2941, 2908, 2899, 2924, 2987, 2940, 2910, 2923, 2945, 2932, 2936, 2933, 2972, 2919, 2915, 2954, 2909, 2901, 2940, 2923, 2923, 2967, 3000, 2978, 2896, 2907, 2936, 2937, 2952, 2939, 2936, 2936, 2941, 2945, 2911, 2914, 2910, 2914, 2913, 2884, 2929, 2916, 2881, 2955, 2980, 2893, 2896, 2919, 2927, 2929, 2940, 2929, 2935, 2930, 2893, 2944, 2885, 2870, 2906, 2892, 2929, 2944, 2979, 2968, 2956, 2950, 2971, 2956, 2939, 2929, 2905, 2923, 2942, 2941, 2945, 2966, 2983, 2940, 2961, 2965, 3001, 2903, 2875, 2896, 2940, 2919, 2951, 2918, 2943, 2929, 2955, 2952, 2951, 2970, 2999, 3005, 3016, 2938, 2975, 3003, 2983, 2982, 2952, 2953, 2982, 2972, 2992, 2985, 2978, 2979, 2975, 2982, 2986, 2988, 2981, 2970, 3010, 2978, 3000, 3003, 3000, 3006, 3015, 3003, 3013, 3008, 3005, 2989, 2994, 3003, 2993, 3025, 3016, 2989, 2972, 2994, 2966, 2983, 3045, 3019, 3012, 2996, 3002, 2925, 2936, 2957, 2973, 2967, 2962, 2958, 2947, 2965, 2971, 2991, 3028, 3008, 3004, 3007, 3016, 3017, 2991, 2939, 3008, 2974, 3002, 2995, 2972, 2941, 2965, 2970, 2974, 3014, 3048, 3032, 3029, 3026, 2935, 2936, 2936, 2954, 3011, 2987, 2997, 3027, 3018, 3009, 2989, 3018, 2991, 3009, 3016, 3019, 3020, 3021, 3007, 3006, 3008, 3040, 3073, 3034, 3044, 3031, 2974, 3010, 3003, 2984],
      "WindowCenter": [763.0, 762.0, 762.0, 762.0, 762.0, 762.0, 761.0, 761.0, 762.0, 761.0, 762.0, 762.0, 762.0, 762.0, 762.0, 762.0, 762.0, 762.0, 763.0, 763.0, 763.0, 763.0, 763.0, 762.0, 762.0, 763.0, 763.0, 763.0, 763.0, 763.0, 763.0, 763.0, 763.0, 763.0, 763.0, 762.0, 762.0, 762.0, 762.0, 762.0, 762.0, 762.0, 761.0, 761.0, 762.0, 760.0, 761.0, 764.0, 758.0, 764.0, 764.0, 764.0, 764.0, 764.0, 764.0, 763.0, 762.0, 762.0, 763.0, 763.0, 763.0, 763.0, 763.0, 762.0, 761.0, 760.0, 761.0, 760.0, 761.0, 761.0, 762.0, 762.0, 762.0, 763.0, 763.0, 763.0, 764.0, 764.0, 764.0, 764.0, 764.0, 763.0, 763.0, 762.0, 762.0, 762.0, 762.0, 763.0, 763.0, 763.0, 762.0, 763.0, 764.0, 764.0, 763.0, 763.0, 763.0, 763.0, 763.0, 763.0, 763.0, 762.0, 762.0, 761.0, 762.0, 762.0, 764.0, 761.0, 760.0, 760.0, 761.0, 761.0, 762.0, 762.0, 763.0, 762.0, 762.0, 762.0, 763.0, 763.0, 762.0, 762.0, 762.0, 761.0, 761.0, 762.0, 761.0, 761.0, 760.0, 761.0, 762.0, 762.0, 762.0, 763.0, 763.0, 762.0, 761.0, 762.0, 762.0, 762.0, 763.0, 763.0, 763.0, 763.0, 763.0, 763.0, 762.0, 763.0, 763.0, 762.0, 762.0, 762.0, 762.0, 762.0, 762.0, 764.0, 764.0, 764.0, 762.0, 762.0, 762.0, 763.0, 763.0, 763.0, 763.0, 762.0, 762.0, 763.0, 762.0, 762.0, 764.0, 765.0, 764.0, 763.0, 763.0, 764.0, 764.0, 764.0, 763.0, 763.0, 763.0, 763.0, 763.0, 763.0, 763.0, 763.0, 764.0, 763.0, 763.0, 761.0, 762.0, 763.0, 763.0, 763.0, 764.0, 764.0, 764.0, 764.0, 764.0, 764.0, 763.0, 765.0, 765.0, 765.0, 764.0, 763.0, 764.0, 764.0, 763.0, 763.0, 762.0, 762.0, 761.0, 762.0, 762.0, 762.0, 762.0, 762.0, 763.0, 764.0, 764.0, 764.0, 764.0, 764.0, 764.0, 763.0, 763.0, 763.0, 762.0, 762.0, 762.0, 762.0],
      "WindowWidth": [1664.0, 1658.0, 1659.0, 1658.0, 1659.0, 1659.0, 1657.0, 1658.0, 1658.0, 1658.0, 1659.0, 1659.0, 1659.0, 1659.0, 1659.0, 1659.0, 1659.0, 1660.0, 1663.0, 1662.0, 1662.0, 1662.0, 1662.0, 1660.0, 1661.0, 1662.0, 1663.0, 1663.0, 1663.0, 1663.0, 1664.0, 1663.0, 1661.0, 1662.0, 1662.0, 1660.0, 1658.0, 1659.0, 1660.0, 1660.0, 1660.0, 1658.0, 1656.0, 1656.0, 1658.0, 1655.0, 1656.0, 1665.0, 1650.0, 1666.0, 1665.0, 1664.0, 1664.0, 1665.0, 1664.0, 1661.0, 1660.0, 1659.0, 1661.0, 1663.0, 1663.0, 1663.0, 1661.0, 1659.0, 1658.0, 1654.0, 1656.0, 1653.0, 1655.0, 1656.0, 1660.0, 1658.0, 1659.0, 1661.0, 1662.0, 1664.0, 1665.0, 1665.0, 1665.0, 1665.0, 1665.0, 1663.0, 1663.0, 1660.0, 1659.0, 1659.0, 1660.0, 1661.0, 1662.0, 1661.0, 1661.0, 1663.0, 1664.0, 1664.0, 1663.0, 1662.0, 1662.0, 1662.0, 1661.0, 1662.0, 1663.0, 1660.0, 1660.0, 1657.0, 1659.0, 1658.0, 1666.0, 1656.0, 1652.0, 1654.0, 1657.0, 1655.0, 1660.0, 1659.0, 1661.0, 1659.0, 1659.0, 1660.0, 1661.0, 1663.0, 1661.0, 1661.0, 1660.0, 1656.0, 1658.0, 1658.0, 1656.0, 1658.0, 1654.0, 1657.0, 1658.0, 1658.0, 1660.0, 1661.0, 1663.0, 1658.0, 1657.0, 1658.0, 1659.0, 1659.0, 1661.0, 1662.0, 1663.0, 1663.0, 1662.0, 1661.0, 1660.0, 1661.0, 1661.0, 1659.0, 1659.0, 1660.0, 1659.0, 1659.0, 1660.0, 1665.0, 1666.0, 1664.0, 1660.0, 1660.0, 1660.0, 1663.0, 1663.0, 1662.0, 1662.0, 1658.0, 1659.0, 1663.0, 1659.0, 1660.0, 1663.0, 1666.0, 1665.0, 1663.0, 1663.0, 1665.0, 1665.0, 1664.0, 1662.0, 1663.0, 1663.0, 1662.0, 1662.0, 1662.0, 1663.0, 1663.0, 1665.0, 1662.0, 1661.0, 1656.0, 1658.0, 1661.0, 1661.0, 1663.0, 1666.0, 1666.0, 1665.0, 1664.0, 1664.0, 1664.0, 1662.0, 1667.0, 1669.0, 1667.0, 1665.0, 1663.0, 1666.0, 1664.0, 1662.0, 1662.0, 1659.0, 1658.0, 1655.0, 1658.0, 1657.0, 1660.0, 1659.0, 1660.0, 1661.0, 1664.0, 1665.0, 1665.0, 1665.0, 1665.0, 1663.0, 1662.0, 1662.0, 1661.0, 1659.0, 1660.0, 1659.0, 1659.0]
    },
    "slices": {}
  }
}