{
  "AcquisitionMatrixPE": 100,
  "AcquisitionNumber": 1,
  "AcquisitionTime": "11:02:34.407500",
  "BandwidthPerPixelPhaseEncode": 18.519,
  "BaseResolution": 100,
  "BodyPartExamined": "BRAIN",
  "ConsistencyInfo": "N4_VE11C_LATEST_20160120",
  "ConversionSoftware": "dcm2niix",
  "ConversionSoftwareVersion": "v1.0.20180622 GCC4.9.2",
  "DerivedVendorReportedEchoSpacing": 0.000539986,
  "DeviceSerialNumber": "166078",
  "DwellTime": 2.1e-06,
  "EchoTime": 0.034,
  "EchoTrainLength": 100,
  "EffectiveEchoSpacing": 0.000539986,
  "FlipAngle": 90,
  "ImageOrientationPatientDICOM": [0.999815, 0.0192095, 0.000247927, -0.0191975, 0.998535, 0.0505874],
  "ImageType": [
    "ORIGINAL",
    "PRIMARY",
    "M",
    "ND",
    "MOSAIC"
],
  "InPlanePhaseEncodingDirectionDICOM": "COL",
  "InstitutionAddress": "Street_StreetNo_Bei_Jing_District_CN_ZIP",
  "InstitutionName": "BeiJing_Normal_University",
  "InstitutionalDepartmentName": "Department",
  "MRAcquisitionType": "2D",
  "MagneticFieldStrength": 3,
  "Manufacturer": "Siemens",
  "ManufacturersModelName": "Prisma",
  "Modality": "MR",
  "MultibandAccelerationFactor": 3,
  "PartialFourier": 1,
  "PatientPosition": "HFS",
  "PercentPhaseFOV": 100,
  "PhaseEncodingDirection": "j-",
  "PhaseEncodingSteps": 100,
  "PhaseResolution": 1,
  "PixelBandwidth": 2380,
  "ProcedureStepDescription": "BNU_P2018_64CH_Liu.Jia",
  "ProtocolName": "bold_100x100_s3_2x2x2_232",
  "PulseSequenceDetails": "%SiemensSeq%_ep2d_bold",
  "ReceiveCoilActiveElements": "HC1-7;NC1",
  "ReceiveCoilName": "HeadNeck_64",
  "ReconMatrixPE": 100,
  "RepetitionTime": 2,
  "SAR": 0.0766015,
  "ScanOptions": "FS",
  "ScanningSequence": "EP",
  "SequenceName": "_epfid2d1_100",
  "SequenceVariant": "SK",
  "SeriesDescription": "bold_100x100_s3_2x2x2_232",
  "SeriesNumber": 8,
  "ShimSetting": [-5468, -11514, -1290, 447, 1, -233, -134, 52],
  "SliceThickness": 2,
  "SliceTiming": [1.485, 0, 0.99, 0.0825, 1.0725, 0.165, 1.155, 0.2475, 1.2375, 0.33, 1.32, 0.4125, 1.4025, 0.5775, 1.5675, 0.66, 1.6475, 0.7425, 1.73, 0.825, 1.8125, 0.9075, 1.895, 0.495, 1.485, 0, 0.99, 0.0825, 1.0725, 0.165, 1.155, 0.2475, 1.2375, 0.33, 1.32, 0.4125, 1.4025, 0.5775, 1.5675, 0.66, 1.6475, 0.7425, 1.73, 0.825, 1.8125, 0.9075, 1.895, 0.495, 1.485, 0, 0.99, 0.0825, 1.0725, 0.165, 1.155, 0.2475, 1.2375, 0.33, 1.32, 0.4125, 1.4025, 0.5775, 1.5675, 0.66, 1.6475, 0.7425, 1.73, 0.825, 1.8125, 0.9075, 1.895, 0.495],
  "SoftwareVersions": "syngo_MR_E11",
  "SpacingBetweenSlices": 2,
  "StationName": "AWP166078",
  "TaskName": "motor",
  "TotalReadoutTime": 0.0534586,
  "TxRefAmp": 221.157,
  "dcmmeta_affine": [
    [-1.9996309280395508, -0.03839493915438652, -0.0014483924023807049, 103.22065734863281],
    [-0.038419049233198166, 1.9970701932907104, 0.10116565227508545, -91.37850189208984],
    [0.0004958538920618594, -0.10117480903863907, 1.9974392652511597, -70.91099548339844],
    [0.0, 0.0, 0.0, 1.0]
],
  "dcmmeta_reorient_transform": [
    [0.0, -1.0, 0.0, 99.0],
    [1.0, 0.0, 0.0, 0.0],
    [0.0, 0.0, 1.0, 0.0],
    [0.0, 0.0, 0.0, 1.0]
],
  "dcmmeta_shape": [100, 100, 72, 232],
  "dcmmeta_slice_dim": 2,
  "dcmmeta_version": 0.6,
  "global": {
    "const": {
      "AcquisitionMatrix": [100, 0, 0, 100],
      "AngioFlag": "N",
      "BitsAllocated": 16,
      "BitsStored": 12,
      "BodyPartExamined": "BRAIN",
      "Columns": 900,
      "EchoNumbers": 1,
      "EchoTime": 34.0,
      "EchoTrainLength": 100,
      "FlipAngle": 90.0,
      "HighBit": 11,
      "ImageOrientationPatient": [0.99981544933389, 0.0192095238227, 0.0002479269413, -0.0191974689253, 0.9985351129095, 0.05058740429867],
      "ImagePositionPatient": [-883.91394100894, -920.52715796041, -121.59556337476],
      "ImageType": [
        "ORIGINAL",
        "PRIMARY",
        "M",
        "ND",
        "MOSAIC"
],
      "ImagedNucleus": "1H",
      "ImagingFrequency": 123.257842,
      "InPlanePhaseEncodingDirection": "COL",
      "MRAcquisitionType": "2D",
      "MagneticFieldStrength": 3.0,
      "Manufacturer": "SIEMENS",
      "ManufacturerModelName": "Prisma",
      "Modality": "MR",
      "NumberOfAverages": 1.0,
      "NumberOfPhaseEncodingSteps": 100,
      "PercentPhaseFieldOfView": 100.0,
      "PercentSampling": 100.0,
      "PerformedProcedureStepStartTime": "103015.322000",
      "PhotometricInterpretation": "MONOCHROME2",
      "PixelBandwidth": 2380.0,
      "PixelRepresentation": 0,
      "PixelSpacing": [2.0, 2.0],
      "ProtocolName": "bold_100x100_s3_2x2x2_232",
      "RepetitionTime": 2000.0,
      "Rows": 900,
      "SAR": 0.07660147827824,
      "SamplesPerPixel": 1,
      "ScanOptions": "FS",
      "ScanningSequence": "EP",
      "SequenceName": "*epfid2d1_100",
      "SequenceVariant": "SK",
      "SeriesDescription": "bold_100x100_s3_2x2x2_232",
      "SeriesNumber": 8,
      "SeriesTime": "110236.516000",
      "SliceLocation": -75.517133519949,
      "SliceThickness": 2.0,
      "SmallestImagePixelValue": 0,
      "SoftwareVersions": "syngo MR E11",
      "SpacingBetweenSlices": 1.99999999593,
      "SpecificCharacterSet": "ISO_IR 100",
      "StudyID": "1",
      "StudyTime": "103015.223000",
      "TransmitCoilName": "Body",
      "VariableFlipAngleFlag": "N",
      "WindowCenter": 763.0,
      "WindowWidth": 1664.0,
      "dBdt": 0.0},
    "slices": {}
  },
  "time": {
    "samples": {
      "AcquisitionNumber": [1, 2, 3, 4, 5, 6, 7, 8, 9, 10, 11, 12, 13, 14, 15, 16, 17, 18, 19, 20, 21, 22, 23, 24, 25, 26, 27, 28, 29, 30, 31, 32, 33, 34, 35, 36, 37, 38, 39, 40, 41, 42, 43, 44, 45, 46, 47, 48, 49, 50, 51, 52, 53, 54, 55, 56, 57, 58, 59, 60, 61, 62, 63, 64, 65, 66, 67, 68, 69, 70, 71, 72, 73, 74, 75, 76, 77, 78, 79, 80, 81, 82, 83, 84, 85, 86, 87, 88, 89, 90, 91, 92, 93, 94, 95, 96, 97, 98, 99, 100, 101, 102, 103, 104, 105, 106, 107, 108, 109, 110, 111, 112, 113, 114, 115, 116, 117, 118, 119, 120, 121, 122, 123, 124, 125, 126, 127, 128, 129, 130, 131, 132, 133, 134, 135, 136, 137, 138, 139, 140, 141, 142, 143, 144, 145, 146, 147, 148, 149, 150, 151, 152, 153, 154, 155, 156, 157, 158, 159, 160, 161, 162, 163, 164, 165, 166, 167, 168, 169, 170, 171, 172, 173, 174, 175, 176, 177, 178, 179, 180, 181, 182, 183, 184, 185, 186, 187, 188, 189, 190, 191, 192, 193, 194, 195, 196, 197, 198, 199, 200, 201, 202, 203, 204, 205, 206, 207, 208, 209, 210, 211, 212, 213, 214, 215, 216, 217, 218, 219, 220, 221, 222, 223, 224, 225, 226, 227, 228, 229, 230, 231, 232],
      "AcquisitionTime": ["110234.407500", "110236.407500", "110238.407500", "110240.407500", "110242.407500", "110244.407500", "110246.407500", "110248.407500", "110250.407500", "110252.407500", "110254.407500", "110256.407500", "110258.407500", "110300.407500", "110302.407500", "110304.407500", "110306.407500", "110308.407500", "110310.407500", "110312.407500", "110314.407500", "110316.407500", "110318.407500", "110320.407500", "110322.407500", "110324.407500", "110326.407500", "110328.407500", "110330.407500", "110332.407500", "110334.407500", "110336.407500", "110338.407500", "110340.407500", "110342.407500", "110344.407500", "110346.407500", "110348.407500", "110350.407500", "110352.407500", "110354.407500", "110356.407500", "110358.407500", "110400.407500", "110402.407500", "110404.407500", "110406.407500", "110408.407500", "110410.407500", "110412.407500", "110414.407500", "110416.407500", "110418.407500", "110420.407500", "110422.407500", "110424.407500", "110426.407500", "110428.407500", "110430.407500", "110432.407500", "110434.407500", "110436.407500", "110438.407500", "110440.407500", "110442.407500", "110444.407500", "110446.407500", "110448.407500", "110450.407500", "110452.407500", "110454.407500", "110456.407500", "110458.407500", "110500.407500", "110502.407500", "110504.407500", "110506.407500", "110508.407500", "110510.407500", "110512.407500", "110514.407500", "110516.407500", "110518.407500", "110520.407500", "110522.407500", "110524.407500", "110526.407500", "110528.407500", "110530.407500", "110532.407500", "110534.407500", "110536.407500", "110538.407500", "110540.407500", "110542.407500", "110544.407500", "110546.407500", "110548.407500", "110550.407500", "110552.407500", "110554.407500", "110556.407500", "110558.407500", "110600.407500", "110602.407500", "110604.407500", "110606.407500", "110608.407500", "110610.407500", "110612.407500", "110614.407500", "110616.407500", "110618.407500", "110620.407500", "110622.407500", "110624.407500", "110626.407500", "110628.407500", "110630.407500", "110632.407500", "110634.407500", "110636.407500", "110638.407500", "110640.407500", "110642.407500", "110644.407500", "110646.407500", "110648.407500", "110650.407500", "110652.407500", "110654.407500", "110656.407500", "110658.407500", "110700.407500", "110702.407500", "110704.407500", "110706.407500", "110708.407500", "110710.407500", "110712.407500", "110714.407500", "110716.407500", "110718.407500", "110720.407500", "110722.407500", "110724.407500", "110726.407500", "110728.407500", "110730.407500", "110732.407500", "110734.407500", "110736.407500", "110738.407500", "110740.407500", "110742.407500", "110744.407500", "110746.407500", "110748.407500", "110750.407500", "110752.407500", "110754.407500", "110756.407500", "110758.407500", "110800.407500", "110802.407500", "110804.407500", "110806.407500", "110808.407500", "110810.407500", "110812.407500", "110814.407500", "110816.407500", "110818.407500", "110820.407500", "110822.407500", "110824.407500", "110826.407500", "110828.407500", "110830.407500", "110832.407500", "110834.407500", "110836.407500", "110838.407500", "110840.407500", "110842.407500", "110844.407500", "110846.407500", "110848.407500", "110850.407500", "110852.407500", "110854.407500", "110856.407500", "110858.407500", "110900.407500", "110902.407500", "110904.407500", "110906.407500", "110908.407500", "110910.407500", "110912.407500", "110914.407500", "110916.407500", "110918.407500", "110920.407500", "110922.407500", "110924.407500", "110926.407500", "110928.407500", "110930.407500", "110932.407500", "110934.407500", "110936.407500", "110938.407500", "110940.407500", "110942.407500", "110944.407500", "110946.407500", "110948.407500", "110950.407500", "110952.407500", "110954.407500", "110956.407500", "110958.407500", "111000.407500", "111002.407500", "111004.407500", "111006.407500", "111008.407500", "111010.407500", "111012.407500", "111014.407500", "111016.407500"],
      "ContentTime": ["110236.519000", "110238.015000", "110240.015000", "110242.015000", "110244.016000", "110246.016000", "110248.016000", "110250.016000", "110252.016000", "110254.015000", "110256.015000", "110258.015000", "110300.016000", "110302.016000", "110304.016000", "110306.016000", "110308.016000", "110310.016000", "110312.015000", "110314.016000", "110316.015000", "110318.016000", "110320.016000", "110322.016000", "110324.016000", "110326.017000", "110328.016000", "110330.016000", "110332.015000", "110334.015000", "110336.017000", "110338.016000", "110340.016000", "110342.016000", "110344.017000", "110346.015000", "110348.015000", "110350.015000", "110352.015000", "110354.016000", "110356.016000", "110358.016000", "110400.016000", "110402.016000", "110404.015000", "110406.015000", "110408.015000", "110410.017000", "110412.017000", "110414.016000", "110416.016000", "110418.016000", "110420.016000", "110422.015000", "110424.015000", "110426.015000", "110428.017000", "110430.016000", "110432.016000", "110434.016000", "110436.016000", "110438.016000", "110440.015000", "110442.016000", "110444.016000", "110446.016000", "110448.016000", "110450.017000", "110452.016000", "110454.016000", "110456.015000", "110458.016000", "110500.015000", "110502.016000", "110504.017000", "110506.016000", "110508.016000", "110510.017000", "110512.016000", "110514.016000", "110516.016000", "110518.015000", "110520.016000", "110522.016000", "110524.016000", "110526.016000", "110528.017000", "110530.017000", "110532.016000", "110534.015000", "110536.015000", "110538.016000", "110540.016000", "110542.017000", "110544.016000", "110546.016000", "110548.016000", "110550.015000", "110552.015000", "110554.016000", "110556.016000", "110558.016000", "110600.017000", "110602.017000", "110604.016000", "110606.015000", "110608.015000", "110610.015000", "110612.015000", "110614.016000", "110616.016000", "110618.016000", "110620.016000", "110622.016000", "110624.015000", "110626.015000", "110628.016000", "110630.016000", "110632.017000", "110634.017000", "110636.016000", "110638.016000", "110640.016000", "110642.015000", "110644.015000", "110646.015000", "110648.016000", "110650.016000", "110652.016000", "110654.017000", "110656.016000", "110658.016000", "110700.015000", "110702.015000", "110704.015000", "110706.017000", "110708.016000", "110710.016000", "110712.016000", "110714.016000", "110716.015000", "110718.015000", "110720.015000", "110722.015000", "110724.017000", "110726.016000", "110728.017000", "110730.016000", "110732.016000", "110734.015000", "110736.015000", "110738.015000", "110740.016000", "110742.016000", "110744.017000", "110746.016000", "110748.016000", "110750.017000", "110752.016000", "110754.015000", "110756.016000", "110758.017000", "110800.017000", "110802.016000", "110804.017000", "110806.017000", "110808.016000", "110810.015000", "110812.016000", "110814.016000", "110816.016000", "110818.016000", "110820.017000", "110822.016000", "110824.016000", "110826.016000", "110828.016000", "110830.016000", "110832.016000", "110834.016000", "110836.017000", "110838.016000", "110840.016000", "110842.017000", "110844.015000", "110846.015000", "110848.016000", "110850.017000", "110852.016000", "110854.016000", "110856.016000", "110858.017000", "110900.017000", "110902.015000", "110904.015000", "110906.015000", "110908.017000", "110910.016000", "110912.017000", "110914.016000", "110916.517000", "110918.016000", "110920.015000", "110922.015000", "110924.015000", "110926.017000", "110928.017000", "110930.017000", "110932.017000", "110934.030000", "110936.016000", "110938.015000", "110940.015000", "110942.017000", "110944.516000", "110946.016000", "110948.017000", "110950.017000", "110952.017000", "110954.015000", "110956.015000", "110958.015000", "111000.016000", "111002.016000", "111004.017000", "111006.017000", "111008.016000", "111010.017000", "111012.016000", "111014.015000", "111016.015000", "111017.873000"],
      "InstanceCreationTime": ["110236.519000", "110238.015000", "110240.015000", "110242.015000", "110244.016000", "110246.016000", "110248.016000", "110250.016000", "110252.016000", "110254.015000", "110256.015000", "110258.015000", "110300.016000", "110302.016000", "110304.016000", "110306.016000", "110308.016000", "110310.016000", "110312.015000", "110314.016000", "110316.015000", "110318.016000", "110320.016000", "110322.016000", "110324.016000", "110326.017000", "110328.016000", "110330.016000", "110332.015000", "110334.015000", "110336.017000", "110338.016000", "110340.016000", "110342.016000", "110344.017000", "110346.015000", "110348.015000", "110350.015000", "110352.015000", "110354.016000", "110356.016000", "110358.016000", "110400.016000", "110402.016000", "110404.015000", "110406.015000", "110408.015000", "110410.017000", "110412.017000", "110414.016000", "110416.016000", "110418.016000", "110420.016000", "110422.015000", "110424.015000", "110426.015000", "110428.017000", "110430.016000", "110432.016000", "110434.016000", "110436.016000", "110438.016000", "110440.015000", "110442.016000", "110444.016000", "110446.016000", "110448.016000", "110450.017000", "110452.016000", "110454.016000", "110456.015000", "110458.016000", "110500.015000", "110502.016000", "110504.017000", "110506.016000", "110508.016000", "110510.017000", "110512.016000", "110514.016000", "110516.016000", "110518.015000", "110520.016000", "110522.016000", "110524.016000", "110526.016000", "110528.017000", "110530.017000", "110532.016000", "110534.015000", "110536.015000", "110538.016000", "110540.016000", "110542.017000", "110544.016000", "110546.016000", "110548.016000", "110550.015000", "110552.015000", "110554.016000", "110556.016000", "110558.016000", "110600.017000", "110602.017000", "110604.016000", "110606.015000", "110608.015000", "110610.015000", "110612.015000", "110614.016000", "110616.016000", "110618.016000", "110620.016000", "110622.016000", "110624.015000", "110626.015000", "110628.016000", "110630.016000", "110632.017000", "110634.017000", "110636.016000", "110638.016000", "110640.016000", "110642.015000", "110644.015000", "110646.015000", "110648.016000", "110650.016000", "110652.016000", "110654.017000", "110656.016000", "110658.016000", "110700.015000", "110702.015000", "110704.015000", "110706.017000", "110708.016000", "110710.016000", "110712.016000", "110714.016000", "110716.015000", "110718.015000", "110720.015000", "110722.015000", "110724.017000", "110726.016000", "110728.017000", "110730.016000", "110732.016000", "110734.015000", "110736.015000", "110738.015000", "110740.016000", "110742.016000", "110744.017000", "110746.016000", "110748.016000", "110750.017000", "110752.016000", "110754.015000", "110756.016000", "110758.017000", "110800.017000", "110802.016000", "110804.017000", "110806.017000", "110808.016000", "110810.015000", "110812.016000", "110814.016000", "110816.016000", "110818.016000", "110820.017000", "110822.016000", "110824.016000", "110826.016000", "110828.016000", "110830.016000", "110832.016000", "110834.016000", "110836.017000", "110838.016000", "110840.016000", "110842.017000", "110844.015000", "110846.015000", "110848.016000", "110850.017000", "110852.016000", "110854.016000", "110856.016000", "110858.017000", "110900.017000", "110902.015000", "110904.015000", "110906.015000", "110908.017000", "110910.016000", "110912.017000", "110914.016000", "110916.517000", "110918.016000", "110920.015000", "110922.015000", "110924.015000", "110926.017000", "110928.017000", "110930.017000", "110932.017000", "110934.030000", "110936.016000", "110938.015000", "110940.015000", "110942.017000", "110944.516000", "110946.016000", "110948.017000", "110950.017000", "110952.017000", "110954.015000", "110956.015000", "110958.015000", "111000.016000", "111002.016000", "111004.017000", "111006.017000", "111008.016000", "111010.017000", "111012.016000", "111014.015000", "111016.015000", "111017.873000"],
      "InstanceNumber": [1, 2, 3, 4, 5, 6, 7, 8, 9, 10, 11, 12, 13, 14, 15, 16, 17, 18, 19, 20, 21, 22, 23, 24, 25, 26, 27, 28, 29, 30, 31, 32, 33, 34, 35, 36, 37, 38, 39, 40, 41, 42, 43, 44, 45, 46, 47, 48, 49, 50, 51, 52, 53, 54, 55, 56, 57, 58, 59, 60, 61, 62, 63, 64, 65, 66, 67, 68, 69, 70, 71, 72, 73, 74, 75, 76, 77, 78, 79, 80, 81, 82, 83, 84, 85, 86, 87, 88, 89, 90, 91, 92, 93, 94, 95, 96, 97, 98, 99, 100, 101, 102, 103, 104, 105, 106, 107, 108, 109, 110, 111, 112, 113, 114, 115, 116, 117, 118, 119, 120, 121, 122, 123, 124, 125, 126, 127, 128, 129, 130, 131, 132, 133, 134, 135, 136, 137, 138, 139, 140, 141, 142, 143, 144, 145, 146, 147, 148, 149, 150, 151, 152, 153, 154, 155, 156, 157, 158, 159, 160, 161, 162, 163, 164, 165, 166, 167, 168, 169, 170, 171, 172, 173, 174, 175, 176, 177, 178, 179, 180, 181, 182, 183, 184, 185, 186, 187, 188, 189, 190, 191, 192, 193, 194, 195, 196, 197, 198, 199, 200, 201, 202, 203, 204, 205, 206, 207, 208, 209, 210, 211, 212, 213, 214, 215, 216, 217, 218, 219, 220, 221, 222, 223, 224, 225, 226, 227, 228, 229, 230, 231, 232],
      "LargestImagePixelValue": [2971, 2915, 2910, 2907, 2887, 2901, 2913, 2883, 2900, 2913, 2913, 2929, 2887, 2918, 2925, 2895, 2916, 2919, 2891, 2913, 2898, 2911, 2923, 2941, 2937, 2919, 2929, 2927, 2926, 2913, 2919, 2946, 2903, 2907, 2930, 2905, 2924, 2911, 2904, 2912, 2908, 2903, 2950, 2983, 2949, 2985, 2949, 2964, 2926, 2975, 2926, 2950, 2944, 2956, 2953, 2942, 2934, 2970, 2963, 2921, 2881, 2914, 2870, 2887, 2891, 2875, 2905, 2891, 2909, 2907, 2907, 2925, 2921, 2950, 2919, 2944, 2945, 2938, 2941, 2919, 2941, 2961, 2969, 2959, 2921, 2948, 2987, 2939, 2902, 2998, 2942, 2919, 2932, 2921, 2931, 2942, 2944, 2927, 2949, 2939, 2941, 2920, 2919, 2920, 2933, 2932, 2923, 2893, 2923, 2921, 2920, 2931, 2912, 2894, 2832, 2878, 2878, 2889, 2896, 2893, 2900, 2884, 2895, 2886, 2861, 2882, 2869, 2869, 2869, 2848, 2889, 2869, 2845, 2859, 2856, 2856, 2860, 2849, 2873, 2888, 2883, 2885, 2885, 2882, 2884, 2906, 2902, 2919, 2998, 2993, 2906, 2846, 2955, 2917, 2923, 2936, 2940, 2953, 2937, 2951, 2960, 2989, 2959, 2943, 2945, 2937, 2968, 2971, 2977, 2987, 2988, 2989, 2958, 2972, 2963, 2972, 2970, 3000, 2932, 2976, 2974, 2968, 2980, 2946, 2981, 2892, 2892, 2885, 2907, 2926, 2933, 2929, 2965, 2896, 2951, 2957, 2961, 2938, 2947, 2972, 2955, 2945, 2937, 2935, 2924, 2888, 2873, 2844, 2842, 2854, 2836, 2852, 2854, 2848, 2882, 2878, 2921, 2904, 2877, 2900, 2914, 2877, 2894, 2889, 2909, 2874, 2877, 2881, 2891, 2920, 2911, 2914],
      "WindowCenterWidthExplanation": [
        "Algo1",
        "WINDOW1",
        "WINDOW1",
        "WINDOW1",
        "WINDOW1",
        "WINDOW1",
        "WINDOW1",
        "WINDOW1",
        "WINDOW1",
        "WINDOW1",
        "WINDOW1",
        "WINDOW1",
        "WINDOW1",
        "WINDOW1",
        "WINDOW1",
        "WINDOW1",
        "WINDOW1",
        "WINDOW1",
        "WINDOW1",
        "WINDOW1",
        "WINDOW1",
        "WINDOW1",
        "WINDOW1",
        "WINDOW1",
        "WINDOW1",
        "WINDOW1",
        "WINDOW1",
        "WINDOW1",
        "WINDOW1",
        "WINDOW1",
        "WINDOW1",
        "WINDOW1",
        "WINDOW1",
        "WINDOW1",
        "WINDOW1",
        "WINDOW1",
        "WINDOW1",
        "WINDOW1",
        "WINDOW1",
        "WINDOW1",
        "WINDOW1",
        "WINDOW1",
        "WINDOW1",
        "WINDOW1",
        "WINDOW1",
        "WINDOW1",
        "WINDOW1",
        "WINDOW1",
        "WINDOW1",
        "WINDOW1",
        "WINDOW1",
        "WINDOW1",
        "WINDOW1",
        "WINDOW1",
        "WINDOW1",
        "WINDOW1",
        "WINDOW1",
        "WINDOW1",
        "WINDOW1",
        "WINDOW1",
        "WINDOW1",
        "WINDOW1",
        "WINDOW1",
        "WINDOW1",
        "WINDOW1",
        "WINDOW1",
        "WINDOW1",
        "WINDOW1",
        "WINDOW1",
        "WINDOW1",
        "WINDOW1",
        "WINDOW1",
        "WINDOW1",
        "WINDOW1",
        "WINDOW1",
        "WINDOW1",
        "WINDOW1",
        "WINDOW1",
        "WINDOW1",
        "WINDOW1",
        "WINDOW1",
        "WINDOW1",
        "WINDOW1",
        "WINDOW1",
        "WINDOW1",
        "WINDOW1",
        "WINDOW1",
        "WINDOW1",
        "WINDOW1",
        "WINDOW1",
        "WINDOW1",
        "WINDOW1",
        "WINDOW1",
        "WINDOW1",
        "WINDOW1",
        "WINDOW1",
        "WINDOW1",
        "WINDOW1",
        "WINDOW1",
        "WINDOW1",
        "WINDOW1",
        "WINDOW1",
        "WINDOW1",
        "WINDOW1",
        "WINDOW1",
        "WINDOW1",
        "WINDOW1",
        "WINDOW1",
        "WINDOW1",
        "WINDOW1",
        "WINDOW1",
        "WINDOW1",
        "WINDOW1",
        "WINDOW1",
        "WINDOW1",
        "WINDOW1",
        "WINDOW1",
        "WINDOW1",
        "WINDOW1",
        "WINDOW1",
        "WINDOW1",
        "WINDOW1",
        "WINDOW1",
        "WINDOW1",
        "WINDOW1",
        "WINDOW1",
        "WINDOW1",
        "WINDOW1",
        "WINDOW1",
        "WINDOW1",
        "WINDOW1",
        "WINDOW1",
        "WINDOW1",
        "WINDOW1",
        "WINDOW1",
        "WINDOW1",
        "WINDOW1",
        "WINDOW1",
        "WINDOW1",
        "WINDOW1",
        "WINDOW1",
        "WINDOW1",
        "WINDOW1",
        "WINDOW1",
        "WINDOW1",
        "WINDOW1",
        "WINDOW1",
        "WINDOW1",
        "WINDOW1",
        "WINDOW1",
        "WINDOW1",
        "WINDOW1",
        "WINDOW1",
        "WINDOW1",
        "WINDOW1",
        "WINDOW1",
        "WINDOW1",
        "WINDOW1",
        "WINDOW1",
        "WINDOW1",
        "WINDOW1",
        "WINDOW1",
        "WINDOW1",
        "WINDOW1",
        "WINDOW1",
        "WINDOW1",
        "WINDOW1",
        "WINDOW1",
        "WINDOW1",
        "WINDOW1",
        "WINDOW1",
        "WINDOW1",
        "WINDOW1",
        "WINDOW1",
        "WINDOW1",
        "WINDOW1",
        "WINDOW1",
        "WINDOW1",
        "WINDOW1",
        "WINDOW1",
        "WINDOW1",
        "WINDOW1",
        "WINDOW1",
        "WINDOW1",
        "WINDOW1",
        "WINDOW1",
        "WINDOW1",
        "WINDOW1",
        "WINDOW1",
        "WINDOW1",
        "WINDOW1",
        "WINDOW1",
        "WINDOW1",
        "WINDOW1",
        "WINDOW1",
        "WINDOW1",
        "WINDOW1",
        "WINDOW1",
        "WINDOW1",
        "WINDOW1",
        "WINDOW1",
        "WINDOW1",
        "WINDOW1",
        "WINDOW1",
        "WINDOW1",
        "WINDOW1",
        "WINDOW1",
        "WINDOW1",
        "WINDOW1",
        "WINDOW1",
        "WINDOW1",
        "WINDOW1",
        "WINDOW1",
        "WINDOW1",
        "WINDOW1",
        "WINDOW1",
        "WINDOW1",
        "WINDOW1",
        "WINDOW1",
        "WINDOW1",
        "WINDOW1",
        "WINDOW1",
        "WINDOW1",
        "WINDOW1",
        "WINDOW1",
        "WINDOW1",
        "WINDOW1",
        "WINDOW1",
        "WINDOW1",
        "WINDOW1",
        "WINDOW1",
        "WINDOW1"
]
    },
    "slices": {}
  }
}