{
  "AcquisitionMatrixPE": 100,
  "AcquisitionNumber": 1,
  "AcquisitionTime": "09:24:38.460000",
  "BandwidthPerPixelPhaseEncode": 18.519,
  "BaseResolution": 100,
  "BodyPartExamined": "BRAIN",
  "ConsistencyInfo": "N4_VE11C_LATEST_20160120",
  "ConversionSoftware": "dcm2niix",
  "ConversionSoftwareVersion": "v1.0.20180622 GCC4.9.2",
  "DerivedVendorReportedEchoSpacing": 0.000539986,
  "DeviceSerialNumber": "166078",
  "DwellTime": 2.1e-06,
  "EchoTime": 0.034,
  "EchoTrainLength": 100,
  "EffectiveEchoSpacing": 0.000539986,
  "FlipAngle": 90,
  "ImageOrientationPatientDICOM": [0.999963, 0.000993704, 0.00858827, 2.39008e-08, 0.993372, -0.114941],
  "ImageType": [
    "ORIGINAL",
    "PRIMARY",
    "M",
    "ND",
    "MOSAIC"
],
  "InPlanePhaseEncodingDirectionDICOM": "COL",
  "InstitutionAddress": "Street_StreetNo_Bei_Jing_District_CN_ZIP",
  "InstitutionName": "BeiJing_Normal_University",
  "InstitutionalDepartmentName": "Department",
  "MRAcquisitionType": "2D",
  "MagneticFieldStrength": 3,
  "Manufacturer": "Siemens",
  "ManufacturersModelName": "Prisma",
  "Modality": "MR",
  "MultibandAccelerationFactor": 3,
  "PartialFourier": 1,
  "PatientPosition": "HFS",
  "PercentPhaseFOV": 100,
  "PhaseEncodingDirection": "j-",
  "PhaseEncodingSteps": 100,
  "PhaseResolution": 1,
  "PixelBandwidth": 2380,
  "ProcedureStepDescription": "BNU_P2018_64CH_Liu.Jia",
  "ProtocolName": "bold_100x100_s3_2x2x2_232",
  "PulseSequenceDetails": "%SiemensSeq%_ep2d_bold",
  "ReceiveCoilActiveElements": "HC1-7;NC1",
  "ReceiveCoilName": "HeadNeck_64",
  "ReconMatrixPE": 100,
  "RepetitionTime": 2,
  "SAR": 0.0638523,
  "ScanOptions": "FS",
  "ScanningSequence": "EP",
  "SequenceName": "_epfid2d1_100",
  "SequenceVariant": "SK",
  "SeriesDescription": "bold_100x100_s3_2x2x2_232",
  "SeriesNumber": 5,
  "ShimSetting": [-5455, -11490, -1271, 411, -30, -285, -147, 12],
  "SliceThickness": 2,
  "SliceTiming": [1.485, 0, 0.99, 0.0825, 1.0725, 0.165, 1.155, 0.2475, 1.2375, 0.33, 1.32, 0.4125, 1.4025, 0.5775, 1.5675, 0.66, 1.65, 0.7425, 1.7325, 0.825, 1.815, 0.9075, 1.8975, 0.495, 1.485, 0, 0.99, 0.0825, 1.0725, 0.165, 1.155, 0.2475, 1.2375, 0.33, 1.32, 0.4125, 1.4025, 0.5775, 1.5675, 0.66, 1.65, 0.7425, 1.7325, 0.825, 1.815, 0.9075, 1.8975, 0.495, 1.485, 0, 0.99, 0.0825, 1.0725, 0.165, 1.155, 0.2475, 1.2375, 0.33, 1.32, 0.4125, 1.4025, 0.5775, 1.5675, 0.66, 1.65, 0.7425, 1.7325, 0.825, 1.815, 0.9075, 1.8975, 0.495],
  "SoftwareVersions": "syngo_MR_E11",
  "SpacingBetweenSlices": 2,
  "StationName": "AWP166078",
  "TaskName": "motor",
  "TotalReadoutTime": 0.0534586,
  "TxRefAmp": 211.466,
  "dcmmeta_affine": [
    [-1.9999252557754517, 4.780156359629473e-08, 0.017291132360696793, 100.71675109863281],
    [-0.0019874079152941704, 1.9867446422576904, -0.2298728972673416, -84.64287567138672],
    [0.017176536843180656, 0.22988148033618927, 1.9866704940795898, -85.23290252685547],
    [0.0, 0.0, 0.0, 1.0]
],
  "dcmmeta_reorient_transform": [
    [0.0, -1.0, 0.0, 99.0],
    [1.0, 0.0, 0.0, 0.0],
    [0.0, 0.0, 1.0, 0.0],
    [0.0, 0.0, 0.0, 1.0]
],
  "dcmmeta_shape": [100, 100, 72, 232],
  "dcmmeta_slice_dim": 2,
  "dcmmeta_version": 0.6,
  "global": {
    "const": {
      "AcquisitionMatrix": [100, 0, 0, 100],
      "AngioFlag": "N",
      "BitsAllocated": 16,
      "BitsStored": 12,
      "BodyPartExamined": "BRAIN",
      "Columns": 900,
      "EchoNumbers": 1,
      "EchoTime": 34.0,
      "EchoTrainLength": 100,
      "FlipAngle": 90.0,
      "HighBit": 11,
      "ImageOrientationPatient": [0.99996262639821, 0.00099370401483, 0.00858826869241, 2.3900781e-08, 0.99337234982496, -0.1149407438781],
      "ImagePositionPatient": [-900.6868742346, -907.53769621277, 22.607341497657],
      "ImageType": [
        "ORIGINAL",
        "PRIMARY",
        "M",
        "ND",
        "MOSAIC"
],
      "ImagedNucleus": "1H",
      "ImagingFrequency": 123.257825,
      "InPlanePhaseEncodingDirection": "COL",
      "MRAcquisitionType": "2D",
      "MagneticFieldStrength": 3.0,
      "Manufacturer": "SIEMENS",
      "ManufacturerModelName": "Prisma",
      "Modality": "MR",
      "NumberOfAverages": 1.0,
      "NumberOfPhaseEncodingSteps": 100,
      "PercentPhaseFieldOfView": 100.0,
      "PercentSampling": 100.0,
      "PerformedProcedureStepStartTime": "090445.174000",
      "PhotometricInterpretation": "MONOCHROME2",
      "PixelBandwidth": 2380.0,
      "PixelRepresentation": 0,
      "PixelSpacing": [2.0, 2.0],
      "ProtocolName": "bold_100x100_s3_2x2x2_232",
      "RepetitionTime": 2000.0,
      "Rows": 900,
      "SAR": 0.06385228198964,
      "SamplesPerPixel": 1,
      "ScanOptions": "FS",
      "ScanningSequence": "EP",
      "SequenceName": "*epfid2d1_100",
      "SequenceVariant": "SK",
      "SeriesDescription": "bold_100x100_s3_2x2x2_232",
      "SeriesNumber": 5,
      "SeriesTime": "092440.513000",
      "SliceLocation": -74.0655433295,
      "SliceThickness": 2.0,
      "SmallestImagePixelValue": 0,
      "SoftwareVersions": "syngo MR E11",
      "SpacingBetweenSlices": 2.0000000340706,
      "SpecificCharacterSet": "ISO_IR 100",
      "StudyID": "1",
      "StudyTime": "090445.030000",
      "TransmitCoilName": "Body",
      "VariableFlipAngleFlag": "N",
      "WindowCenterWidthExplanation": "Algo1",
      "dBdt": 0.0},
    "slices": {}
  },
  "time": {
    "samples": {
      "AcquisitionNumber": [1, 2, 3, 4, 5, 6, 7, 8, 9, 10, 11, 12, 13, 14, 15, 16, 17, 18, 19, 20, 21, 22, 23, 24, 25, 26, 27, 28, 29, 30, 31, 32, 33, 34, 35, 36, 37, 38, 39, 40, 41, 42, 43, 44, 45, 46, 47, 48, 49, 50, 51, 52, 53, 54, 55, 56, 57, 58, 59, 60, 61, 62, 63, 64, 65, 66, 67, 68, 69, 70, 71, 72, 73, 74, 75, 76, 77, 78, 79, 80, 81, 82, 83, 84, 85, 86, 87, 88, 89, 90, 91, 92, 93, 94, 95, 96, 97, 98, 99, 100, 101, 102, 103, 104, 105, 106, 107, 108, 109, 110, 111, 112, 113, 114, 115, 116, 117, 118, 119, 120, 121, 122, 123, 124, 125, 126, 127, 128, 129, 130, 131, 132, 133, 134, 135, 136, 137, 138, 139, 140, 141, 142, 143, 144, 145, 146, 147, 148, 149, 150, 151, 152, 153, 154, 155, 156, 157, 158, 159, 160, 161, 162, 163, 164, 165, 166, 167, 168, 169, 170, 171, 172, 173, 174, 175, 176, 177, 178, 179, 180, 181, 182, 183, 184, 185, 186, 187, 188, 189, 190, 191, 192, 193, 194, 195, 196, 197, 198, 199, 200, 201, 202, 203, 204, 205, 206, 207, 208, 209, 210, 211, 212, 213, 214, 215, 216, 217, 218, 219, 220, 221, 222, 223, 224, 225, 226, 227, 228, 229, 230, 231, 232],
      "AcquisitionTime": ["092438.460000", "092440.460000", "092442.460000", "092444.460000", "092446.460000", "092448.460000", "092450.460000", "092452.460000", "092454.460000", "092456.460000", "092458.460000", "092500.460000", "092502.460000", "092504.460000", "092506.460000", "092508.460000", "092510.460000", "092512.460000", "092514.460000", "092516.460000", "092518.460000", "092520.460000", "092522.460000", "092524.460000", "092526.460000", "092528.460000", "092530.460000", "092532.460000", "092534.460000", "092536.460000", "092538.460000", "092540.460000", "092542.460000", "092544.460000", "092546.460000", "092548.460000", "092550.460000", "092552.460000", "092554.460000", "092556.460000", "092558.460000", "092600.460000", "092602.460000", "092604.460000", "092606.460000", "092608.460000", "092610.460000", "092612.460000", "092614.460000", "092616.460000", "092618.460000", "092620.460000", "092622.460000", "092624.460000", "092626.460000", "092628.460000", "092630.460000", "092632.460000", "092634.460000", "092636.460000", "092638.460000", "092640.460000", "092642.460000", "092644.460000", "092646.460000", "092648.460000", "092650.460000", "092652.460000", "092654.460000", "092656.460000", "092658.460000", "092700.460000", "092702.460000", "092704.460000", "092706.460000", "092708.460000", "092710.460000", "092712.460000", "092714.460000", "092716.460000", "092718.460000", "092720.460000", "092722.460000", "092724.460000", "092726.460000", "092728.460000", "092730.460000", "092732.460000", "092734.460000", "092736.460000", "092738.460000", "092740.460000", "092742.460000", "092744.460000", "092746.460000", "092748.460000", "092750.460000", "092752.460000", "092754.460000", "092756.460000", "092758.460000", "092800.460000", "092802.460000", "092804.460000", "092806.460000", "092808.460000", "092810.460000", "092812.460000", "092814.460000", "092816.460000", "092818.460000", "092820.460000", "092822.460000", "092824.460000", "092826.460000", "092828.460000", "092830.460000", "092832.460000", "092834.460000", "092836.460000", "092838.460000", "092840.460000", "092842.460000", "092844.460000", "092846.460000", "092848.460000", "092850.460000", "092852.460000", "092854.460000", "092856.460000", "092858.460000", "092900.460000", "092902.460000", "092904.460000", "092906.460000", "092908.460000", "092910.460000", "092912.460000", "092914.460000", "092916.460000", "092918.460000", "092920.460000", "092922.460000", "092924.460000", "092926.460000", "092928.460000", "092930.460000", "092932.460000", "092934.460000", "092936.460000", "092938.460000", "092940.460000", "092942.460000", "092944.460000", "092946.460000", "092948.460000", "092950.460000", "092952.460000", "092954.460000", "092956.460000", "092958.460000", "093000.460000", "093002.460000", "093004.460000", "093006.460000", "093008.460000", "093010.460000", "093012.460000", "093014.460000", "093016.460000", "093018.460000", "093020.460000", "093022.460000", "093024.460000", "093026.460000", "093028.460000", "093030.460000", "093032.460000", "093034.460000", "093036.460000", "093038.460000", "093040.460000", "093042.460000", "093044.460000", "093046.460000", "093048.460000", "093050.460000", "093052.460000", "093054.460000", "093056.460000", "093058.460000", "093100.460000", "093102.460000", "093104.460000", "093106.460000", "093108.460000", "093110.460000", "093112.460000", "093114.460000", "093116.460000", "093118.460000", "093120.460000", "093122.460000", "093124.460000", "093126.460000", "093128.460000", "093130.460000", "093132.460000", "093134.460000", "093136.460000", "093138.460000", "093140.460000", "093142.460000", "093144.460000", "093146.460000", "093148.460000", "093150.460000", "093152.460000", "093154.460000", "093156.460000", "093158.460000", "093200.460000", "093202.460000", "093204.460000", "093206.460000", "093208.460000", "093210.460000", "093212.460000", "093214.460000", "093216.460000", "093218.460000", "093220.460000"],
      "ContentTime": ["092440.516000", "092442.513000", "092444.011000", "092446.011000", "092448.511000", "092450.511000", "092452.012000", "092454.512000", "092456.011000", "092458.010000", "092500.511000", "092502.511000", "092504.011000", "092506.011000", "092508.012000", "092510.011000", "092512.011000", "092514.011000", "092516.010000", "092518.011000", "092520.511000", "092522.511000", "092524.511000", "092526.512000", "092528.011000", "092530.011000", "092532.510000", "092534.010000", "092536.511000", "092538.512000", "092540.011000", "092542.012000", "092544.512000", "092546.511000", "092548.512000", "092550.010000", "092552.512000", "092554.011000", "092556.012000", "092558.512000", "092600.011000", "092602.012000", "092604.011000", "092606.011000", "092608.010000", "092610.511000", "092612.511000", "092614.012000", "092616.011000", "092618.512000", "092620.011000", "092622.011000", "092624.511000", "092626.010000", "092628.012000", "092630.511000", "092632.011000", "092634.012000", "092636.011000", "092638.011000", "092640.011000", "092642.012000", "092644.512000", "092646.512000", "092648.011000", "092650.012000", "092652.511000", "092654.511000", "092656.011000", "092658.011000", "092700.511000", "092702.511000", "092704.011000", "092706.011000", "092708.511000", "092710.511000", "092712.511000", "092714.511000", "092716.011000", "092718.510000", "092720.511000", "092722.531000", "092724.011000", "092726.511000", "092728.011000", "092730.011000", "092732.511000", "092734.511000", "092736.010000", "092738.012000", "092740.011000", "092742.011000", "092744.011000", "092746.011000", "092748.011000", "092750.012000", "092752.011000", "092754.012000", "092756.012000", "092758.011000", "092800.011000", "092802.012000", "092804.011000", "092806.011000", "092808.011000", "092810.010000", "092812.011000", "092814.011000", "092816.511000", "092818.512000", "092820.011000", "092822.511000", "092824.512000", "092826.511000", "092828.010000", "092830.511000", "092832.512000", "092834.012000", "092836.012000", "092838.011000", "092840.012000", "092842.511000", "092844.511000", "092846.512000", "092848.012000", "092850.511000", "092852.511000", "092854.512000", "092856.011000", "092858.011000", "092900.512000", "092902.511000", "092904.011000", "092906.011000", "092908.511000", "092910.511000", "092912.011000", "092914.512000", "092916.511000", "092918.012000", "092920.010000", "092922.011000", "092924.012000", "092926.011000", "092928.011000", "092930.012000", "092932.011000", "092934.012000", "092936.512000", "092938.510000", "092940.511000", "092942.512000", "092944.011000", "092946.011000", "092948.011000", "092950.011000", "092952.511000", "092954.011000", "092956.511000", "092958.512000", "093000.011000", "093002.512000", "093004.512000", "093006.512000", "093008.011000", "093010.511000", "093012.012000", "093014.011000", "093016.512000", "093018.511000", "093020.011000", "093022.511000", "093024.012000", "093026.011000", "093028.012000", "093030.511000", "093032.011000", "093034.012000", "093036.512000", "093038.012000", "093040.012000", "093042.511000", "093044.012000", "093046.512000", "093048.510000", "093050.011000", "093052.512000", "093054.511000", "093056.012000", "093058.511000", "093100.511000", "093102.511000", "093104.011000", "093106.011000", "093108.011000", "093110.012000", "093112.511000", "093114.511000", "093116.011000", "093118.011000", "093120.511000", "093122.510000", "093124.011000", "093126.012000", "093128.011000", "093130.511000", "093132.512000", "093134.512000", "093136.011000", "093138.511000", "093140.510000", "093142.511000", "093144.012000", "093146.511000", "093148.011000", "093150.011000", "093152.512000", "093154.012000", "093156.512000", "093158.011000", "093200.012000", "093202.011000", "093204.012000", "093206.512000", "093208.012000", "093210.512000", "093212.011000", "093214.511000", "093216.010000", "093218.012000", "093220.011000", "093221.947000"],
      "InstanceCreationTime": ["092440.516000", "092442.513000", "092444.011000", "092446.011000", "092448.511000", "092450.511000", "092452.012000", "092454.512000", "092456.011000", "092458.010000", "092500.511000", "092502.511000", "092504.011000", "092506.011000", "092508.012000", "092510.011000", "092512.011000", "092514.011000", "092516.010000", "092518.011000", "092520.511000", "092522.511000", "092524.511000", "092526.512000", "092528.011000", "092530.011000", "092532.510000", "092534.010000", "092536.511000", "092538.512000", "092540.011000", "092542.012000", "092544.512000", "092546.511000", "092548.512000", "092550.010000", "092552.512000", "092554.011000", "092556.012000", "092558.512000", "092600.011000", "092602.012000", "092604.011000", "092606.011000", "092608.010000", "092610.511000", "092612.511000", "092614.012000", "092616.011000", "092618.512000", "092620.011000", "092622.011000", "092624.511000", "092626.010000", "092628.012000", "092630.511000", "092632.011000", "092634.012000", "092636.011000", "092638.011000", "092640.011000", "092642.012000", "092644.512000", "092646.512000", "092648.011000", "092650.012000", "092652.511000", "092654.511000", "092656.011000", "092658.011000", "092700.511000", "092702.511000", "092704.011000", "092706.011000", "092708.511000", "092710.511000", "092712.511000", "092714.511000", "092716.011000", "092718.510000", "092720.511000", "092722.531000", "092724.011000", "092726.511000", "092728.011000", "092730.011000", "092732.511000", "092734.511000", "092736.010000", "092738.012000", "092740.011000", "092742.011000", "092744.011000", "092746.011000", "092748.011000", "092750.012000", "092752.011000", "092754.012000", "092756.012000", "092758.011000", "092800.011000", "092802.012000", "092804.011000", "092806.011000", "092808.011000", "092810.010000", "092812.011000", "092814.011000", "092816.511000", "092818.512000", "092820.011000", "092822.511000", "092824.512000", "092826.511000", "092828.010000", "092830.511000", "092832.512000", "092834.012000", "092836.012000", "092838.011000", "092840.012000", "092842.511000", "092844.511000", "092846.512000", "092848.012000", "092850.511000", "092852.511000", "092854.512000", "092856.011000", "092858.011000", "092900.512000", "092902.511000", "092904.011000", "092906.011000", "092908.511000", "092910.511000", "092912.011000", "092914.512000", "092916.511000", "092918.012000", "092920.010000", "092922.011000", "092924.012000", "092926.011000", "092928.011000", "092930.012000", "092932.011000", "092934.012000", "092936.512000", "092938.510000", "092940.511000", "092942.512000", "092944.011000", "092946.011000", "092948.011000", "092950.011000", "092952.511000", "092954.011000", "092956.511000", "092958.512000", "093000.011000", "093002.512000", "093004.512000", "093006.512000", "093008.011000", "093010.511000", "093012.012000", "093014.011000", "093016.512000", "093018.511000", "093020.011000", "093022.511000", "093024.012000", "093026.011000", "093028.012000", "093030.511000", "093032.011000", "093034.012000", "093036.512000", "093038.012000", "093040.012000", "093042.511000", "093044.012000", "093046.512000", "093048.510000", "093050.011000", "093052.512000", "093054.511000", "093056.012000", "093058.511000", "093100.511000", "093102.511000", "093104.011000", "093106.011000", "093108.011000", "093110.012000", "093112.511000", "093114.511000", "093116.011000", "093118.011000", "093120.511000", "093122.510000", "093124.011000", "093126.012000", "093128.011000", "093130.511000", "093132.512000", "093134.512000", "093136.011000", "093138.511000", "093140.510000", "093142.511000", "093144.012000", "093146.511000", "093148.011000", "093150.011000", "093152.512000", "093154.012000", "093156.512000", "093158.011000", "093200.012000", "093202.011000", "093204.012000", "093206.512000", "093208.012000", "093210.512000", "093212.011000", "093214.511000", "093216.010000", "093218.012000", "093220.011000", "093221.947000"],
      "InstanceNumber": [1, 2, 3, 4, 5, 6, 7, 8, 9, 10, 11, 12, 13, 14, 15, 16, 17, 18, 19, 20, 21, 22, 23, 24, 25, 26, 27, 28, 29, 30, 31, 32, 33, 34, 35, 36, 37, 38, 39, 40, 41, 42, 43, 44, 45, 46, 47, 48, 49, 50, 51, 52, 53, 54, 55, 56, 57, 58, 59, 60, 61, 62, 63, 64, 65, 66, 67, 68, 69, 70, 71, 72, 73, 74, 75, 76, 77, 78, 79, 80, 81, 82, 83, 84, 85, 86, 87, 88, 89, 90, 91, 92, 93, 94, 95, 96, 97, 98, 99, 100, 101, 102, 103, 104, 105, 106, 107, 108, 109, 110, 111, 112, 113, 114, 115, 116, 117, 118, 119, 120, 121, 122, 123, 124, 125, 126, 127, 128, 129, 130, 131, 132, 133, 134, 135, 136, 137, 138, 139, 140, 141, 142, 143, 144, 145, 146, 147, 148, 149, 150, 151, 152, 153, 154, 155, 156, 157, 158, 159, 160, 161, 162, 163, 164, 165, 166, 167, 168, 169, 170, 171, 172, 173, 174, 175, 176, 177, 178, 179, 180, 181, 182, 183, 184, 185, 186, 187, 188, 189, 190, 191, 192, 193, 194, 195, 196, 197, 198, 199, 200, 201, 202, 203, 204, 205, 206, 207, 208, 209, 210, 211, 212, 213, 214, 215, 216, 217, 218, 219, 220, 221, 222, 223, 224, 225, 226, 227, 228, 229, 230, 231, 232],
      "LargestImagePixelValue": [3356, 3305, 3317, 3289, 3290, 3291, 3293, 3324, 3337, 3287, 3198, 3296, 3240, 3258, 3236, 3195, 3294, 3309, 3285, 3267, 3303, 3294, 3320, 3306, 3323, 3283, 3302, 3281, 3283, 3279, 3298, 3288, 3262, 3256, 3262, 3256, 3246, 3276, 3257, 3273, 3274, 3233, 3248, 3223, 3226, 3246, 3242, 3270, 3255, 3227, 3244, 3212, 3269, 3249, 3287, 3251, 3243, 3259, 3218, 3207, 3204, 3212, 3192, 3198, 3217, 3193, 3199, 3187, 3199, 3218, 3191, 3197, 3184, 3174, 3230, 3175, 3192, 3231, 3174, 3212, 3178, 3218, 3190, 3190, 3184, 3195, 3203, 3193, 3202, 3198, 3183, 3183, 3243, 3201, 3172, 3176, 3192, 3223, 3212, 3229, 3205, 3207, 3212, 3195, 3229, 3226, 3215, 3187, 3185, 3207, 3195, 3211, 3227, 3210, 3215, 3217, 3197, 3223, 3186, 3198, 3208, 3214, 3200, 3177, 3183, 3203, 3184, 3200, 3222, 3201, 3232, 3209, 3214, 3224, 3215, 3231, 3206, 3199, 3225, 3196, 3228, 3235, 3204, 3208, 3187, 3209, 3218, 3215, 3198, 3211, 3218, 3210, 3189, 3223, 3239, 3227, 3196, 3199, 3221, 3193, 3231, 3239, 3252, 3229, 3231, 3223, 3200, 3249, 3221, 3199, 3222, 3209, 3224, 3203, 3217, 3218, 3224, 3211, 3224, 3206, 3258, 3225, 3248, 3247, 3224, 3242, 3246, 3279, 3271, 3230, 3256, 3222, 3242, 3243, 3257, 3274, 3253, 3296, 3228, 3256, 3204, 3210, 3210, 3243, 3273, 3214, 3227, 3193, 3228, 3224, 3214, 3234, 3256, 3223, 3240, 3226, 3210, 3234, 3205, 3189, 3227, 3210, 3224, 3225, 3212, 3228, 3196, 3219, 3212, 3200, 3240, 3210],
      "WindowCenter": [748.0, 746.0, 746.0, 746.0, 746.0, 745.0, 745.0, 746.0, 746.0, 745.0, 745.0, 746.0, 745.0, 744.0, 744.0, 743.0, 744.0, 745.0, 745.0, 745.0, 746.0, 746.0, 746.0, 746.0, 745.0, 745.0, 745.0, 744.0, 746.0, 746.0, 746.0, 744.0, 744.0, 744.0, 744.0, 744.0, 745.0, 746.0, 746.0, 745.0, 745.0, 744.0, 744.0, 744.0, 743.0, 744.0, 745.0, 745.0, 745.0, 744.0, 745.0, 745.0, 745.0, 745.0, 745.0, 745.0, 745.0, 745.0, 745.0, 744.0, 746.0, 746.0, 744.0, 742.0, 742.0, 742.0, 743.0, 743.0, 743.0, 743.0, 743.0, 743.0, 744.0, 743.0, 744.0, 742.0, 743.0, 744.0, 743.0, 744.0, 743.0, 744.0, 745.0, 746.0, 745.0, 745.0, 745.0, 745.0, 745.0, 744.0, 744.0, 744.0, 744.0, 744.0, 744.0, 743.0, 744.0, 744.0, 744.0, 744.0, 743.0, 743.0, 744.0, 743.0, 743.0, 743.0, 742.0, 742.0, 742.0, 743.0, 743.0, 744.0, 744.0, 745.0, 745.0, 745.0, 745.0, 744.0, 744.0, 744.0, 744.0, 744.0, 744.0, 744.0, 744.0, 743.0, 743.0, 743.0, 743.0, 743.0, 744.0, 745.0, 745.0, 745.0, 745.0, 745.0, 744.0, 744.0, 744.0, 743.0, 743.0, 744.0, 744.0, 744.0, 744.0, 745.0, 745.0, 745.0, 744.0, 745.0, 744.0, 744.0, 744.0, 744.0, 745.0, 745.0, 744.0, 744.0, 745.0, 744.0, 745.0, 745.0, 745.0, 745.0, 745.0, 745.0, 745.0, 745.0, 745.0, 745.0, 745.0, 745.0, 745.0, 745.0, 745.0, 745.0, 744.0, 745.0, 745.0, 744.0, 745.0, 746.0, 747.0, 746.0, 745.0, 745.0, 745.0, 745.0, 745.0, 745.0, 746.0, 746.0, 746.0, 745.0, 745.0, 747.0, 747.0, 747.0, 745.0, 746.0, 744.0, 745.0, 745.0, 745.0, 745.0, 744.0, 744.0, 744.0, 745.0, 745.0, 745.0, 746.0, 746.0, 745.0, 745.0, 744.0, 744.0, 744.0, 744.0, 744.0, 744.0, 744.0, 744.0, 745.0, 745.0, 746.0, 745.0, 746.0, 745.0, 745.0, 746.0, 745.0],
      "WindowWidth": [1623.0, 1618.0, 1618.0, 1617.0, 1617.0, 1616.0, 1616.0, 1616.0, 1617.0, 1615.0, 1615.0, 1617.0, 1613.0, 1612.0, 1611.0, 1610.0, 1613.0, 1615.0, 1615.0, 1615.0, 1617.0, 1617.0, 1617.0, 1616.0, 1615.0, 1613.0, 1615.0, 1613.0, 1618.0, 1617.0, 1616.0, 1613.0, 1611.0, 1610.0, 1611.0, 1613.0, 1614.0, 1616.0, 1616.0, 1615.0, 1614.0, 1613.0, 1613.0, 1611.0, 1610.0, 1611.0, 1613.0, 1615.0, 1614.0, 1612.0, 1614.0, 1614.0, 1616.0, 1614.0, 1614.0, 1613.0, 1614.0, 1615.0, 1614.0, 1613.0, 1617.0, 1616.0, 1612.0, 1607.0, 1607.0, 1607.0, 1610.0, 1610.0, 1610.0, 1609.0, 1608.0, 1610.0, 1611.0, 1610.0, 1611.0, 1607.0, 1610.0, 1612.0, 1609.0, 1611.0, 1610.0, 1612.0, 1613.0, 1616.0, 1615.0, 1615.0, 1614.0, 1614.0, 1614.0, 1612.0, 1612.0, 1612.0, 1612.0, 1612.0, 1610.0, 1610.0, 1611.0, 1611.0, 1610.0, 1610.0, 1609.0, 1610.0, 1612.0, 1610.0, 1610.0, 1609.0, 1607.0, 1606.0, 1607.0, 1609.0, 1610.0, 1612.0, 1613.0, 1614.0, 1614.0, 1613.0, 1614.0, 1613.0, 1612.0, 1612.0, 1611.0, 1611.0, 1611.0, 1611.0, 1611.0, 1610.0, 1608.0, 1608.0, 1609.0, 1609.0, 1612.0, 1613.0, 1614.0, 1615.0, 1614.0, 1614.0, 1612.0, 1611.0, 1611.0, 1611.0, 1610.0, 1612.0, 1611.0, 1612.0, 1613.0, 1613.0, 1615.0, 1615.0, 1613.0, 1613.0, 1611.0, 1611.0, 1611.0, 1612.0, 1614.0, 1614.0, 1611.0, 1612.0, 1614.0, 1612.0, 1614.0, 1613.0, 1613.0, 1613.0, 1614.0, 1613.0, 1614.0, 1615.0, 1615.0, 1614.0, 1615.0, 1615.0, 1615.0, 1614.0, 1614.0, 1613.0, 1613.0, 1613.0, 1614.0, 1613.0, 1614.0, 1617.0, 1619.0, 1618.0, 1615.0, 1615.0, 1614.0, 1614.0, 1614.0, 1615.0, 1616.0, 1616.0, 1616.0, 1614.0, 1614.0, 1620.0, 1619.0, 1620.0, 1616.0, 1617.0, 1613.0, 1615.0, 1615.0, 1614.0, 1614.0, 1612.0, 1612.0, 1612.0, 1613.0, 1614.0, 1615.0, 1617.0, 1617.0, 1614.0, 1614.0, 1613.0, 1612.0, 1612.0, 1611.0, 1611.0, 1612.0, 1612.0, 1612.0, 1614.0, 1615.0, 1617.0, 1616.0, 1616.0, 1616.0, 1616.0, 1616.0, 1615.0]
    },
    "slices": {}
  }
}