{
  "AcquisitionMatrixPE": 100,
  "AcquisitionNumber": 1,
  "AcquisitionTime": "09:44:36.672500",
  "BandwidthPerPixelPhaseEncode": 18.519,
  "BaseResolution": 100,
  "BodyPartExamined": "BRAIN",
  "ConsistencyInfo": "N4_VE11C_LATEST_20160120",
  "ConversionSoftware": "dcm2niix",
  "ConversionSoftwareVersion": "v1.0.20180622 GCC4.9.2",
  "DerivedVendorReportedEchoSpacing": 0.000539986,
  "DeviceSerialNumber": "166078",
  "DwellTime": 2.1e-06,
  "EchoTime": 0.034,
  "EchoTrainLength": 100,
  "EffectiveEchoSpacing": 0.000539986,
  "FlipAngle": 90,
  "ImageOrientationPatientDICOM": [0.999963, 0.000993704, 0.00858827, 2.39008e-08, 0.993372, -0.114941],
  "ImageType": [
    "ORIGINAL",
    "PRIMARY",
    "M",
    "ND",
    "MOSAIC"
],
  "InPlanePhaseEncodingDirectionDICOM": "COL",
  "InstitutionAddress": "Street_StreetNo_Bei_Jing_District_CN_ZIP",
  "InstitutionName": "BeiJing_Normal_University",
  "InstitutionalDepartmentName": "Department",
  "MRAcquisitionType": "2D",
  "MagneticFieldStrength": 3,
  "Manufacturer": "Siemens",
  "ManufacturersModelName": "Prisma",
  "Modality": "MR",
  "MultibandAccelerationFactor": 3,
  "PartialFourier": 1,
  "PatientPosition": "HFS",
  "PercentPhaseFOV": 100,
  "PhaseEncodingDirection": "j-",
  "PhaseEncodingSteps": 100,
  "PhaseResolution": 1,
  "PixelBandwidth": 2380,
  "ProcedureStepDescription": "BNU_P2018_64CH_Liu.Jia",
  "ProtocolName": "bold_100x100_s3_2x2x2_232",
  "PulseSequenceDetails": "%SiemensSeq%_ep2d_bold",
  "ReceiveCoilActiveElements": "HC1-7;NC1",
  "ReceiveCoilName": "HeadNeck_64",
  "ReconMatrixPE": 100,
  "RepetitionTime": 2,
  "SAR": 0.0638523,
  "ScanOptions": "FS",
  "ScanningSequence": "EP",
  "SequenceName": "_epfid2d1_100",
  "SequenceVariant": "SK",
  "SeriesDescription": "bold_100x100_s3_2x2x2_232",
  "SeriesNumber": 9,
  "ShimSetting": [-5455, -11490, -1271, 411, -30, -285, -147, 12],
  "SliceThickness": 2,
  "SliceTiming": [1.485, 0, 0.99, 0.0825, 1.0725, 0.165, 1.155, 0.2475, 1.2375, 0.33, 1.32, 0.4125, 1.4025, 0.5775, 1.5675, 0.66, 1.65, 0.7425, 1.7325, 0.825, 1.815, 0.9075, 1.8975, 0.495, 1.485, 0, 0.99, 0.0825, 1.0725, 0.165, 1.155, 0.2475, 1.2375, 0.33, 1.32, 0.4125, 1.4025, 0.5775, 1.5675, 0.66, 1.65, 0.7425, 1.7325, 0.825, 1.815, 0.9075, 1.8975, 0.495, 1.485, 0, 0.99, 0.0825, 1.0725, 0.165, 1.155, 0.2475, 1.2375, 0.33, 1.32, 0.4125, 1.4025, 0.5775, 1.5675, 0.66, 1.65, 0.7425, 1.7325, 0.825, 1.815, 0.9075, 1.8975, 0.495],
  "SoftwareVersions": "syngo_MR_E11",
  "SpacingBetweenSlices": 2,
  "StationName": "AWP166078",
  "TaskName": "motor",
  "TotalReadoutTime": 0.0534586,
  "TxRefAmp": 211.466,
  "dcmmeta_affine": [
    [-1.9999252557754517, 4.780156359629473e-08, 0.017291132360696793, 100.71675109863281],
    [-0.0019874079152941704, 1.9867446422576904, -0.2298728972673416, -84.64287567138672],
    [0.017176536843180656, 0.22988148033618927, 1.9866704940795898, -85.23290252685547],
    [0.0, 0.0, 0.0, 1.0]
],
  "dcmmeta_reorient_transform": [
    [0.0, -1.0, 0.0, 99.0],
    [1.0, 0.0, 0.0, 0.0],
    [0.0, 0.0, 1.0, 0.0],
    [0.0, 0.0, 0.0, 1.0]
],
  "dcmmeta_shape": [100, 100, 72, 232],
  "dcmmeta_slice_dim": 2,
  "dcmmeta_version": 0.6,
  "global": {
    "const": {
      "AcquisitionMatrix": [100, 0, 0, 100],
      "AngioFlag": "N",
      "BitsAllocated": 16,
      "BitsStored": 12,
      "BodyPartExamined": "BRAIN",
      "Columns": 900,
      "EchoNumbers": 1,
      "EchoTime": 34.0,
      "EchoTrainLength": 100,
      "FlipAngle": 90.0,
      "HighBit": 11,
      "ImageOrientationPatient": [0.99996262639821, 0.00099370401483, 0.00858826869241, 2.3900781e-08, 0.99337234982496, -0.1149407438781],
      "ImagePositionPatient": [-900.6868742346, -907.53769621277, 22.607341497657],
      "ImageType": [
        "ORIGINAL",
        "PRIMARY",
        "M",
        "ND",
        "MOSAIC"
],
      "ImagedNucleus": "1H",
      "ImagingFrequency": 123.257835,
      "InPlanePhaseEncodingDirection": "COL",
      "MRAcquisitionType": "2D",
      "MagneticFieldStrength": 3.0,
      "Manufacturer": "SIEMENS",
      "ManufacturerModelName": "Prisma",
      "Modality": "MR",
      "NumberOfAverages": 1.0,
      "NumberOfPhaseEncodingSteps": 100,
      "PercentPhaseFieldOfView": 100.0,
      "PercentSampling": 100.0,
      "PerformedProcedureStepStartTime": "090445.174000",
      "PhotometricInterpretation": "MONOCHROME2",
      "PixelBandwidth": 2380.0,
      "PixelRepresentation": 0,
      "PixelSpacing": [2.0, 2.0],
      "ProtocolName": "bold_100x100_s3_2x2x2_232",
      "RepetitionTime": 2000.0,
      "Rows": 900,
      "SAR": 0.06385228198964,
      "SamplesPerPixel": 1,
      "ScanOptions": "FS",
      "ScanningSequence": "EP",
      "SequenceName": "*epfid2d1_100",
      "SequenceVariant": "SK",
      "SeriesDescription": "bold_100x100_s3_2x2x2_232",
      "SeriesNumber": 9,
      "SeriesTime": "094439.544000",
      "SliceLocation": -74.0655433295,
      "SliceThickness": 2.0,
      "SmallestImagePixelValue": 0,
      "SoftwareVersions": "syngo MR E11",
      "SpacingBetweenSlices": 2.0000000340706,
      "SpecificCharacterSet": "ISO_IR 100",
      "StudyID": "1",
      "StudyTime": "090445.030000",
      "TransmitCoilName": "Body",
      "VariableFlipAngleFlag": "N",
      "WindowCenterWidthExplanation": "Algo1",
      "dBdt": 0.0},
    "slices": {}
  },
  "time": {
    "samples": {
      "AcquisitionNumber": [1, 2, 3, 4, 5, 6, 7, 8, 9, 10, 11, 12, 13, 14, 15, 16, 17, 18, 19, 20, 21, 22, 23, 24, 25, 26, 27, 28, 29, 30, 31, 32, 33, 34, 35, 36, 37, 38, 39, 40, 41, 42, 43, 44, 45, 46, 47, 48, 49, 50, 51, 52, 53, 54, 55, 56, 57, 58, 59, 60, 61, 62, 63, 64, 65, 66, 67, 68, 69, 70, 71, 72, 73, 74, 75, 76, 77, 78, 79, 80, 81, 82, 83, 84, 85, 86, 87, 88, 89, 90, 91, 92, 93, 94, 95, 96, 97, 98, 99, 100, 101, 102, 103, 104, 105, 106, 107, 108, 109, 110, 111, 112, 113, 114, 115, 116, 117, 118, 119, 120, 121, 122, 123, 124, 125, 126, 127, 128, 129, 130, 131, 132, 133, 134, 135, 136, 137, 138, 139, 140, 141, 142, 143, 144, 145, 146, 147, 148, 149, 150, 151, 152, 153, 154, 155, 156, 157, 158, 159, 160, 161, 162, 163, 164, 165, 166, 167, 168, 169, 170, 171, 172, 173, 174, 175, 176, 177, 178, 179, 180, 181, 182, 183, 184, 185, 186, 187, 188, 189, 190, 191, 192, 193, 194, 195, 196, 197, 198, 199, 200, 201, 202, 203, 204, 205, 206, 207, 208, 209, 210, 211, 212, 213, 214, 215, 216, 217, 218, 219, 220, 221, 222, 223, 224, 225, 226, 227, 228, 229, 230, 231, 232],
      "AcquisitionTime": ["094436.672500", "094438.672500", "094440.672500", "094442.672500", "094444.672500", "094446.672500", "094448.672500", "094450.672500", "094452.672500", "094454.672500", "094456.672500", "094458.672500", "094500.672500", "094502.672500", "094504.672500", "094506.672500", "094508.672500", "094510.672500", "094512.672500", "094514.672500", "094516.672500", "094518.672500", "094520.672500", "094522.672500", "094524.672500", "094526.672500", "094528.672500", "094530.672500", "094532.672500", "094534.672500", "094536.672500", "094538.672500", "094540.672500", "094542.672500", "094544.672500", "094546.672500", "094548.672500", "094550.672500", "094552.672500", "094554.672500", "094556.672500", "094558.672500", "094600.672500", "094602.672500", "094604.672500", "094606.672500", "094608.672500", "094610.672500", "094612.672500", "094614.672500", "094616.672500", "094618.672500", "094620.672500", "094622.672500", "094624.672500", "094626.672500", "094628.672500", "094630.672500", "094632.672500", "094634.672500", "094636.672500", "094638.672500", "094640.672500", "094642.672500", "094644.672500", "094646.672500", "094648.672500", "094650.672500", "094652.672500", "094654.672500", "094656.672500", "094658.672500", "094700.672500", "094702.672500", "094704.672500", "094706.672500", "094708.672500", "094710.672500", "094712.672500", "094714.672500", "094716.672500", "094718.672500", "094720.672500", "094722.672500", "094724.672500", "094726.672500", "094728.672500", "094730.672500", "094732.672500", "094734.672500", "094736.672500", "094738.672500", "094740.672500", "094742.672500", "094744.672500", "094746.672500", "094748.672500", "094750.672500", "094752.672500", "094754.672500", "094756.672500", "094758.672500", "094800.672500", "094802.672500", "094804.672500", "094806.672500", "094808.672500", "094810.672500", "094812.672500", "094814.672500", "094816.672500", "094818.672500", "094820.672500", "094822.672500", "094824.672500", "094826.672500", "094828.672500", "094830.672500", "094832.672500", "094834.672500", "094836.672500", "094838.672500", "094840.672500", "094842.672500", "094844.672500", "094846.672500", "094848.672500", "094850.672500", "094852.672500", "094854.672500", "094856.672500", "094858.672500", "094900.672500", "094902.672500", "094904.672500", "094906.672500", "094908.672500", "094910.672500", "094912.672500", "094914.672500", "094916.672500", "094918.672500", "094920.672500", "094922.672500", "094924.672500", "094926.672500", "094928.672500", "094930.672500", "094932.672500", "094934.672500", "094936.672500", "094938.672500", "094940.672500", "094942.672500", "094944.672500", "094946.672500", "094948.672500", "094950.672500", "094952.672500", "094954.672500", "094956.672500", "094958.672500", "095000.672500", "095002.672500", "095004.672500", "095006.672500", "095008.672500", "095010.672500", "095012.672500", "095014.672500", "095016.672500", "095018.672500", "095020.672500", "095022.672500", "095024.672500", "095026.672500", "095028.672500", "095030.672500", "095032.672500", "095034.672500", "095036.672500", "095038.672500", "095040.672500", "095042.672500", "095044.672500", "095046.672500", "095048.672500", "095050.672500", "095052.672500", "095054.672500", "095056.672500", "095058.672500", "095100.672500", "095102.672500", "095104.672500", "095106.672500", "095108.672500", "095110.672500", "095112.672500", "095114.672500", "095116.672500", "095118.672500", "095120.672500", "095122.672500", "095124.672500", "095126.672500", "095128.672500", "095130.672500", "095132.672500", "095134.672500", "095136.672500", "095138.672500", "095140.672500", "095142.672500", "095144.672500", "095146.672500", "095148.672500", "095150.672500", "095152.672500", "095154.672500", "095156.672500", "095158.672500", "095200.672500", "095202.672500", "095204.672500", "095206.672500", "095208.672500", "095210.672500", "095212.672500", "095214.672500", "095216.672500", "095218.672500"],
      "ContentTime": ["094439.548000", "094441.044000", "094443.043000", "094445.044000", "094447.043000", "094449.044000", "094451.044000", "094453.043000", "094455.044000", "094457.043000", "094459.043000", "094501.044000", "094503.043000", "094505.043000", "094507.044000", "094509.043000", "094511.044000", "094513.044000", "094515.043000", "094517.043000", "094519.043000", "094521.043000", "094523.045000", "094525.044000", "094527.043000", "094529.044000", "094531.043000", "094533.043000", "094535.044000", "094537.043000", "094539.043000", "094541.045000", "094543.043000", "094545.044000", "094547.044000", "094549.044000", "094551.043000", "094553.043000", "094555.043000", "094557.043000", "094559.044000", "094601.043000", "094603.043000", "094605.044000", "094607.043000", "094609.043000", "094611.043000", "094613.043000", "094615.044000", "094617.045000", "094619.044000", "094621.044000", "094623.043000", "094625.044000", "094627.043000", "094629.043000", "094631.043000", "094633.044000", "094635.045000", "094637.044000", "094639.044000", "094641.043000", "094643.043000", "094645.043000", "094647.043000", "094649.043000", "094651.044000", "094653.043000", "094655.043000", "094657.044000", "094659.043000", "094701.044000", "094703.043000", "094705.043000", "094707.044000", "094709.045000", "094711.043000", "094713.043000", "094715.043000", "094717.043000", "094719.044000", "094721.043000", "094723.043000", "094725.043000", "094727.045000", "094729.043000", "094731.044000", "094733.043000", "094735.043000", "094737.044000", "094739.043000", "094741.043000", "094743.044000", "094745.044000", "094747.043000", "094749.043000", "094751.043000", "094753.044000", "094755.044000", "094757.043000", "094759.043000", "094801.044000", "094803.044000", "094805.043000", "094807.043000", "094809.044000", "094811.043000", "094813.043000", "094815.044000", "094817.043000", "094819.044000", "094821.043000", "094823.043000", "094825.044000", "094827.043000", "094829.044000", "094831.044000", "094833.043000", "094835.044000", "094837.045000", "094839.044000", "094841.044000", "094843.044000", "094845.044000", "094847.043000", "094849.044000", "094851.043000", "094853.044000", "094855.045000", "094857.044000", "094859.043000", "094901.044000", "094903.043000", "094905.043000", "094907.044000", "094909.044000", "094911.045000", "094913.043000", "094915.044000", "094917.043000", "094919.044000", "094921.043000", "094923.043000", "094925.044000", "094927.044000", "094929.044000", "094931.044000", "094933.044000", "094935.043000", "094937.043000", "094939.044000", "094941.043000", "094943.044000", "094945.044000", "094947.044000", "094949.044000", "094951.043000", "094953.043000", "094955.044000", "094957.043000", "094959.043000", "095001.043000", "095003.044000", "095005.045000", "095007.043000", "095009.043000", "095011.044000", "095013.043000", "095015.043000", "095017.043000", "095019.043000", "095021.045000", "095023.044000", "095025.044000", "095027.043000", "095029.043000", "095031.043000", "095033.043000", "095035.044000", "095037.044000", "095039.044000", "095041.044000", "095043.044000", "095045.043000", "095047.044000", "095049.043000", "095051.044000", "095053.043000", "095055.043000", "095057.044000", "095059.043000", "095101.043000", "095103.043000", "095105.044000", "095107.044000", "095109.043000", "095111.043000", "095113.045000", "095115.053000", "095117.044000", "095119.044000", "095121.043000", "095123.044000", "095125.044000", "095127.043000", "095129.043000", "095131.044000", "095133.043000", "095135.043000", "095137.043000", "095139.043000", "095141.043000", "095143.044000", "095145.044000", "095147.044000", "095149.045000", "095151.043000", "095153.043000", "095155.043000", "095157.044000", "095159.043000", "095201.043000", "095203.043000", "095205.045000", "095207.045000", "095209.044000", "095211.043000", "095213.043000", "095215.044000", "095217.044000", "095219.043000", "095220.735000"],
      "InstanceCreationTime": ["094439.548000", "094441.044000", "094443.043000", "094445.044000", "094447.043000", "094449.044000", "094451.044000", "094453.043000", "094455.044000", "094457.043000", "094459.043000", "094501.044000", "094503.043000", "094505.043000", "094507.044000", "094509.043000", "094511.044000", "094513.044000", "094515.043000", "094517.043000", "094519.043000", "094521.043000", "094523.045000", "094525.044000", "094527.043000", "094529.044000", "094531.043000", "094533.043000", "094535.044000", "094537.043000", "094539.043000", "094541.045000", "094543.043000", "094545.044000", "094547.044000", "094549.044000", "094551.043000", "094553.043000", "094555.043000", "094557.043000", "094559.044000", "094601.043000", "094603.043000", "094605.044000", "094607.043000", "094609.043000", "094611.043000", "094613.043000", "094615.044000", "094617.045000", "094619.044000", "094621.044000", "094623.043000", "094625.044000", "094627.043000", "094629.043000", "094631.043000", "094633.044000", "094635.045000", "094637.044000", "094639.044000", "094641.043000", "094643.043000", "094645.043000", "094647.043000", "094649.043000", "094651.044000", "094653.043000", "094655.043000", "094657.044000", "094659.043000", "094701.044000", "094703.043000", "094705.043000", "094707.044000", "094709.045000", "094711.043000", "094713.043000", "094715.043000", "094717.043000", "094719.044000", "094721.043000", "094723.043000", "094725.043000", "094727.045000", "094729.043000", "094731.044000", "094733.043000", "094735.043000", "094737.044000", "094739.043000", "094741.043000", "094743.044000", "094745.044000", "094747.043000", "094749.043000", "094751.043000", "094753.044000", "094755.044000", "094757.043000", "094759.043000", "094801.044000", "094803.044000", "094805.043000", "094807.043000", "094809.044000", "094811.043000", "094813.043000", "094815.044000", "094817.043000", "094819.044000", "094821.043000", "094823.043000", "094825.044000", "094827.043000", "094829.044000", "094831.044000", "094833.043000", "094835.044000", "094837.045000", "094839.044000", "094841.044000", "094843.044000", "094845.044000", "094847.043000", "094849.044000", "094851.043000", "094853.044000", "094855.045000", "094857.044000", "094859.043000", "094901.044000", "094903.043000", "094905.043000", "094907.044000", "094909.044000", "094911.045000", "094913.043000", "094915.044000", "094917.043000", "094919.044000", "094921.043000", "094923.043000", "094925.044000", "094927.044000", "094929.044000", "094931.044000", "094933.044000", "094935.043000", "094937.043000", "094939.044000", "094941.043000", "094943.044000", "094945.044000", "094947.044000", "094949.044000", "094951.043000", "094953.043000", "094955.044000", "094957.043000", "094959.043000", "095001.043000", "095003.044000", "095005.045000", "095007.043000", "095009.043000", "095011.044000", "095013.043000", "095015.043000", "095017.043000", "095019.043000", "095021.045000", "095023.044000", "095025.044000", "095027.043000", "095029.043000", "095031.043000", "095033.043000", "095035.044000", "095037.044000", "095039.044000", "095041.044000", "095043.044000", "095045.043000", "095047.044000", "095049.043000", "095051.044000", "095053.043000", "095055.043000", "095057.044000", "095059.043000", "095101.043000", "095103.043000", "095105.044000", "095107.044000", "095109.043000", "095111.043000", "095113.045000", "095115.053000", "095117.044000", "095119.044000", "095121.043000", "095123.044000", "095125.044000", "095127.043000", "095129.043000", "095131.044000", "095133.043000", "095135.043000", "095137.043000", "095139.043000", "095141.043000", "095143.044000", "095145.044000", "095147.044000", "095149.045000", "095151.043000", "095153.043000", "095155.043000", "095157.044000", "095159.043000", "095201.043000", "095203.043000", "095205.045000", "095207.045000", "095209.044000", "095211.043000", "095213.043000", "095215.044000", "095217.044000", "095219.043000", "095220.735000"],
      "InstanceNumber": [1, 2, 3, 4, 5, 6, 7, 8, 9, 10, 11, 12, 13, 14, 15, 16, 17, 18, 19, 20, 21, 22, 23, 24, 25, 26, 27, 28, 29, 30, 31, 32, 33, 34, 35, 36, 37, 38, 39, 40, 41, 42, 43, 44, 45, 46, 47, 48, 49, 50, 51, 52, 53, 54, 55, 56, 57, 58, 59, 60, 61, 62, 63, 64, 65, 66, 67, 68, 69, 70, 71, 72, 73, 74, 75, 76, 77, 78, 79, 80, 81, 82, 83, 84, 85, 86, 87, 88, 89, 90, 91, 92, 93, 94, 95, 96, 97, 98, 99, 100, 101, 102, 103, 104, 105, 106, 107, 108, 109, 110, 111, 112, 113, 114, 115, 116, 117, 118, 119, 120, 121, 122, 123, 124, 125, 126, 127, 128, 129, 130, 131, 132, 133, 134, 135, 136, 137, 138, 139, 140, 141, 142, 143, 144, 145, 146, 147, 148, 149, 150, 151, 152, 153, 154, 155, 156, 157, 158, 159, 160, 161, 162, 163, 164, 165, 166, 167, 168, 169, 170, 171, 172, 173, 174, 175, 176, 177, 178, 179, 180, 181, 182, 183, 184, 185, 186, 187, 188, 189, 190, 191, 192, 193, 194, 195, 196, 197, 198, 199, 200, 201, 202, 203, 204, 205, 206, 207, 208, 209, 210, 211, 212, 213, 214, 215, 216, 217, 218, 219, 220, 221, 222, 223, 224, 225, 226, 227, 228, 229, 230, 231, 232],
      "LargestImagePixelValue": [3324, 3248, 3234, 3251, 3238, 3234, 3241, 3246, 3227, 3252, 3239, 3237, 3242, 3263, 3288, 3207, 3215, 3190, 3168, 3177, 3193, 3191, 3206, 3188, 3192, 3210, 3188, 3229, 3195, 3216, 3198, 3224, 3235, 3222, 3230, 3223, 3204, 3224, 3206, 3215, 3221, 3248, 3221, 3236, 3232, 3241, 3234, 3264, 3249, 3241, 3194, 3242, 3218, 3223, 3230, 3216, 3232, 3195, 3211, 3244, 3242, 3219, 3239, 3237, 3228, 3219, 3214, 3220, 3242, 3249, 3233, 3213, 3209, 3205, 3217, 3248, 3205, 3231, 3227, 3238, 3231, 3228, 3234, 3231, 3225, 3202, 3214, 3223, 3210, 3205, 3212, 3223, 3221, 3195, 3220, 3224, 3242, 3209, 3224, 3227, 3224, 3236, 3234, 3213, 3211, 3213, 3201, 3225, 3223, 3233, 3194, 3238, 3219, 3251, 3255, 3254, 3257, 3262, 3248, 3247, 3264, 3199, 3227, 3235, 3234, 3250, 3236, 3227, 3249, 3241, 3245, 3252, 3295, 3252, 3249, 3255, 3274, 3250, 3254, 3241, 3259, 3265, 3254, 3268, 3218, 3238, 3264, 3250, 3239, 3240, 3233, 3237, 3263, 3286, 3245, 3270, 3260, 3247, 3246, 3244, 3249, 3247, 3235, 3250, 3257, 3234, 3223, 3223, 3214, 3238, 3266, 3268, 3246, 3260, 3235, 3260, 3264, 3235, 3212, 3220, 3153, 3277, 3255, 3257, 3249, 3233, 3238, 3247, 3243, 3219, 3227, 3198, 3251, 3214, 3196, 3257, 3230, 3242, 3217, 3215, 3223, 3240, 3266, 3218, 3254, 3276, 3247, 3239, 3258, 3276, 3227, 3254, 3253, 3245, 3262, 3224, 3222, 3233, 3251, 3275, 3257, 3245, 3261, 3274, 3252, 3217, 3243, 3212, 3227, 3246, 3235, 3249],
      "WindowCenter": [742.0, 740.0, 739.0, 740.0, 740.0, 740.0, 740.0, 740.0, 740.0, 740.0, 740.0, 740.0, 740.0, 740.0, 740.0, 740.0, 740.0, 740.0, 740.0, 741.0, 742.0, 742.0, 741.0, 741.0, 741.0, 741.0, 741.0, 741.0, 740.0, 740.0, 741.0, 741.0, 742.0, 742.0, 742.0, 741.0, 740.0, 740.0, 739.0, 740.0, 740.0, 740.0, 741.0, 741.0, 741.0, 741.0, 741.0, 741.0, 741.0, 742.0, 741.0, 743.0, 742.0, 741.0, 740.0, 740.0, 741.0, 741.0, 741.0, 741.0, 740.0, 740.0, 740.0, 740.0, 739.0, 739.0, 739.0, 740.0, 740.0, 741.0, 740.0, 740.0, 740.0, 740.0, 741.0, 740.0, 740.0, 740.0, 740.0, 740.0, 741.0, 741.0, 741.0, 741.0, 741.0, 741.0, 741.0, 742.0, 742.0, 742.0, 742.0, 741.0, 741.0, 740.0, 740.0, 740.0, 740.0, 740.0, 741.0, 742.0, 741.0, 741.0, 740.0, 740.0, 741.0, 742.0, 742.0, 741.0, 741.0, 741.0, 740.0, 741.0, 740.0, 741.0, 742.0, 741.0, 741.0, 742.0, 741.0, 741.0, 741.0, 740.0, 740.0, 741.0, 741.0, 741.0, 742.0, 742.0, 742.0, 741.0, 741.0, 742.0, 744.0, 743.0, 742.0, 742.0, 742.0, 742.0, 742.0, 742.0, 742.0, 742.0, 743.0, 742.0, 743.0, 742.0, 742.0, 742.0, 742.0, 742.0, 741.0, 741.0, 742.0, 742.0, 742.0, 742.0, 741.0, 741.0, 741.0, 741.0, 742.0, 741.0, 741.0, 741.0, 741.0, 741.0, 741.0, 741.0, 741.0, 742.0, 743.0, 743.0, 743.0, 743.0, 744.0, 743.0, 742.0, 742.0, 741.0, 742.0, 741.0, 744.0, 742.0, 742.0, 741.0, 741.0, 741.0, 741.0, 741.0, 740.0, 741.0, 741.0, 743.0, 742.0, 741.0, 741.0, 741.0, 741.0, 741.0, 741.0, 742.0, 742.0, 743.0, 742.0, 742.0, 742.0, 742.0, 742.0, 742.0, 743.0, 742.0, 742.0, 742.0, 742.0, 742.0, 741.0, 740.0, 740.0, 741.0, 741.0, 741.0, 740.0, 741.0, 742.0, 742.0, 741.0, 741.0, 741.0, 741.0, 741.0, 742.0, 742.0],
      "WindowWidth": [1606.0, 1600.0, 1599.0, 1601.0, 1601.0, 1602.0, 1602.0, 1602.0, 1601.0, 1601.0, 1601.0, 1602.0, 1601.0, 1600.0, 1601.0, 1600.0, 1601.0, 1601.0, 1601.0, 1604.0, 1605.0, 1607.0, 1605.0, 1603.0, 1603.0, 1603.0, 1603.0, 1603.0, 1602.0, 1602.0, 1603.0, 1605.0, 1607.0, 1606.0, 1605.0, 1603.0, 1601.0, 1600.0, 1598.0, 1600.0, 1602.0, 1601.0, 1603.0, 1603.0, 1605.0, 1605.0, 1604.0, 1604.0, 1604.0, 1606.0, 1605.0, 1609.0, 1607.0, 1603.0, 1602.0, 1601.0, 1603.0, 1603.0, 1604.0, 1603.0, 1602.0, 1600.0, 1601.0, 1600.0, 1598.0, 1598.0, 1599.0, 1601.0, 1602.0, 1603.0, 1602.0, 1601.0, 1601.0, 1602.0, 1603.0, 1601.0, 1601.0, 1600.0, 1601.0, 1602.0, 1604.0, 1604.0, 1605.0, 1605.0, 1604.0, 1604.0, 1604.0, 1605.0, 1606.0, 1605.0, 1606.0, 1604.0, 1603.0, 1601.0, 1602.0, 1601.0, 1601.0, 1601.0, 1603.0, 1606.0, 1604.0, 1603.0, 1602.0, 1602.0, 1604.0, 1605.0, 1606.0, 1604.0, 1603.0, 1603.0, 1600.0, 1603.0, 1602.0, 1604.0, 1605.0, 1605.0, 1605.0, 1605.0, 1605.0, 1603.0, 1604.0, 1601.0, 1601.0, 1603.0, 1604.0, 1605.0, 1606.0, 1607.0, 1606.0, 1604.0, 1605.0, 1607.0, 1611.0, 1608.0, 1606.0, 1607.0, 1606.0, 1607.0, 1606.0, 1606.0, 1606.0, 1607.0, 1609.0, 1608.0, 1608.0, 1607.0, 1608.0, 1607.0, 1606.0, 1606.0, 1605.0, 1605.0, 1606.0, 1607.0, 1607.0, 1607.0, 1605.0, 1602.0, 1604.0, 1605.0, 1606.0, 1604.0, 1604.0, 1602.0, 1603.0, 1603.0, 1602.0, 1603.0, 1603.0, 1605.0, 1608.0, 1609.0, 1608.0, 1611.0, 1611.0, 1609.0, 1605.0, 1605.0, 1603.0, 1606.0, 1603.0, 1611.0, 1606.0, 1606.0, 1605.0, 1605.0, 1605.0, 1603.0, 1602.0, 1601.0, 1603.0, 1605.0, 1609.0, 1608.0, 1605.0, 1603.0, 1603.0, 1603.0, 1603.0, 1605.0, 1605.0, 1606.0, 1610.0, 1605.0, 1606.0, 1607.0, 1606.0, 1606.0, 1607.0, 1608.0, 1607.0, 1607.0, 1606.0, 1605.0, 1606.0, 1604.0, 1602.0, 1602.0, 1603.0, 1603.0, 1603.0, 1601.0, 1603.0, 1606.0, 1606.0, 1604.0, 1604.0, 1603.0, 1604.0, 1603.0, 1605.0, 1606.0]
    },
    "slices": {}
  }
}