{
  "AcquisitionMatrixPE": 100,
  "AcquisitionNumber": 1,
  "AcquisitionTime": "09:53:3.415000",
  "BandwidthPerPixelPhaseEncode": 18.519,
  "BaseResolution": 100,
  "BodyPartExamined": "BRAIN",
  "ConsistencyInfo": "N4_VE11C_LATEST_20160120",
  "ConversionSoftware": "dcm2niix",
  "ConversionSoftwareVersion": "v1.0.20180622 GCC4.9.2",
  "DerivedVendorReportedEchoSpacing": 0.000539986,
  "DeviceSerialNumber": "166078",
  "DwellTime": 2.1e-06,
  "EchoTime": 0.034,
  "EchoTrainLength": 100,
  "EffectiveEchoSpacing": 0.000539986,
  "FlipAngle": 90,
  "ImageOrientationPatientDICOM": [0.999963, 0.000993704, 0.00858827, 2.39008e-08, 0.993372, -0.114941],
  "ImageType": [
    "ORIGINAL",
    "PRIMARY",
    "M",
    "ND",
    "MOSAIC"
],
  "InPlanePhaseEncodingDirectionDICOM": "COL",
  "InstitutionAddress": "Street_StreetNo_Bei_Jing_District_CN_ZIP",
  "InstitutionName": "BeiJing_Normal_University",
  "InstitutionalDepartmentName": "Department",
  "MRAcquisitionType": "2D",
  "MagneticFieldStrength": 3,
  "Manufacturer": "Siemens",
  "ManufacturersModelName": "Prisma",
  "Modality": "MR",
  "MultibandAccelerationFactor": 3,
  "PartialFourier": 1,
  "PatientPosition": "HFS",
  "PercentPhaseFOV": 100,
  "PhaseEncodingDirection": "j-",
  "PhaseEncodingSteps": 100,
  "PhaseResolution": 1,
  "PixelBandwidth": 2380,
  "ProcedureStepDescription": "BNU_P2018_64CH_Liu.Jia",
  "ProtocolName": "bold_100x100_s3_2x2x2_232",
  "PulseSequenceDetails": "%SiemensSeq%_ep2d_bold",
  "ReceiveCoilActiveElements": "HC1-7;NC1",
  "ReceiveCoilName": "HeadNeck_64",
  "ReconMatrixPE": 100,
  "RepetitionTime": 2,
  "SAR": 0.0638523,
  "ScanOptions": "FS",
  "ScanningSequence": "EP",
  "SequenceName": "_epfid2d1_100",
  "SequenceVariant": "SK",
  "SeriesDescription": "bold_100x100_s3_2x2x2_232",
  "SeriesNumber": 10,
  "ShimSetting": [-5455, -11490, -1271, 411, -30, -285, -147, 12],
  "SliceThickness": 2,
  "SliceTiming": [1.485, 0, 0.99, 0.0825, 1.0725, 0.165, 1.155, 0.2475, 1.2375, 0.33, 1.32, 0.4125, 1.4025, 0.5775, 1.5675, 0.66, 1.6475, 0.7425, 1.73, 0.825, 1.8125, 0.9075, 1.895, 0.495, 1.485, 0, 0.99, 0.0825, 1.0725, 0.165, 1.155, 0.2475, 1.2375, 0.33, 1.32, 0.4125, 1.4025, 0.5775, 1.5675, 0.66, 1.6475, 0.7425, 1.73, 0.825, 1.8125, 0.9075, 1.895, 0.495, 1.485, 0, 0.99, 0.0825, 1.0725, 0.165, 1.155, 0.2475, 1.2375, 0.33, 1.32, 0.4125, 1.4025, 0.5775, 1.5675, 0.66, 1.6475, 0.7425, 1.73, 0.825, 1.8125, 0.9075, 1.895, 0.495],
  "SoftwareVersions": "syngo_MR_E11",
  "SpacingBetweenSlices": 2,
  "StationName": "AWP166078",
  "TaskName": "motor",
  "TotalReadoutTime": 0.0534586,
  "TxRefAmp": 211.466,
  "dcmmeta_affine": [
    [-1.9999252557754517, 4.780156359629473e-08, 0.017291132360696793, 100.71675109863281],
    [-0.0019874079152941704, 1.9867446422576904, -0.2298728972673416, -84.64287567138672],
    [0.017176536843180656, 0.22988148033618927, 1.9866704940795898, -85.23290252685547],
    [0.0, 0.0, 0.0, 1.0]
],
  "dcmmeta_reorient_transform": [
    [0.0, -1.0, 0.0, 99.0],
    [1.0, 0.0, 0.0, 0.0],
    [0.0, 0.0, 1.0, 0.0],
    [0.0, 0.0, 0.0, 1.0]
],
  "dcmmeta_shape": [100, 100, 72, 232],
  "dcmmeta_slice_dim": 2,
  "dcmmeta_version": 0.6,
  "global": {
    "const": {
      "AcquisitionMatrix": [100, 0, 0, 100],
      "AngioFlag": "N",
      "BitsAllocated": 16,
      "BitsStored": 12,
      "BodyPartExamined": "BRAIN",
      "Columns": 900,
      "EchoNumbers": 1,
      "EchoTime": 34.0,
      "EchoTrainLength": 100,
      "FlipAngle": 90.0,
      "HighBit": 11,
      "ImageOrientationPatient": [0.99996262639821, 0.00099370401483, 0.00858826869241, 2.3900781e-08, 0.99337234982496, -0.1149407438781],
      "ImagePositionPatient": [-900.6868742346, -907.53769621277, 22.607341497657],
      "ImageType": [
        "ORIGINAL",
        "PRIMARY",
        "M",
        "ND",
        "MOSAIC"
],
      "ImagedNucleus": "1H",
      "ImagingFrequency": 123.257839,
      "InPlanePhaseEncodingDirection": "COL",
      "MRAcquisitionType": "2D",
      "MagneticFieldStrength": 3.0,
      "Manufacturer": "SIEMENS",
      "ManufacturerModelName": "Prisma",
      "Modality": "MR",
      "NumberOfAverages": 1.0,
      "NumberOfPhaseEncodingSteps": 100,
      "PercentPhaseFieldOfView": 100.0,
      "PercentSampling": 100.0,
      "PerformedProcedureStepStartTime": "090445.174000",
      "PhotometricInterpretation": "MONOCHROME2",
      "PixelBandwidth": 2380.0,
      "PixelRepresentation": 0,
      "PixelSpacing": [2.0, 2.0],
      "ProtocolName": "bold_100x100_s3_2x2x2_232",
      "RepetitionTime": 2000.0,
      "Rows": 900,
      "SAR": 0.06385228198964,
      "SamplesPerPixel": 1,
      "ScanOptions": "FS",
      "ScanningSequence": "EP",
      "SequenceName": "*epfid2d1_100",
      "SequenceVariant": "SK",
      "SeriesDescription": "bold_100x100_s3_2x2x2_232",
      "SeriesNumber": 10,
      "SeriesTime": "095305.965000",
      "SliceLocation": -74.0655433295,
      "SliceThickness": 2.0,
      "SmallestImagePixelValue": 0,
      "SoftwareVersions": "syngo MR E11",
      "SpacingBetweenSlices": 2.0000000340706,
      "SpecificCharacterSet": "ISO_IR 100",
      "StudyID": "1",
      "StudyTime": "090445.030000",
      "TransmitCoilName": "Body",
      "VariableFlipAngleFlag": "N",
      "WindowCenterWidthExplanation": "Algo1",
      "dBdt": 0.0},
    "slices": {}
  },
  "time": {
    "samples": {
      "AcquisitionNumber": [1, 2, 3, 4, 5, 6, 7, 8, 9, 10, 11, 12, 13, 14, 15, 16, 17, 18, 19, 20, 21, 22, 23, 24, 25, 26, 27, 28, 29, 30, 31, 32, 33, 34, 35, 36, 37, 38, 39, 40, 41, 42, 43, 44, 45, 46, 47, 48, 49, 50, 51, 52, 53, 54, 55, 56, 57, 58, 59, 60, 61, 62, 63, 64, 65, 66, 67, 68, 69, 70, 71, 72, 73, 74, 75, 76, 77, 78, 79, 80, 81, 82, 83, 84, 85, 86, 87, 88, 89, 90, 91, 92, 93, 94, 95, 96, 97, 98, 99, 100, 101, 102, 103, 104, 105, 106, 107, 108, 109, 110, 111, 112, 113, 114, 115, 116, 117, 118, 119, 120, 121, 122, 123, 124, 125, 126, 127, 128, 129, 130, 131, 132, 133, 134, 135, 136, 137, 138, 139, 140, 141, 142, 143, 144, 145, 146, 147, 148, 149, 150, 151, 152, 153, 154, 155, 156, 157, 158, 159, 160, 161, 162, 163, 164, 165, 166, 167, 168, 169, 170, 171, 172, 173, 174, 175, 176, 177, 178, 179, 180, 181, 182, 183, 184, 185, 186, 187, 188, 189, 190, 191, 192, 193, 194, 195, 196, 197, 198, 199, 200, 201, 202, 203, 204, 205, 206, 207, 208, 209, 210, 211, 212, 213, 214, 215, 216, 217, 218, 219, 220, 221, 222, 223, 224, 225, 226, 227, 228, 229, 230, 231, 232],
      "AcquisitionTime": ["095303.415000", "095305.415000", "095307.415000", "095309.415000", "095311.415000", "095313.415000", "095315.415000", "095317.415000", "095319.415000", "095321.415000", "095323.415000", "095325.415000", "095327.415000", "095329.415000", "095331.415000", "095333.415000", "095335.415000", "095337.415000", "095339.415000", "095341.415000", "095343.415000", "095345.415000", "095347.415000", "095349.415000", "095351.415000", "095353.415000", "095355.415000", "095357.415000", "095359.415000", "095401.415000", "095403.415000", "095405.415000", "095407.415000", "095409.415000", "095411.415000", "095413.415000", "095415.415000", "095417.415000", "095419.415000", "095421.415000", "095423.415000", "095425.415000", "095427.415000", "095429.415000", "095431.415000", "095433.415000", "095435.415000", "095437.415000", "095439.415000", "095441.415000", "095443.415000", "095445.415000", "095447.415000", "095449.415000", "095451.415000", "095453.415000", "095455.415000", "095457.415000", "095459.415000", "095501.415000", "095503.415000", "095505.415000", "095507.415000", "095509.415000", "095511.415000", "095513.415000", "095515.415000", "095517.415000", "095519.415000", "095521.415000", "095523.415000", "095525.415000", "095527.415000", "095529.415000", "095531.415000", "095533.415000", "095535.415000", "095537.415000", "095539.415000", "095541.415000", "095543.415000", "095545.415000", "095547.415000", "095549.415000", "095551.415000", "095553.415000", "095555.415000", "095557.415000", "095559.415000", "095601.415000", "095603.415000", "095605.415000", "095607.415000", "095609.415000", "095611.415000", "095613.415000", "095615.415000", "095617.415000", "095619.415000", "095621.415000", "095623.415000", "095625.415000", "095627.415000", "095629.415000", "095631.415000", "095633.415000", "095635.415000", "095637.415000", "095639.415000", "095641.415000", "095643.415000", "095645.415000", "095647.415000", "095649.415000", "095651.415000", "095653.415000", "095655.415000", "095657.415000", "095659.415000", "095701.415000", "095703.415000", "095705.415000", "095707.415000", "095709.415000", "095711.415000", "095713.415000", "095715.415000", "095717.415000", "095719.415000", "095721.415000", "095723.415000", "095725.415000", "095727.415000", "095729.415000", "095731.415000", "095733.415000", "095735.415000", "095737.415000", "095739.415000", "095741.415000", "095743.415000", "095745.415000", "095747.415000", "095749.415000", "095751.415000", "095753.415000", "095755.415000", "095757.415000", "095759.415000", "095801.415000", "095803.415000", "095805.415000", "095807.415000", "095809.415000", "095811.415000", "095813.415000", "095815.415000", "095817.415000", "095819.415000", "095821.415000", "095823.415000", "095825.415000", "095827.415000", "095829.415000", "095831.415000", "095833.415000", "095835.415000", "095837.415000", "095839.415000", "095841.415000", "095843.415000", "095845.415000", "095847.415000", "095849.415000", "095851.415000", "095853.415000", "095855.415000", "095857.415000", "095859.415000", "095901.415000", "095903.415000", "095905.415000", "095907.415000", "095909.415000", "095911.415000", "095913.415000", "095915.415000", "095917.415000", "095919.415000", "095921.415000", "095923.415000", "095925.415000", "095927.415000", "095929.415000", "095931.415000", "095933.415000", "095935.415000", "095937.415000", "095939.415000", "095941.415000", "095943.415000", "095945.415000", "095947.415000", "095949.415000", "095951.415000", "095953.415000", "095955.415000", "095957.415000", "095959.415000", "100001.415000", "100003.415000", "100005.415000", "100007.415000", "100009.415000", "100011.415000", "100013.415000", "100015.415000", "100017.415000", "100019.415000", "100021.415000", "100023.415000", "100025.415000", "100027.415000", "100029.415000", "100031.415000", "100033.415000", "100035.415000", "100037.415000", "100039.415000", "100041.415000", "100043.415000", "100045.415000"],
      "ContentTime": ["095305.969000", "095307.465000", "095309.464000", "095311.465000", "095313.464000", "095315.464000", "095317.464000", "095319.464000", "095321.464000", "095323.964000", "095325.464000", "095327.464000", "095329.464000", "095331.464000", "095333.464000", "095335.464000", "095337.464000", "095339.465000", "095341.464000", "095343.464000", "095345.465000", "095347.464000", "095349.463000", "095351.464000", "095353.464000", "095355.465000", "095357.464000", "095359.464000", "095401.464000", "095403.464000", "095405.464000", "095407.464000", "095409.464000", "095411.464000", "095413.464000", "095415.464000", "095417.465000", "095419.464000", "095421.464000", "095423.464000", "095425.465000", "095427.464000", "095429.464000", "095431.464000", "095433.464000", "095435.464000", "095437.465000", "095439.465000", "095441.465000", "095443.465000", "095445.465000", "095447.464000", "095449.464000", "095451.464000", "095453.464000", "095455.464000", "095457.464000", "095459.464000", "095501.464000", "095503.464000", "095505.464000", "095507.464000", "095509.464000", "095511.464000", "095513.465000", "095515.465000", "095517.464000", "095519.464000", "095521.464000", "095523.464000", "095525.465000", "095527.465000", "095529.465000", "095531.464000", "095533.464000", "095535.464000", "095537.965000", "095539.464000", "095541.465000", "095543.465000", "095545.464000", "095547.465000", "095549.465000", "095551.464000", "095553.464000", "095555.465000", "095557.464000", "095559.464000", "095601.464000", "095603.464000", "095605.464000", "095607.464000", "095609.463000", "095611.464000", "095613.465000", "095615.464000", "095617.464000", "095619.464000", "095621.464000", "095623.464000", "095625.464000", "095627.464000", "095629.464000", "095631.465000", "095633.464000", "095635.465000", "095637.464000", "095639.964000", "095641.465000", "095643.464000", "095645.465000", "095647.464000", "095649.464000", "095651.465000", "095653.464000", "095655.464000", "095657.464000", "095659.464000", "095701.464000", "095703.464000", "095705.465000", "095707.464000", "095709.464000", "095711.465000", "095713.465000", "095715.464000", "095717.464000", "095719.463000", "095721.465000", "095723.464000", "095725.464000", "095727.964000", "095729.464000", "095731.464000", "095733.464000", "095735.465000", "095737.464000", "095739.464000", "095741.465000", "095743.464000", "095745.464000", "095747.964000", "095749.465000", "095751.464000", "095753.464000", "095755.465000", "095757.464000", "095759.465000", "095801.465000", "095803.464000", "095805.464000", "095807.464000", "095809.464000", "095811.465000", "095813.464000", "095815.464000", "095817.465000", "095819.464000", "095821.465000", "095823.465000", "095825.464000", "095827.464000", "095829.463000", "095831.464000", "095833.964000", "095835.465000", "095837.465000", "095839.465000", "095841.485000", "095843.465000", "095845.465000", "095847.464000", "095849.464000", "095851.464000", "095853.964000", "095855.464000", "095857.464000", "095859.464000", "095901.464000", "095903.465000", "095905.464000", "095907.464000", "095909.465000", "095911.464000", "095913.464000", "095915.465000", "095917.465000", "095919.464000", "095921.465000", "095923.464000", "095925.965000", "095927.464000", "095929.464000", "095931.464000", "095933.465000", "095935.464000", "095937.464000", "095939.463000", "095941.465000", "095943.465000", "095945.464000", "095947.464000", "095949.464000", "095951.464000", "095953.465000", "095955.464000", "095957.465000", "095959.465000", "100001.465000", "100003.465000", "100005.464000", "100007.464000", "100009.464000", "100011.964000", "100013.464000", "100015.465000", "100017.464000", "100019.465000", "100021.465000", "100023.464000", "100025.464000", "100027.465000", "100029.464000", "100031.464000", "100033.465000", "100035.464000", "100037.464000", "100039.464000", "100041.964000", "100043.464000", "100045.964000", "100047.352000"],
      "InstanceCreationTime": ["095305.969000", "095307.465000", "095309.464000", "095311.465000", "095313.464000", "095315.464000", "095317.464000", "095319.464000", "095321.464000", "095323.964000", "095325.464000", "095327.464000", "095329.464000", "095331.464000", "095333.464000", "095335.464000", "095337.464000", "095339.465000", "095341.464000", "095343.464000", "095345.465000", "095347.464000", "095349.463000", "095351.464000", "095353.464000", "095355.465000", "095357.464000", "095359.464000", "095401.464000", "095403.464000", "095405.464000", "095407.464000", "095409.464000", "095411.464000", "095413.464000", "095415.464000", "095417.465000", "095419.464000", "095421.464000", "095423.464000", "095425.465000", "095427.464000", "095429.464000", "095431.464000", "095433.464000", "095435.464000", "095437.465000", "095439.465000", "095441.465000", "095443.465000", "095445.465000", "095447.464000", "095449.464000", "095451.464000", "095453.464000", "095455.464000", "095457.464000", "095459.464000", "095501.464000", "095503.464000", "095505.464000", "095507.464000", "095509.464000", "095511.464000", "095513.465000", "095515.465000", "095517.464000", "095519.464000", "095521.464000", "095523.464000", "095525.465000", "095527.465000", "095529.465000", "095531.464000", "095533.464000", "095535.464000", "095537.965000", "095539.464000", "095541.465000", "095543.465000", "095545.464000", "095547.465000", "095549.465000", "095551.464000", "095553.464000", "095555.465000", "095557.464000", "095559.464000", "095601.464000", "095603.464000", "095605.464000", "095607.464000", "095609.463000", "095611.464000", "095613.465000", "095615.464000", "095617.464000", "095619.464000", "095621.464000", "095623.464000", "095625.464000", "095627.464000", "095629.464000", "095631.465000", "095633.464000", "095635.465000", "095637.464000", "095639.964000", "095641.465000", "095643.464000", "095645.465000", "095647.464000", "095649.464000", "095651.465000", "095653.464000", "095655.464000", "095657.464000", "095659.464000", "095701.464000", "095703.464000", "095705.465000", "095707.464000", "095709.464000", "095711.465000", "095713.465000", "095715.464000", "095717.464000", "095719.463000", "095721.465000", "095723.464000", "095725.464000", "095727.964000", "095729.464000", "095731.464000", "095733.464000", "095735.465000", "095737.464000", "095739.464000", "095741.465000", "095743.464000", "095745.464000", "095747.964000", "095749.465000", "095751.464000", "095753.464000", "095755.465000", "095757.464000", "095759.465000", "095801.465000", "095803.464000", "095805.464000", "095807.464000", "095809.464000", "095811.465000", "095813.464000", "095815.464000", "095817.465000", "095819.464000", "095821.465000", "095823.465000", "095825.464000", "095827.464000", "095829.463000", "095831.464000", "095833.964000", "095835.465000", "095837.465000", "095839.465000", "095841.485000", "095843.465000", "095845.465000", "095847.464000", "095849.464000", "095851.464000", "095853.964000", "095855.464000", "095857.464000", "095859.464000", "095901.464000", "095903.465000", "095905.464000", "095907.464000", "095909.465000", "095911.464000", "095913.464000", "095915.465000", "095917.465000", "095919.464000", "095921.465000", "095923.464000", "095925.965000", "095927.464000", "095929.464000", "095931.464000", "095933.465000", "095935.464000", "095937.464000", "095939.463000", "095941.465000", "095943.465000", "095945.464000", "095947.464000", "095949.464000", "095951.464000", "095953.465000", "095955.464000", "095957.465000", "095959.465000", "100001.465000", "100003.465000", "100005.464000", "100007.464000", "100009.464000", "100011.964000", "100013.464000", "100015.465000", "100017.464000", "100019.465000", "100021.465000", "100023.464000", "100025.464000", "100027.465000", "100029.464000", "100031.464000", "100033.465000", "100035.464000", "100037.464000", "100039.464000", "100041.964000", "100043.464000", "100045.964000", "100047.352000"],
      "InstanceNumber": [1, 2, 3, 4, 5, 6, 7, 8, 9, 10, 11, 12, 13, 14, 15, 16, 17, 18, 19, 20, 21, 22, 23, 24, 25, 26, 27, 28, 29, 30, 31, 32, 33, 34, 35, 36, 37, 38, 39, 40, 41, 42, 43, 44, 45, 46, 47, 48, 49, 50, 51, 52, 53, 54, 55, 56, 57, 58, 59, 60, 61, 62, 63, 64, 65, 66, 67, 68, 69, 70, 71, 72, 73, 74, 75, 76, 77, 78, 79, 80, 81, 82, 83, 84, 85, 86, 87, 88, 89, 90, 91, 92, 93, 94, 95, 96, 97, 98, 99, 100, 101, 102, 103, 104, 105, 106, 107, 108, 109, 110, 111, 112, 113, 114, 115, 116, 117, 118, 119, 120, 121, 122, 123, 124, 125, 126, 127, 128, 129, 130, 131, 132, 133, 134, 135, 136, 137, 138, 139, 140, 141, 142, 143, 144, 145, 146, 147, 148, 149, 150, 151, 152, 153, 154, 155, 156, 157, 158, 159, 160, 161, 162, 163, 164, 165, 166, 167, 168, 169, 170, 171, 172, 173, 174, 175, 176, 177, 178, 179, 180, 181, 182, 183, 184, 185, 186, 187, 188, 189, 190, 191, 192, 193, 194, 195, 196, 197, 198, 199, 200, 201, 202, 203, 204, 205, 206, 207, 208, 209, 210, 211, 212, 213, 214, 215, 216, 217, 218, 219, 220, 221, 222, 223, 224, 225, 226, 227, 228, 229, 230, 231, 232],
      "LargestImagePixelValue": [3330, 3297, 3255, 3264, 3243, 3274, 3251, 3252, 3241, 3255, 3229, 3230, 3238, 3232, 3246, 3236, 3242, 3249, 3253, 3223, 3263, 3236, 3282, 3288, 3228, 3197, 3163, 3194, 3215, 3198, 3167, 3188, 3212, 3194, 3168, 3125, 3162, 3162, 3144, 3171, 3178, 3154, 3153, 3140, 3121, 3121, 3132, 3128, 3126, 3137, 3215, 3258, 3175, 3190, 3189, 3227, 3203, 3207, 3220, 3209, 3193, 3209, 3188, 3232, 3194, 3160, 3208, 3213, 3209, 3213, 3216, 3231, 3228, 3194, 3208, 3211, 3225, 3239, 3228, 3248, 3238, 3228, 3209, 3234, 3225, 3238, 3245, 3227, 3247, 3226, 3243, 3243, 3242, 3255, 3245, 3226, 3246, 3234, 3219, 3220, 3234, 3232, 3233, 3202, 3265, 3237, 3263, 3254, 3280, 3254, 3287, 3240, 3277, 3272, 3248, 3251, 3239, 3234, 3241, 3240, 3250, 3240, 3217, 3214, 3241, 3245, 3263, 3233, 3247, 3235, 3252, 3238, 3256, 3255, 3264, 3251, 3258, 3265, 3242, 3246, 3265, 3256, 3232, 3207, 3253, 3244, 3260, 3237, 3265, 3262, 3241, 3235, 3232, 3253, 3267, 3252, 3230, 3235, 3235, 3251, 3209, 3250, 3235, 3263, 3270, 3269, 3265, 3266, 3250, 3255, 3281, 3263, 3252, 3258, 3268, 3264, 3258, 3238, 3219, 3218, 3238, 3226, 3218, 3218, 3228, 3220, 3220, 3254, 3245, 3224, 3268, 3262, 3255, 3237, 3238, 3235, 3230, 3231, 3260, 3255, 3237, 3238, 3231, 3254, 3242, 3244, 3250, 3241, 3239, 3267, 3238, 3264, 3209, 3232, 3258, 3212, 3210, 3226, 3236, 3246, 3245, 3262, 3228, 3262, 3217, 3249, 3262, 3267, 3256, 3247, 3230, 3223],
      "WindowCenter": [744.0, 743.0, 742.0, 742.0, 742.0, 742.0, 741.0, 741.0, 741.0, 741.0, 741.0, 741.0, 742.0, 742.0, 742.0, 741.0, 741.0, 741.0, 741.0, 741.0, 741.0, 741.0, 741.0, 741.0, 741.0, 741.0, 740.0, 741.0, 741.0, 741.0, 740.0, 740.0, 740.0, 740.0, 740.0, 740.0, 742.0, 742.0, 740.0, 740.0, 740.0, 740.0, 740.0, 740.0, 739.0, 739.0, 739.0, 739.0, 739.0, 739.0, 740.0, 741.0, 740.0, 741.0, 741.0, 741.0, 741.0, 741.0, 741.0, 740.0, 739.0, 739.0, 740.0, 740.0, 739.0, 739.0, 740.0, 741.0, 740.0, 740.0, 740.0, 740.0, 740.0, 740.0, 740.0, 741.0, 740.0, 740.0, 740.0, 740.0, 741.0, 741.0, 741.0, 742.0, 742.0, 742.0, 742.0, 741.0, 741.0, 741.0, 742.0, 742.0, 741.0, 740.0, 740.0, 741.0, 741.0, 741.0, 740.0, 740.0, 741.0, 742.0, 741.0, 740.0, 740.0, 739.0, 740.0, 741.0, 742.0, 742.0, 743.0, 742.0, 742.0, 742.0, 741.0, 742.0, 742.0, 742.0, 741.0, 741.0, 740.0, 741.0, 741.0, 742.0, 742.0, 742.0, 741.0, 740.0, 740.0, 740.0, 740.0, 741.0, 740.0, 741.0, 741.0, 742.0, 741.0, 741.0, 742.0, 741.0, 741.0, 742.0, 742.0, 741.0, 742.0, 742.0, 742.0, 741.0, 741.0, 740.0, 741.0, 740.0, 740.0, 741.0, 741.0, 741.0, 740.0, 740.0, 740.0, 740.0, 740.0, 741.0, 740.0, 741.0, 742.0, 741.0, 741.0, 740.0, 740.0, 740.0, 741.0, 741.0, 740.0, 740.0, 741.0, 742.0, 741.0, 741.0, 741.0, 741.0, 741.0, 741.0, 740.0, 740.0, 740.0, 740.0, 740.0, 740.0, 739.0, 739.0, 740.0, 740.0, 740.0, 740.0, 740.0, 741.0, 741.0, 741.0, 741.0, 741.0, 741.0, 741.0, 742.0, 743.0, 743.0, 743.0, 743.0, 742.0, 741.0, 740.0, 741.0, 741.0, 740.0, 738.0, 740.0, 739.0, 740.0, 740.0, 740.0, 740.0, 740.0, 740.0, 740.0, 741.0, 742.0, 743.0, 743.0, 742.0, 740.0, 739.0, 739.0, 739.0],
      "WindowWidth": [1612.0, 1609.0, 1608.0, 1608.0, 1608.0, 1607.0, 1604.0, 1603.0, 1603.0, 1605.0, 1604.0, 1605.0, 1606.0, 1607.0, 1606.0, 1605.0, 1605.0, 1604.0, 1604.0, 1603.0, 1603.0, 1603.0, 1604.0, 1605.0, 1604.0, 1603.0, 1603.0, 1603.0, 1603.0, 1603.0, 1601.0, 1601.0, 1602.0, 1601.0, 1601.0, 1603.0, 1607.0, 1606.0, 1602.0, 1602.0, 1602.0, 1603.0, 1603.0, 1601.0, 1600.0, 1599.0, 1599.0, 1599.0, 1598.0, 1598.0, 1600.0, 1604.0, 1602.0, 1603.0, 1603.0, 1604.0, 1604.0, 1603.0, 1603.0, 1601.0, 1600.0, 1599.0, 1600.0, 1601.0, 1599.0, 1599.0, 1602.0, 1603.0, 1602.0, 1602.0, 1602.0, 1602.0, 1601.0, 1602.0, 1602.0, 1604.0, 1602.0, 1602.0, 1602.0, 1602.0, 1604.0, 1605.0, 1604.0, 1607.0, 1606.0, 1605.0, 1606.0, 1605.0, 1605.0, 1604.0, 1606.0, 1608.0, 1604.0, 1602.0, 1602.0, 1604.0, 1603.0, 1602.0, 1602.0, 1602.0, 1604.0, 1606.0, 1603.0, 1602.0, 1601.0, 1599.0, 1599.0, 1603.0, 1607.0, 1606.0, 1608.0, 1606.0, 1606.0, 1606.0, 1604.0, 1605.0, 1606.0, 1606.0, 1604.0, 1602.0, 1602.0, 1602.0, 1603.0, 1606.0, 1607.0, 1606.0, 1604.0, 1601.0, 1600.0, 1601.0, 1602.0, 1603.0, 1601.0, 1603.0, 1604.0, 1606.0, 1605.0, 1604.0, 1606.0, 1605.0, 1604.0, 1605.0, 1605.0, 1604.0, 1607.0, 1605.0, 1606.0, 1605.0, 1604.0, 1602.0, 1603.0, 1601.0, 1601.0, 1603.0, 1603.0, 1603.0, 1601.0, 1601.0, 1602.0, 1601.0, 1600.0, 1602.0, 1602.0, 1603.0, 1605.0, 1604.0, 1604.0, 1602.0, 1602.0, 1601.0, 1602.0, 1602.0, 1600.0, 1602.0, 1604.0, 1605.0, 1603.0, 1603.0, 1602.0, 1604.0, 1605.0, 1604.0, 1601.0, 1602.0, 1602.0, 1601.0, 1600.0, 1600.0, 1599.0, 1599.0, 1602.0, 1600.0, 1602.0, 1601.0, 1602.0, 1605.0, 1604.0, 1604.0, 1604.0, 1604.0, 1603.0, 1603.0, 1606.0, 1608.0, 1608.0, 1610.0, 1609.0, 1606.0, 1603.0, 1602.0, 1602.0, 1604.0, 1600.0, 1596.0, 1601.0, 1599.0, 1600.0, 1600.0, 1600.0, 1600.0, 1600.0, 1601.0, 1601.0, 1603.0, 1606.0, 1610.0, 1610.0, 1605.0, 1600.0, 1597.0, 1598.0, 1598.0]
    },
    "slices": {}
  }
}