{
  "AcquisitionMatrixPE": 100,
  "AcquisitionNumber": 1,
  "AcquisitionTime": "09:36:12.410000",
  "BandwidthPerPixelPhaseEncode": 18.519,
  "BaseResolution": 100,
  "BodyPartExamined": "BRAIN",
  "ConsistencyInfo": "N4_VE11C_LATEST_20160120",
  "ConversionSoftware": "dcm2niix",
  "ConversionSoftwareVersion": "v1.0.20180622 GCC4.9.2",
  "DerivedVendorReportedEchoSpacing": 0.000539986,
  "DeviceSerialNumber": "166078",
  "DwellTime": 2.1e-06,
  "EchoTime": 0.034,
  "EchoTrainLength": 100,
  "EffectiveEchoSpacing": 0.000539986,
  "FlipAngle": 90,
  "ImageOrientationPatientDICOM": [0.999963, 0.000993704, 0.00858827, 2.39008e-08, 0.993372, -0.114941],
  "ImageType": [
    "ORIGINAL",
    "PRIMARY",
    "M",
    "ND",
    "MOSAIC"
],
  "InPlanePhaseEncodingDirectionDICOM": "COL",
  "InstitutionAddress": "Street_StreetNo_Bei_Jing_District_CN_ZIP",
  "InstitutionName": "BeiJing_Normal_University",
  "InstitutionalDepartmentName": "Department",
  "MRAcquisitionType": "2D",
  "MagneticFieldStrength": 3,
  "Manufacturer": "Siemens",
  "ManufacturersModelName": "Prisma",
  "Modality": "MR",
  "MultibandAccelerationFactor": 3,
  "PartialFourier": 1,
  "PatientPosition": "HFS",
  "PercentPhaseFOV": 100,
  "PhaseEncodingDirection": "j-",
  "PhaseEncodingSteps": 100,
  "PhaseResolution": 1,
  "PixelBandwidth": 2380,
  "ProcedureStepDescription": "BNU_P2018_64CH_Liu.Jia",
  "ProtocolName": "bold_100x100_s3_2x2x2_232",
  "PulseSequenceDetails": "%SiemensSeq%_ep2d_bold",
  "ReceiveCoilActiveElements": "HC1-7;NC1",
  "ReceiveCoilName": "HeadNeck_64",
  "ReconMatrixPE": 100,
  "RepetitionTime": 2,
  "SAR": 0.0638523,
  "ScanOptions": "FS",
  "ScanningSequence": "EP",
  "SequenceName": "_epfid2d1_100",
  "SequenceVariant": "SK",
  "SeriesDescription": "bold_100x100_s3_2x2x2_232",
  "SeriesNumber": 8,
  "ShimSetting": [-5455, -11490, -1271, 411, -30, -285, -147, 12],
  "SliceThickness": 2,
  "SliceTiming": [1.485, 0, 0.99, 0.0825, 1.0725, 0.165, 1.155, 0.2475, 1.2375, 0.33, 1.32, 0.4125, 1.4025, 0.5775, 1.5675, 0.66, 1.65, 0.7425, 1.7325, 0.825, 1.815, 0.9075, 1.8975, 0.495, 1.485, 0, 0.99, 0.0825, 1.0725, 0.165, 1.155, 0.2475, 1.2375, 0.33, 1.32, 0.4125, 1.4025, 0.5775, 1.5675, 0.66, 1.65, 0.7425, 1.7325, 0.825, 1.815, 0.9075, 1.8975, 0.495, 1.485, 0, 0.99, 0.0825, 1.0725, 0.165, 1.155, 0.2475, 1.2375, 0.33, 1.32, 0.4125, 1.4025, 0.5775, 1.5675, 0.66, 1.65, 0.7425, 1.7325, 0.825, 1.815, 0.9075, 1.8975, 0.495],
  "SoftwareVersions": "syngo_MR_E11",
  "SpacingBetweenSlices": 2,
  "StationName": "AWP166078",
  "TaskName": "motor",
  "TotalReadoutTime": 0.0534586,
  "TxRefAmp": 211.466,
  "dcmmeta_affine": [
    [-1.9999252557754517, 4.780156359629473e-08, 0.017291132360696793, 100.71675109863281],
    [-0.0019874079152941704, 1.9867446422576904, -0.2298728972673416, -84.64287567138672],
    [0.017176536843180656, 0.22988148033618927, 1.9866704940795898, -85.23290252685547],
    [0.0, 0.0, 0.0, 1.0]
],
  "dcmmeta_reorient_transform": [
    [0.0, -1.0, 0.0, 99.0],
    [1.0, 0.0, 0.0, 0.0],
    [0.0, 0.0, 1.0, 0.0],
    [0.0, 0.0, 0.0, 1.0]
],
  "dcmmeta_shape": [100, 100, 72, 232],
  "dcmmeta_slice_dim": 2,
  "dcmmeta_version": 0.6,
  "global": {
    "const": {
      "AcquisitionMatrix": [100, 0, 0, 100],
      "AngioFlag": "N",
      "BitsAllocated": 16,
      "BitsStored": 12,
      "BodyPartExamined": "BRAIN",
      "Columns": 900,
      "EchoNumbers": 1,
      "EchoTime": 34.0,
      "EchoTrainLength": 100,
      "FlipAngle": 90.0,
      "HighBit": 11,
      "ImageOrientationPatient": [0.99996262639821, 0.00099370401483, 0.00858826869241, 2.3900781e-08, 0.99337234982496, -0.1149407438781],
      "ImagePositionPatient": [-900.6868742346, -907.53769621277, 22.607341497657],
      "ImageType": [
        "ORIGINAL",
        "PRIMARY",
        "M",
        "ND",
        "MOSAIC"
],
      "ImagedNucleus": "1H",
      "ImagingFrequency": 123.257828,
      "InPlanePhaseEncodingDirection": "COL",
      "MRAcquisitionType": "2D",
      "MagneticFieldStrength": 3.0,
      "Manufacturer": "SIEMENS",
      "ManufacturerModelName": "Prisma",
      "Modality": "MR",
      "NumberOfAverages": 1.0,
      "NumberOfPhaseEncodingSteps": 100,
      "PercentPhaseFieldOfView": 100.0,
      "PercentSampling": 100.0,
      "PerformedProcedureStepStartTime": "090445.174000",
      "PhotometricInterpretation": "MONOCHROME2",
      "PixelBandwidth": 2380.0,
      "PixelRepresentation": 0,
      "PixelSpacing": [2.0, 2.0],
      "ProtocolName": "bold_100x100_s3_2x2x2_232",
      "RepetitionTime": 2000.0,
      "Rows": 900,
      "SAR": 0.06385228198964,
      "SamplesPerPixel": 1,
      "ScanOptions": "FS",
      "ScanningSequence": "EP",
      "SequenceName": "*epfid2d1_100",
      "SequenceVariant": "SK",
      "SeriesDescription": "bold_100x100_s3_2x2x2_232",
      "SeriesNumber": 8,
      "SeriesTime": "093614.529000",
      "SliceLocation": -74.0655433295,
      "SliceThickness": 2.0,
      "SmallestImagePixelValue": 0,
      "SoftwareVersions": "syngo MR E11",
      "SpacingBetweenSlices": 2.0000000340706,
      "SpecificCharacterSet": "ISO_IR 100",
      "StudyID": "1",
      "StudyTime": "090445.030000",
      "TransmitCoilName": "Body",
      "VariableFlipAngleFlag": "N",
      "WindowCenterWidthExplanation": "Algo1",
      "dBdt": 0.0},
    "slices": {}
  },
  "time": {
    "samples": {
      "AcquisitionNumber": [1, 2, 3, 4, 5, 6, 7, 8, 9, 10, 11, 12, 13, 14, 15, 16, 17, 18, 19, 20, 21, 22, 23, 24, 25, 26, 27, 28, 29, 30, 31, 32, 33, 34, 35, 36, 37, 38, 39, 40, 41, 42, 43, 44, 45, 46, 47, 48, 49, 50, 51, 52, 53, 54, 55, 56, 57, 58, 59, 60, 61, 62, 63, 64, 65, 66, 67, 68, 69, 70, 71, 72, 73, 74, 75, 76, 77, 78, 79, 80, 81, 82, 83, 84, 85, 86, 87, 88, 89, 90, 91, 92, 93, 94, 95, 96, 97, 98, 99, 100, 101, 102, 103, 104, 105, 106, 107, 108, 109, 110, 111, 112, 113, 114, 115, 116, 117, 118, 119, 120, 121, 122, 123, 124, 125, 126, 127, 128, 129, 130, 131, 132, 133, 134, 135, 136, 137, 138, 139, 140, 141, 142, 143, 144, 145, 146, 147, 148, 149, 150, 151, 152, 153, 154, 155, 156, 157, 158, 159, 160, 161, 162, 163, 164, 165, 166, 167, 168, 169, 170, 171, 172, 173, 174, 175, 176, 177, 178, 179, 180, 181, 182, 183, 184, 185, 186, 187, 188, 189, 190, 191, 192, 193, 194, 195, 196, 197, 198, 199, 200, 201, 202, 203, 204, 205, 206, 207, 208, 209, 210, 211, 212, 213, 214, 215, 216, 217, 218, 219, 220, 221, 222, 223, 224, 225, 226, 227, 228, 229, 230, 231, 232],
      "AcquisitionTime": ["093612.410000", "093614.410000", "093616.410000", "093618.410000", "093620.410000", "093622.410000", "093624.410000", "093626.410000", "093628.410000", "093630.410000", "093632.410000", "093634.410000", "093636.410000", "093638.410000", "093640.410000", "093642.410000", "093644.410000", "093646.410000", "093648.410000", "093650.410000", "093652.410000", "093654.410000", "093656.410000", "093658.410000", "093700.410000", "093702.410000", "093704.410000", "093706.410000", "093708.410000", "093710.410000", "093712.410000", "093714.410000", "093716.410000", "093718.410000", "093720.410000", "093722.410000", "093724.410000", "093726.410000", "093728.410000", "093730.410000", "093732.410000", "093734.410000", "093736.410000", "093738.410000", "093740.410000", "093742.410000", "093744.410000", "093746.410000", "093748.410000", "093750.410000", "093752.410000", "093754.410000", "093756.410000", "093758.410000", "093800.410000", "093802.410000", "093804.410000", "093806.410000", "093808.410000", "093810.410000", "093812.410000", "093814.410000", "093816.410000", "093818.410000", "093820.410000", "093822.410000", "093824.410000", "093826.410000", "093828.410000", "093830.410000", "093832.410000", "093834.410000", "093836.410000", "093838.410000", "093840.410000", "093842.410000", "093844.410000", "093846.410000", "093848.410000", "093850.410000", "093852.410000", "093854.410000", "093856.410000", "093858.410000", "093900.410000", "093902.410000", "093904.410000", "093906.410000", "093908.410000", "093910.410000", "093912.410000", "093914.410000", "093916.410000", "093918.410000", "093920.410000", "093922.410000", "093924.410000", "093926.410000", "093928.410000", "093930.410000", "093932.410000", "093934.410000", "093936.410000", "093938.410000", "093940.410000", "093942.410000", "093944.410000", "093946.410000", "093948.410000", "093950.410000", "093952.410000", "093954.410000", "093956.410000", "093958.410000", "094000.410000", "094002.410000", "094004.410000", "094006.410000", "094008.410000", "094010.410000", "094012.410000", "094014.410000", "094016.410000", "094018.410000", "094020.410000", "094022.410000", "094024.410000", "094026.410000", "094028.410000", "094030.410000", "094032.410000", "094034.410000", "094036.410000", "094038.410000", "094040.410000", "094042.410000", "094044.410000", "094046.410000", "094048.410000", "094050.410000", "094052.410000", "094054.410000", "094056.410000", "094058.410000", "094100.410000", "094102.410000", "094104.410000", "094106.410000", "094108.410000", "094110.410000", "094112.410000", "094114.410000", "094116.410000", "094118.410000", "094120.410000", "094122.410000", "094124.410000", "094126.410000", "094128.410000", "094130.410000", "094132.410000", "094134.410000", "094136.410000", "094138.410000", "094140.410000", "094142.410000", "094144.410000", "094146.410000", "094148.410000", "094150.410000", "094152.410000", "094154.410000", "094156.410000", "094158.410000", "094200.410000", "094202.410000", "094204.410000", "094206.410000", "094208.410000", "094210.410000", "094212.410000", "094214.410000", "094216.410000", "094218.410000", "094220.410000", "094222.410000", "094224.410000", "094226.410000", "094228.410000", "094230.410000", "094232.410000", "094234.410000", "094236.410000", "094238.410000", "094240.410000", "094242.410000", "094244.410000", "094246.410000", "094248.410000", "094250.410000", "094252.410000", "094254.410000", "094256.410000", "094258.410000", "094300.410000", "094302.410000", "094304.410000", "094306.410000", "094308.410000", "094310.410000", "094312.410000", "094314.410000", "094316.410000", "094318.410000", "094320.410000", "094322.410000", "094324.410000", "094326.410000", "094328.410000", "094330.410000", "094332.410000", "094334.410000", "094336.410000", "094338.410000", "094340.410000", "094342.410000", "094344.410000", "094346.410000", "094348.410000", "094350.410000", "094352.410000", "094354.410000"],
      "ContentTime": ["093614.533000", "093616.021000", "093618.020000", "093620.020000", "093622.021000", "093624.021000", "093626.021000", "093628.021000", "093630.021000", "093632.022000", "093634.021000", "093636.021000", "093638.020000", "093640.022000", "093642.021000", "093644.021000", "093646.021000", "093648.021000", "093650.021000", "093652.021000", "093654.020000", "093656.022000", "093658.021000", "093700.021000", "093702.021000", "093704.021000", "093706.021000", "093708.021000", "093710.020000", "093712.020000", "093714.022000", "093716.021000", "093718.021000", "093720.021000", "093722.021000", "093724.021000", "093726.022000", "093728.020000", "093730.020000", "093732.021000", "093734.021000", "093736.021000", "093738.021000", "093740.021000", "093742.022000", "093744.022000", "093746.020000", "093748.021000", "093750.021000", "093752.021000", "093754.021000", "093756.021000", "093758.021000", "093800.021000", "093802.020000", "093804.021000", "093806.021000", "093808.021000", "093810.021000", "093812.521000", "093814.521000", "093816.021000", "093818.022000", "093820.021000", "093822.020000", "093824.021000", "093826.021000", "093828.021000", "093830.021000", "093832.022000", "093834.021000", "093836.021000", "093838.020000", "093840.020000", "093842.021000", "093844.021000", "093846.021000", "093848.022000", "093850.022000", "093852.022000", "093854.021000", "093856.020000", "093858.020000", "093900.021000", "093902.022000", "093904.021000", "093906.021000", "093908.021000", "093910.021000", "093912.020000", "093914.020000", "093916.022000", "093918.021000", "093920.022000", "093922.022000", "093924.021000", "093926.021000", "093928.021000", "093930.021000", "093932.020000", "093934.022000", "093936.021000", "093938.021000", "093940.021000", "093942.022000", "093944.022000", "093946.021000", "093948.021000", "093950.020000", "093952.021000", "093954.021000", "093956.021000", "093958.021000", "094000.021000", "094002.021000", "094004.022000", "094006.020000", "094008.020000", "094010.021000", "094012.021000", "094014.021000", "094016.021000", "094018.021000", "094020.021000", "094022.521000", "094024.520000", "094026.022000", "094028.021000", "094030.022000", "094032.021000", "094034.021000", "094036.021000", "094038.021000", "094040.020000", "094042.020000", "094044.021000", "094046.022000", "094048.021000", "094050.021000", "094052.021000", "094054.021000", "094056.021000", "094058.020000", "094100.020000", "094102.021000", "094104.021000", "094106.021000", "094108.021000", "094110.021000", "094112.022000", "094114.021000", "094116.021000", "094118.021000", "094120.022000", "094122.021000", "094124.022000", "094126.021000", "094128.021000", "094130.021000", "094132.020000", "094134.020000", "094136.021000", "094138.022000", "094140.021000", "094142.022000", "094144.022000", "094146.021000", "094148.022000", "094150.021000", "094152.020000", "094154.021000", "094156.022000", "094158.522000", "094200.021000", "094202.021000", "094204.022000", "094206.032000", "094208.520000", "094210.020000", "094212.022000", "094214.021000", "094216.021000", "094218.021000", "094220.021000", "094222.021000", "094224.021000", "094226.021000", "094228.020000", "094230.022000", "094232.022000", "094234.021000", "094236.021000", "094238.021000", "094240.021000", "094242.021000", "094244.020000", "094246.021000", "094248.521000", "094250.021000", "094252.021000", "094254.021000", "094256.021000", "094258.021000", "094300.020000", "094302.021000", "094304.021000", "094306.021000", "094308.022000", "094310.022000", "094312.021000", "094314.021000", "094316.021000", "094318.020000", "094320.021000", "094322.021000", "094324.021000", "094326.021000", "094328.021000", "094330.021000", "094332.022000", "094334.022000", "094336.020000", "094338.021000", "094340.522000", "094342.021000", "094344.021000", "094346.021000", "094348.021000", "094350.522000", "094352.020000", "094354.020000", "094355.905000"],
      "InstanceCreationTime": ["093614.533000", "093616.021000", "093618.020000", "093620.020000", "093622.021000", "093624.021000", "093626.021000", "093628.021000", "093630.021000", "093632.022000", "093634.021000", "093636.021000", "093638.020000", "093640.022000", "093642.021000", "093644.021000", "093646.021000", "093648.021000", "093650.021000", "093652.021000", "093654.020000", "093656.022000", "093658.021000", "093700.021000", "093702.021000", "093704.021000", "093706.021000", "093708.021000", "093710.020000", "093712.020000", "093714.022000", "093716.021000", "093718.021000", "093720.021000", "093722.021000", "093724.021000", "093726.022000", "093728.020000", "093730.020000", "093732.021000", "093734.021000", "093736.021000", "093738.021000", "093740.021000", "093742.022000", "093744.022000", "093746.020000", "093748.021000", "093750.021000", "093752.021000", "093754.021000", "093756.021000", "093758.021000", "093800.021000", "093802.020000", "093804.021000", "093806.021000", "093808.021000", "093810.021000", "093812.521000", "093814.521000", "093816.021000", "093818.022000", "093820.021000", "093822.020000", "093824.021000", "093826.021000", "093828.021000", "093830.021000", "093832.022000", "093834.021000", "093836.021000", "093838.020000", "093840.020000", "093842.021000", "093844.021000", "093846.021000", "093848.022000", "093850.022000", "093852.022000", "093854.021000", "093856.020000", "093858.020000", "093900.021000", "093902.022000", "093904.021000", "093906.021000", "093908.021000", "093910.021000", "093912.020000", "093914.020000", "093916.022000", "093918.021000", "093920.022000", "093922.022000", "093924.021000", "093926.021000", "093928.021000", "093930.021000", "093932.020000", "093934.022000", "093936.021000", "093938.021000", "093940.021000", "093942.022000", "093944.022000", "093946.021000", "093948.021000", "093950.020000", "093952.021000", "093954.021000", "093956.021000", "093958.021000", "094000.021000", "094002.021000", "094004.022000", "094006.020000", "094008.020000", "094010.021000", "094012.021000", "094014.021000", "094016.021000", "094018.021000", "094020.021000", "094022.521000", "094024.520000", "094026.022000", "094028.021000", "094030.022000", "094032.021000", "094034.021000", "094036.021000", "094038.021000", "094040.020000", "094042.020000", "094044.021000", "094046.022000", "094048.021000", "094050.021000", "094052.021000", "094054.021000", "094056.021000", "094058.020000", "094100.020000", "094102.021000", "094104.021000", "094106.021000", "094108.021000", "094110.021000", "094112.022000", "094114.021000", "094116.021000", "094118.021000", "094120.022000", "094122.021000", "094124.022000", "094126.021000", "094128.021000", "094130.021000", "094132.020000", "094134.020000", "094136.021000", "094138.022000", "094140.021000", "094142.022000", "094144.022000", "094146.021000", "094148.022000", "094150.021000", "094152.020000", "094154.021000", "094156.022000", "094158.522000", "094200.021000", "094202.021000", "094204.022000", "094206.032000", "094208.520000", "094210.020000", "094212.022000", "094214.021000", "094216.021000", "094218.021000", "094220.021000", "094222.021000", "094224.021000", "094226.021000", "094228.020000", "094230.022000", "094232.022000", "094234.021000", "094236.021000", "094238.021000", "094240.021000", "094242.021000", "094244.020000", "094246.021000", "094248.521000", "094250.021000", "094252.021000", "094254.021000", "094256.021000", "094258.021000", "094300.020000", "094302.021000", "094304.021000", "094306.021000", "094308.022000", "094310.022000", "094312.021000", "094314.021000", "094316.021000", "094318.020000", "094320.021000", "094322.021000", "094324.021000", "094326.021000", "094328.021000", "094330.021000", "094332.022000", "094334.022000", "094336.020000", "094338.021000", "094340.522000", "094342.021000", "094344.021000", "094346.021000", "094348.021000", "094350.522000", "094352.020000", "094354.020000", "094355.905000"],
      "InstanceNumber": [1, 2, 3, 4, 5, 6, 7, 8, 9, 10, 11, 12, 13, 14, 15, 16, 17, 18, 19, 20, 21, 22, 23, 24, 25, 26, 27, 28, 29, 30, 31, 32, 33, 34, 35, 36, 37, 38, 39, 40, 41, 42, 43, 44, 45, 46, 47, 48, 49, 50, 51, 52, 53, 54, 55, 56, 57, 58, 59, 60, 61, 62, 63, 64, 65, 66, 67, 68, 69, 70, 71, 72, 73, 74, 75, 76, 77, 78, 79, 80, 81, 82, 83, 84, 85, 86, 87, 88, 89, 90, 91, 92, 93, 94, 95, 96, 97, 98, 99, 100, 101, 102, 103, 104, 105, 106, 107, 108, 109, 110, 111, 112, 113, 114, 115, 116, 117, 118, 119, 120, 121, 122, 123, 124, 125, 126, 127, 128, 129, 130, 131, 132, 133, 134, 135, 136, 137, 138, 139, 140, 141, 142, 143, 144, 145, 146, 147, 148, 149, 150, 151, 152, 153, 154, 155, 156, 157, 158, 159, 160, 161, 162, 163, 164, 165, 166, 167, 168, 169, 170, 171, 172, 173, 174, 175, 176, 177, 178, 179, 180, 181, 182, 183, 184, 185, 186, 187, 188, 189, 190, 191, 192, 193, 194, 195, 196, 197, 198, 199, 200, 201, 202, 203, 204, 205, 206, 207, 208, 209, 210, 211, 212, 213, 214, 215, 216, 217, 218, 219, 220, 221, 222, 223, 224, 225, 226, 227, 228, 229, 230, 231, 232],
      "LargestImagePixelValue": [3311, 3241, 3226, 3197, 3199, 3214, 3196, 3229, 3189, 3190, 3175, 3203, 3193, 3205, 3195, 3177, 3162, 3228, 3180, 3210, 3192, 3213, 3195, 3213, 3192, 3217, 3213, 3165, 3190, 3208, 3155, 3209, 3179, 3134, 3207, 3199, 3242, 3199, 3211, 3210, 3169, 3195, 3161, 3194, 3186, 3187, 3181, 3172, 3192, 3163, 3190, 3196, 3191, 3161, 3180, 3150, 3151, 3153, 3158, 3117, 3136, 3140, 3233, 3196, 3204, 3235, 3182, 3183, 3197, 3202, 3207, 3206, 3205, 3193, 3192, 3181, 3162, 3227, 3202, 3213, 3181, 3201, 3207, 3190, 3194, 3188, 3203, 3233, 3176, 3210, 3141, 3193, 3159, 3168, 3085, 3141, 3158, 3167, 3121, 3189, 3211, 3141, 3201, 3143, 3175, 3167, 3178, 3196, 3151, 3137, 3187, 3175, 3171, 3101, 3105, 3110, 3116, 3119, 3110, 3088, 3116, 3138, 3171, 3091, 3222, 3142, 3169, 3180, 3169, 3161, 3141, 3163, 3147, 3152, 3116, 3116, 3127, 3105, 3119, 3121, 3157, 3116, 3124, 3117, 3120, 3105, 3142, 3125, 3108, 3113, 3129, 3132, 3117, 3118, 3123, 3130, 3136, 3140, 3132, 3140, 3166, 3130, 3122, 3173, 3146, 3139, 3162, 3149, 3087, 3117, 3129, 3125, 3149, 3138, 3163, 3154, 3130, 3147, 3134, 3131, 3152, 3155, 3178, 3196, 3174, 3177, 3121, 3146, 3165, 3158, 3132, 3149, 3134, 3119, 3164, 3157, 3189, 3185, 3129, 3143, 3173, 3111, 3195, 3185, 3070, 3145, 3085, 3176, 3105, 3122, 3168, 3150, 3167, 3161, 3192, 3148, 3189, 3171, 3178, 3163, 3199, 3177, 3159, 3186, 3189, 3224, 3180, 3190, 3185, 3191, 3195, 3198],
      "WindowCenter": [744.0, 742.0, 741.0, 741.0, 741.0, 741.0, 742.0, 742.0, 741.0, 742.0, 744.0, 744.0, 744.0, 743.0, 743.0, 743.0, 743.0, 743.0, 743.0, 744.0, 743.0, 743.0, 743.0, 743.0, 743.0, 743.0, 743.0, 742.0, 742.0, 741.0, 741.0, 741.0, 741.0, 741.0, 742.0, 743.0, 743.0, 743.0, 743.0, 743.0, 742.0, 742.0, 742.0, 743.0, 742.0, 741.0, 741.0, 742.0, 742.0, 743.0, 742.0, 743.0, 742.0, 742.0, 742.0, 741.0, 742.0, 741.0, 741.0, 740.0, 740.0, 741.0, 743.0, 744.0, 744.0, 743.0, 741.0, 741.0, 741.0, 741.0, 741.0, 741.0, 742.0, 742.0, 743.0, 743.0, 742.0, 742.0, 742.0, 742.0, 741.0, 742.0, 741.0, 741.0, 741.0, 742.0, 742.0, 742.0, 742.0, 742.0, 743.0, 744.0, 742.0, 741.0, 740.0, 741.0, 741.0, 740.0, 740.0, 741.0, 742.0, 741.0, 742.0, 741.0, 741.0, 740.0, 740.0, 740.0, 739.0, 739.0, 740.0, 741.0, 741.0, 740.0, 740.0, 740.0, 741.0, 740.0, 740.0, 740.0, 740.0, 739.0, 740.0, 739.0, 740.0, 740.0, 741.0, 740.0, 740.0, 740.0, 741.0, 741.0, 742.0, 742.0, 741.0, 741.0, 741.0, 740.0, 740.0, 740.0, 741.0, 740.0, 740.0, 740.0, 740.0, 740.0, 740.0, 740.0, 739.0, 739.0, 740.0, 741.0, 741.0, 741.0, 741.0, 741.0, 741.0, 741.0, 741.0, 742.0, 742.0, 742.0, 741.0, 741.0, 739.0, 738.0, 738.0, 738.0, 738.0, 739.0, 739.0, 740.0, 740.0, 740.0, 741.0, 741.0, 740.0, 740.0, 740.0, 741.0, 741.0, 741.0, 742.0, 742.0, 741.0, 741.0, 740.0, 740.0, 741.0, 741.0, 741.0, 741.0, 742.0, 741.0, 742.0, 742.0, 741.0, 742.0, 741.0, 740.0, 741.0, 741.0, 742.0, 741.0, 739.0, 739.0, 740.0, 741.0, 740.0, 741.0, 741.0, 741.0, 741.0, 741.0, 741.0, 740.0, 741.0, 741.0, 741.0, 741.0, 742.0, 741.0, 741.0, 741.0, 741.0, 742.0, 742.0, 742.0, 741.0, 741.0, 740.0, 740.0],
      "WindowWidth": [1613.0, 1608.0, 1605.0, 1604.0, 1604.0, 1604.0, 1606.0, 1606.0, 1605.0, 1608.0, 1611.0, 1612.0, 1611.0, 1610.0, 1608.0, 1608.0, 1608.0, 1610.0, 1610.0, 1611.0, 1610.0, 1610.0, 1609.0, 1610.0, 1609.0, 1609.0, 1609.0, 1606.0, 1607.0, 1605.0, 1603.0, 1603.0, 1602.0, 1603.0, 1607.0, 1609.0, 1609.0, 1609.0, 1608.0, 1608.0, 1606.0, 1607.0, 1607.0, 1609.0, 1606.0, 1605.0, 1605.0, 1605.0, 1607.0, 1608.0, 1608.0, 1608.0, 1607.0, 1605.0, 1605.0, 1605.0, 1606.0, 1605.0, 1604.0, 1602.0, 1602.0, 1604.0, 1609.0, 1612.0, 1612.0, 1609.0, 1604.0, 1603.0, 1603.0, 1603.0, 1604.0, 1604.0, 1606.0, 1607.0, 1609.0, 1608.0, 1607.0, 1607.0, 1606.0, 1606.0, 1604.0, 1605.0, 1604.0, 1604.0, 1605.0, 1605.0, 1605.0, 1606.0, 1606.0, 1608.0, 1608.0, 1611.0, 1607.0, 1605.0, 1602.0, 1604.0, 1604.0, 1602.0, 1601.0, 1604.0, 1606.0, 1603.0, 1607.0, 1604.0, 1604.0, 1600.0, 1600.0, 1600.0, 1599.0, 1598.0, 1600.0, 1604.0, 1604.0, 1600.0, 1600.0, 1601.0, 1602.0, 1602.0, 1602.0, 1600.0, 1601.0, 1599.0, 1600.0, 1598.0, 1601.0, 1600.0, 1602.0, 1602.0, 1602.0, 1602.0, 1604.0, 1604.0, 1606.0, 1605.0, 1604.0, 1603.0, 1603.0, 1601.0, 1601.0, 1602.0, 1603.0, 1601.0, 1602.0, 1602.0, 1602.0, 1601.0, 1601.0, 1599.0, 1598.0, 1599.0, 1600.0, 1603.0, 1603.0, 1602.0, 1603.0, 1604.0, 1604.0, 1604.0, 1605.0, 1605.0, 1606.0, 1606.0, 1605.0, 1603.0, 1599.0, 1596.0, 1596.0, 1596.0, 1594.0, 1598.0, 1598.0, 1600.0, 1601.0, 1601.0, 1602.0, 1602.0, 1601.0, 1601.0, 1601.0, 1603.0, 1604.0, 1604.0, 1605.0, 1606.0, 1604.0, 1603.0, 1602.0, 1602.0, 1602.0, 1603.0, 1603.0, 1603.0, 1605.0, 1604.0, 1606.0, 1605.0, 1604.0, 1605.0, 1602.0, 1601.0, 1602.0, 1603.0, 1605.0, 1604.0, 1598.0, 1599.0, 1600.0, 1603.0, 1602.0, 1602.0, 1603.0, 1603.0, 1603.0, 1604.0, 1604.0, 1602.0, 1603.0, 1603.0, 1604.0, 1604.0, 1605.0, 1604.0, 1603.0, 1604.0, 1604.0, 1605.0, 1607.0, 1607.0, 1604.0, 1603.0, 1602.0, 1600.0]
    },
    "slices": {}
  }
}