{
  "AcquisitionMatrixPE": 100,
  "AcquisitionNumber": 1,
  "AcquisitionTime": "13:08:18.422500",
  "BandwidthPerPixelPhaseEncode": 18.519,
  "BaseResolution": 100,
  "BodyPartExamined": "BRAIN",
  "ConsistencyInfo": "N4_VE11C_LATEST_20160120",
  "ConversionSoftware": "dcm2niix",
  "ConversionSoftwareVersion": "v1.0.20180622 GCC4.9.2",
  "DerivedVendorReportedEchoSpacing": 0.000539986,
  "DeviceSerialNumber": "166078",
  "DwellTime": 2.1e-06,
  "EchoTime": 0.034,
  "EchoTrainLength": 100,
  "EffectiveEchoSpacing": 0.000539986,
  "FlipAngle": 90,
  "ImageOrientationPatientDICOM": [0.999877, 0.00215892, 0.0155582, -3.19464e-08, 0.990509, -0.137445],
  "ImageType": [
    "ORIGINAL",
    "PRIMARY",
    "M",
    "ND",
    "MOSAIC"
],
  "InPlanePhaseEncodingDirectionDICOM": "COL",
  "InstitutionAddress": "Street_StreetNo_Bei_Jing_District_CN_ZIP",
  "InstitutionName": "BeiJing_Normal_University",
  "InstitutionalDepartmentName": "Department",
  "MRAcquisitionType": "2D",
  "MagneticFieldStrength": 3,
  "Manufacturer": "Siemens",
  "ManufacturersModelName": "Prisma",
  "Modality": "MR",
  "MultibandAccelerationFactor": 3,
  "PartialFourier": 1,
  "PatientPosition": "HFS",
  "PercentPhaseFOV": 100,
  "PhaseEncodingDirection": "j-",
  "PhaseEncodingSteps": 100,
  "PhaseResolution": 1,
  "PixelBandwidth": 2380,
  "ProcedureStepDescription": "BNU_P2018_64CH_Liu.Jia",
  "ProtocolName": "bold_100x100_s3_2x2x2_232",
  "PulseSequenceDetails": "%SiemensSeq%_ep2d_bold",
  "ReceiveCoilActiveElements": "HC1-7;NC1",
  "ReceiveCoilName": "HeadNeck_64",
  "ReconMatrixPE": 100,
  "RepetitionTime": 2,
  "SAR": 0.0684342,
  "ScanOptions": "FS",
  "ScanningSequence": "EP",
  "SequenceName": "_epfid2d1_100",
  "SequenceVariant": "SK",
  "SeriesDescription": "bold_100x100_s3_2x2x2_232",
  "SeriesNumber": 8,
  "ShimSetting": [-5461, -11511, -1255, 289, -58, -91, -122, 31],
  "SliceThickness": 2,
  "SliceTiming": [1.485, 0, 0.99, 0.0825, 1.0725, 0.165, 1.155, 0.2475, 1.2375, 0.33, 1.32, 0.4125, 1.4025, 0.5775, 1.5675, 0.66, 1.65, 0.7425, 1.7325, 0.825, 1.815, 0.9075, 1.8975, 0.495, 1.485, 0, 0.99, 0.0825, 1.0725, 0.165, 1.155, 0.2475, 1.2375, 0.33, 1.32, 0.4125, 1.4025, 0.5775, 1.5675, 0.66, 1.65, 0.7425, 1.7325, 0.825, 1.815, 0.9075, 1.8975, 0.495, 1.485, 0, 0.99, 0.0825, 1.0725, 0.165, 1.155, 0.2475, 1.2375, 0.33, 1.32, 0.4125, 1.4025, 0.5775, 1.5675, 0.66, 1.65, 0.7425, 1.7325, 0.825, 1.815, 0.9075, 1.8975, 0.495],
  "SoftwareVersions": "syngo_MR_E11",
  "SpacingBetweenSlices": 2,
  "StationName": "AWP166078",
  "TaskName": "motor",
  "TotalReadoutTime": 0.0534586,
  "TxRefAmp": 234.337,
  "dcmmeta_affine": [
    [-1.9997532367706299, -6.389272755313868e-08, 0.031414639204740524, 98.87244415283203],
    [-0.0043178340420126915, 1.9810189008712769, -0.27485519647598267, -86.6429443359375],
    [0.031116487458348274, 0.2748890817165375, 1.9807745218276978, -80.67809295654297],
    [0.0, 0.0, 0.0, 1.0]
],
  "dcmmeta_reorient_transform": [
    [0.0, -1.0, 0.0, 99.0],
    [1.0, 0.0, 0.0, 0.0],
    [0.0, 0.0, 1.0, 0.0],
    [0.0, 0.0, 0.0, 1.0]
],
  "dcmmeta_shape": [100, 100, 72, 232],
  "dcmmeta_slice_dim": 2,
  "dcmmeta_version": 0.6,
  "global": {
    "const": {
      "AcquisitionMatrix": [100, 0, 0, 100],
      "AngioFlag": "N",
      "BitsAllocated": 16,
      "BitsStored": 12,
      "BodyPartExamined": "BRAIN",
      "Columns": 900,
      "EchoNumbers": 1,
      "EchoTime": 34.0,
      "EchoTrainLength": 100,
      "FlipAngle": 90.0,
      "HighBit": 11,
      "ImageOrientationPatient": [0.99987663245622, 0.00215891698034, 0.01555824365034, -3.1946365e-08, 0.99050946305202, -0.1374445473797],
      "ImagePositionPatient": [-898.77372098503, -903.61263688538, 44.044971024876],
      "ImageType": [
        "ORIGINAL",
        "PRIMARY",
        "M",
        "ND",
        "MOSAIC"
],
      "ImagedNucleus": "1H",
      "ImagingFrequency": 123.257829,
      "InPlanePhaseEncodingDirection": "COL",
      "MRAcquisitionType": "2D",
      "MagneticFieldStrength": 3.0,
      "Manufacturer": "SIEMENS",
      "ManufacturerModelName": "Prisma",
      "Modality": "MR",
      "NumberOfAverages": 1.0,
      "NumberOfPhaseEncodingSteps": 100,
      "PercentPhaseFieldOfView": 100.0,
      "PercentSampling": 100.0,
      "PerformedProcedureStepStartTime": "123548.598000",
      "PhotometricInterpretation": "MONOCHROME2",
      "PixelBandwidth": 2380.0,
      "PixelRepresentation": 0,
      "PixelSpacing": [2.0, 2.0],
      "ProtocolName": "bold_100x100_s3_2x2x2_232",
      "RepetitionTime": 2000.0,
      "Rows": 900,
      "SAR": 0.06843418486062,
      "SamplesPerPixel": 1,
      "ScanOptions": "FS",
      "ScanningSequence": "EP",
      "SequenceName": "*epfid2d1_100",
      "SequenceVariant": "SK",
      "SeriesDescription": "bold_100x100_s3_2x2x2_232",
      "SeriesNumber": 8,
      "SeriesTime": "130820.615000",
      "SliceLocation": -66.442403666325,
      "SliceThickness": 2.0,
      "SmallestImagePixelValue": 0,
      "SoftwareVersions": "syngo MR E11",
      "SpacingBetweenSlices": 2.0000000357771,
      "SpecificCharacterSet": "ISO_IR 100",
      "StudyID": "1",
      "StudyTime": "123548.500000",
      "TransmitCoilName": "Body",
      "VariableFlipAngleFlag": "N",
      "WindowCenterWidthExplanation": "Algo1",
      "dBdt": 0.0},
    "slices": {}
  },
  "time": {
    "samples": {
      "AcquisitionNumber": [1, 2, 3, 4, 5, 6, 7, 8, 9, 10, 11, 12, 13, 14, 15, 16, 17, 18, 19, 20, 21, 22, 23, 24, 25, 26, 27, 28, 29, 30, 31, 32, 33, 34, 35, 36, 37, 38, 39, 40, 41, 42, 43, 44, 45, 46, 47, 48, 49, 50, 51, 52, 53, 54, 55, 56, 57, 58, 59, 60, 61, 62, 63, 64, 65, 66, 67, 68, 69, 70, 71, 72, 73, 74, 75, 76, 77, 78, 79, 80, 81, 82, 83, 84, 85, 86, 87, 88, 89, 90, 91, 92, 93, 94, 95, 96, 97, 98, 99, 100, 101, 102, 103, 104, 105, 106, 107, 108, 109, 110, 111, 112, 113, 114, 115, 116, 117, 118, 119, 120, 121, 122, 123, 124, 125, 126, 127, 128, 129, 130, 131, 132, 133, 134, 135, 136, 137, 138, 139, 140, 141, 142, 143, 144, 145, 146, 147, 148, 149, 150, 151, 152, 153, 154, 155, 156, 157, 158, 159, 160, 161, 162, 163, 164, 165, 166, 167, 168, 169, 170, 171, 172, 173, 174, 175, 176, 177, 178, 179, 180, 181, 182, 183, 184, 185, 186, 187, 188, 189, 190, 191, 192, 193, 194, 195, 196, 197, 198, 199, 200, 201, 202, 203, 204, 205, 206, 207, 208, 209, 210, 211, 212, 213, 214, 215, 216, 217, 218, 219, 220, 221, 222, 223, 224, 225, 226, 227, 228, 229, 230, 231, 232],
      "AcquisitionTime": ["130818.422500", "130820.422500", "130822.422500", "130824.422500", "130826.422500", "130828.422500", "130830.422500", "130832.422500", "130834.422500", "130836.422500", "130838.422500", "130840.422500", "130842.422500", "130844.422500", "130846.422500", "130848.422500", "130850.422500", "130852.422500", "130854.422500", "130856.422500", "130858.422500", "130900.422500", "130902.422500", "130904.422500", "130906.422500", "130908.422500", "130910.422500", "130912.422500", "130914.422500", "130916.422500", "130918.422500", "130920.422500", "130922.422500", "130924.422500", "130926.422500", "130928.422500", "130930.422500", "130932.422500", "130934.422500", "130936.422500", "130938.422500", "130940.422500", "130942.422500", "130944.422500", "130946.422500", "130948.422500", "130950.422500", "130952.422500", "130954.422500", "130956.422500", "130958.422500", "131000.422500", "131002.422500", "131004.422500", "131006.422500", "131008.422500", "131010.422500", "131012.422500", "131014.422500", "131016.422500", "131018.422500", "131020.422500", "131022.422500", "131024.422500", "131026.422500", "131028.422500", "131030.422500", "131032.422500", "131034.422500", "131036.422500", "131038.422500", "131040.422500", "131042.422500", "131044.422500", "131046.422500", "131048.422500", "131050.422500", "131052.422500", "131054.422500", "131056.422500", "131058.422500", "131100.422500", "131102.422500", "131104.422500", "131106.422500", "131108.422500", "131110.422500", "131112.422500", "131114.422500", "131116.422500", "131118.422500", "131120.422500", "131122.422500", "131124.422500", "131126.422500", "131128.422500", "131130.422500", "131132.422500", "131134.422500", "131136.422500", "131138.422500", "131140.422500", "131142.422500", "131144.422500", "131146.422500", "131148.422500", "131150.422500", "131152.422500", "131154.422500", "131156.422500", "131158.422500", "131200.422500", "131202.422500", "131204.422500", "131206.422500", "131208.422500", "131210.422500", "131212.422500", "131214.422500", "131216.422500", "131218.422500", "131220.422500", "131222.422500", "131224.422500", "131226.422500", "131228.422500", "131230.422500", "131232.422500", "131234.422500", "131236.422500", "131238.422500", "131240.422500", "131242.422500", "131244.422500", "131246.422500", "131248.422500", "131250.422500", "131252.422500", "131254.422500", "131256.422500", "131258.422500", "131300.422500", "131302.422500", "131304.422500", "131306.422500", "131308.422500", "131310.422500", "131312.422500", "131314.422500", "131316.422500", "131318.422500", "131320.422500", "131322.422500", "131324.422500", "131326.422500", "131328.422500", "131330.422500", "131332.422500", "131334.422500", "131336.422500", "131338.422500", "131340.422500", "131342.422500", "131344.422500", "131346.422500", "131348.422500", "131350.422500", "131352.422500", "131354.422500", "131356.422500", "131358.422500", "131400.422500", "131402.422500", "131404.422500", "131406.422500", "131408.422500", "131410.422500", "131412.422500", "131414.422500", "131416.422500", "131418.422500", "131420.422500", "131422.422500", "131424.422500", "131426.422500", "131428.422500", "131430.422500", "131432.422500", "131434.422500", "131436.422500", "131438.422500", "131440.422500", "131442.422500", "131444.422500", "131446.422500", "131448.422500", "131450.422500", "131452.422500", "131454.422500", "131456.422500", "131458.422500", "131500.422500", "131502.422500", "131504.422500", "131506.422500", "131508.422500", "131510.422500", "131512.422500", "131514.422500", "131516.422500", "131518.422500", "131520.422500", "131522.422500", "131524.422500", "131526.422500", "131528.422500", "131530.422500", "131532.422500", "131534.422500", "131536.422500", "131538.422500", "131540.422500", "131542.422500", "131544.422500", "131546.422500", "131548.422500", "131550.422500", "131552.422500", "131554.422500", "131556.422500", "131558.422500", "131600.422500"],
      "ContentTime": ["130820.618000", "130822.115000", "130824.116000", "130826.115000", "130828.115000", "130830.615000", "130832.114000", "130834.114000", "130836.114000", "130838.114000", "130840.115000", "130842.115000", "130844.116000", "130846.115000", "130848.114000", "130850.115000", "130852.114000", "130854.114000", "130856.114000", "130858.115000", "130900.115000", "130902.116000", "130904.114000", "130906.114000", "130908.114000", "130910.114000", "130912.114000", "130914.115000", "130916.115000", "130918.116000", "130920.115000", "130922.114000", "130924.114000", "130926.114000", "130928.115000", "130930.114000", "130932.115000", "130934.115000", "130936.115000", "130938.115000", "130940.114000", "130942.114000", "130944.114000", "130946.114000", "130948.114000", "130950.615000", "130952.115000", "130954.115000", "130956.114000", "130958.114000", "131000.114000", "131002.115000", "131004.114000", "131006.114000", "131008.115000", "131010.115000", "131012.115000", "131014.115000", "131016.114000", "131018.114000", "131020.115000", "131022.114000", "131024.115000", "131026.116000", "131028.115000", "131030.115000", "131032.114000", "131034.114000", "131036.115000", "131038.115000", "131040.114000", "131042.116000", "131044.115000", "131046.115000", "131048.615000", "131050.115000", "131052.114000", "131054.114000", "131056.115000", "131058.114000", "131100.115000", "131102.115000", "131104.116000", "131106.114000", "131108.114000", "131110.615000", "131112.115000", "131114.114000", "131116.114000", "131118.115000", "131120.115000", "131122.115000", "131124.115000", "131126.114000", "131128.114000", "131130.114000", "131132.115000", "131134.114000", "131136.616000", "131138.115000", "131140.115000", "131142.114000", "131144.114000", "131146.114000", "131148.614000", "131150.114000", "131152.115000", "131154.115000", "131156.615000", "131158.115000", "131200.115000", "131202.114000", "131204.115000", "131206.114000", "131208.114000", "131210.115000", "131212.116000", "131214.116000", "131216.114000", "131218.114000", "131220.114000", "131222.124000", "131224.114000", "131226.115000", "131228.116000", "131230.115000", "131232.116000", "131234.115000", "131236.115000", "131238.114000", "131240.114000", "131242.115000", "131244.616000", "131246.115000", "131248.115000", "131250.116000", "131252.114000", "131254.114000", "131256.114000", "131258.114000", "131300.114000", "131302.116000", "131304.115000", "131306.116000", "131308.114000", "131310.114000", "131312.114000", "131314.114000", "131316.114000", "131318.114000", "131320.115000", "131322.115000", "131324.115000", "131326.115000", "131328.114000", "131330.115000", "131332.114000", "131334.114000", "131336.115000", "131338.116000", "131340.115000", "131342.116000", "131344.114000", "131346.115000", "131348.115000", "131350.114000", "131352.115000", "131354.116000", "131356.116000", "131358.116000", "131400.116000", "131402.114000", "131404.114000", "131406.114000", "131408.114000", "131410.115000", "131412.115000", "131414.115000", "131416.115000", "131418.115000", "131420.115000", "131422.114000", "131424.614000", "131426.114000", "131428.114000", "131430.115000", "131432.115000", "131434.115000", "131436.114000", "131438.115000", "131440.115000", "131442.114000", "131444.115000", "131446.114000", "131448.115000", "131450.115000", "131452.115000", "131454.115000", "131456.114000", "131458.114000", "131500.615000", "131502.115000", "131504.115000", "131506.115000", "131508.115000", "131510.116000", "131512.114000", "131514.114000", "131516.114000", "131518.115000", "131520.114000", "131522.115000", "131524.115000", "131526.115000", "131528.114000", "131530.114000", "131532.115000", "131534.114000", "131536.114000", "131538.114000", "131540.115000", "131542.116000", "131544.115000", "131546.114000", "131548.114000", "131550.114000", "131552.115000", "131554.114000", "131556.115000", "131558.115000", "131600.115000", "131602.004000"],
      "InstanceCreationTime": ["130820.618000", "130822.115000", "130824.116000", "130826.115000", "130828.115000", "130830.615000", "130832.114000", "130834.114000", "130836.114000", "130838.114000", "130840.115000", "130842.115000", "130844.116000", "130846.115000", "130848.114000", "130850.115000", "130852.114000", "130854.114000", "130856.114000", "130858.115000", "130900.115000", "130902.116000", "130904.114000", "130906.114000", "130908.114000", "130910.114000", "130912.114000", "130914.115000", "130916.115000", "130918.116000", "130920.115000", "130922.114000", "130924.114000", "130926.114000", "130928.115000", "130930.114000", "130932.115000", "130934.115000", "130936.115000", "130938.115000", "130940.114000", "130942.114000", "130944.114000", "130946.114000", "130948.114000", "130950.615000", "130952.115000", "130954.115000", "130956.114000", "130958.114000", "131000.114000", "131002.115000", "131004.114000", "131006.114000", "131008.115000", "131010.115000", "131012.115000", "131014.115000", "131016.114000", "131018.114000", "131020.115000", "131022.114000", "131024.115000", "131026.116000", "131028.115000", "131030.115000", "131032.114000", "131034.114000", "131036.115000", "131038.115000", "131040.114000", "131042.116000", "131044.115000", "131046.115000", "131048.615000", "131050.115000", "131052.114000", "131054.114000", "131056.115000", "131058.114000", "131100.115000", "131102.115000", "131104.116000", "131106.114000", "131108.114000", "131110.615000", "131112.115000", "131114.114000", "131116.114000", "131118.115000", "131120.115000", "131122.115000", "131124.115000", "131126.114000", "131128.114000", "131130.114000", "131132.115000", "131134.114000", "131136.616000", "131138.115000", "131140.115000", "131142.114000", "131144.114000", "131146.114000", "131148.614000", "131150.114000", "131152.115000", "131154.115000", "131156.615000", "131158.115000", "131200.115000", "131202.114000", "131204.115000", "131206.114000", "131208.114000", "131210.115000", "131212.116000", "131214.116000", "131216.114000", "131218.114000", "131220.114000", "131222.124000", "131224.114000", "131226.115000", "131228.116000", "131230.115000", "131232.116000", "131234.115000", "131236.115000", "131238.114000", "131240.114000", "131242.115000", "131244.616000", "131246.115000", "131248.115000", "131250.116000", "131252.114000", "131254.114000", "131256.114000", "131258.114000", "131300.114000", "131302.116000", "131304.115000", "131306.116000", "131308.114000", "131310.114000", "131312.114000", "131314.114000", "131316.114000", "131318.114000", "131320.115000", "131322.115000", "131324.115000", "131326.115000", "131328.114000", "131330.115000", "131332.114000", "131334.114000", "131336.115000", "131338.116000", "131340.115000", "131342.116000", "131344.114000", "131346.115000", "131348.115000", "131350.114000", "131352.115000", "131354.116000", "131356.116000", "131358.116000", "131400.116000", "131402.114000", "131404.114000", "131406.114000", "131408.114000", "131410.115000", "131412.115000", "131414.115000", "131416.115000", "131418.115000", "131420.115000", "131422.114000", "131424.614000", "131426.114000", "131428.114000", "131430.115000", "131432.115000", "131434.115000", "131436.114000", "131438.115000", "131440.115000", "131442.114000", "131444.115000", "131446.114000", "131448.115000", "131450.115000", "131452.115000", "131454.115000", "131456.114000", "131458.114000", "131500.615000", "131502.115000", "131504.115000", "131506.115000", "131508.115000", "131510.116000", "131512.114000", "131514.114000", "131516.114000", "131518.115000", "131520.114000", "131522.115000", "131524.115000", "131526.115000", "131528.114000", "131530.114000", "131532.115000", "131534.114000", "131536.114000", "131538.114000", "131540.115000", "131542.116000", "131544.115000", "131546.114000", "131548.114000", "131550.114000", "131552.115000", "131554.114000", "131556.115000", "131558.115000", "131600.115000", "131602.004000"],
      "InstanceNumber": [1, 2, 3, 4, 5, 6, 7, 8, 9, 10, 11, 12, 13, 14, 15, 16, 17, 18, 19, 20, 21, 22, 23, 24, 25, 26, 27, 28, 29, 30, 31, 32, 33, 34, 35, 36, 37, 38, 39, 40, 41, 42, 43, 44, 45, 46, 47, 48, 49, 50, 51, 52, 53, 54, 55, 56, 57, 58, 59, 60, 61, 62, 63, 64, 65, 66, 67, 68, 69, 70, 71, 72, 73, 74, 75, 76, 77, 78, 79, 80, 81, 82, 83, 84, 85, 86, 87, 88, 89, 90, 91, 92, 93, 94, 95, 96, 97, 98, 99, 100, 101, 102, 103, 104, 105, 106, 107, 108, 109, 110, 111, 112, 113, 114, 115, 116, 117, 118, 119, 120, 121, 122, 123, 124, 125, 126, 127, 128, 129, 130, 131, 132, 133, 134, 135, 136, 137, 138, 139, 140, 141, 142, 143, 144, 145, 146, 147, 148, 149, 150, 151, 152, 153, 154, 155, 156, 157, 158, 159, 160, 161, 162, 163, 164, 165, 166, 167, 168, 169, 170, 171, 172, 173, 174, 175, 176, 177, 178, 179, 180, 181, 182, 183, 184, 185, 186, 187, 188, 189, 190, 191, 192, 193, 194, 195, 196, 197, 198, 199, 200, 201, 202, 203, 204, 205, 206, 207, 208, 209, 210, 211, 212, 213, 214, 215, 216, 217, 218, 219, 220, 221, 222, 223, 224, 225, 226, 227, 228, 229, 230, 231, 232],
      "LargestImagePixelValue": [4095, 4095, 4085, 4095, 4095, 4081, 4062, 4053, 4065, 4091, 4062, 3985, 4001, 4015, 3987, 3973, 4039, 4044, 3983, 4039, 3967, 3955, 3991, 3965, 4000, 4002, 4027, 4095, 4095, 4080, 4095, 4022, 4048, 4095, 4095, 4095, 4095, 4095, 4095, 4095, 4095, 4095, 4095, 4052, 4031, 4051, 4073, 4066, 4095, 4095, 4059, 4091, 4095, 4095, 4087, 4052, 4056, 4095, 4085, 4092, 4095, 4095, 4095, 4095, 4095, 4095, 4095, 4095, 4095, 4095, 4085, 4095, 4095, 4095, 4095, 4093, 4095, 4095, 4092, 4095, 4080, 4089, 4070, 4052, 4095, 4073, 4057, 4095, 4079, 4088, 4095, 4095, 4095, 4095, 4095, 4095, 4074, 4095, 4080, 4049, 4066, 4095, 4095, 4053, 4083, 4025, 4083, 4038, 4056, 4018, 4014, 3991, 3981, 3959, 3991, 3966, 4003, 3998, 3943, 3974, 3979, 3976, 3960, 3956, 3932, 3930, 3950, 3949, 3948, 3915, 3921, 3904, 3956, 3973, 3968, 3931, 3985, 3967, 3986, 3940, 3967, 3945, 3950, 3946, 3960, 3950, 3955, 3991, 3978, 3961, 3937, 3954, 3929, 3952, 3955, 3957, 3938, 3970, 3961, 4013, 4024, 4043, 4026, 3948, 3989, 3971, 3944, 3982, 3962, 3996, 4025, 3963, 3928, 3935, 3973, 3996, 3938, 3935, 3935, 3973, 3924, 3939, 3927, 3946, 3966, 4001, 3952, 4002, 3947, 3998, 3963, 4021, 4073, 4018, 3983, 4052, 4053, 4029, 4009, 4025, 4017, 3969, 3976, 3949, 3946, 3955, 3964, 3980, 3939, 3927, 3929, 3960, 3954, 3948, 3908, 3916, 3937, 3932, 3938, 3931, 3935, 3940, 3943, 3949, 3954, 3959, 3938, 3993, 3954, 3959, 3977, 4003],
      "WindowCenter": [839.0, 837.0, 838.0, 839.0, 838.0, 836.0, 835.0, 838.0, 839.0, 837.0, 835.0, 833.0, 833.0, 834.0, 835.0, 836.0, 838.0, 839.0, 838.0, 837.0, 836.0, 836.0, 836.0, 836.0, 836.0, 836.0, 838.0, 838.0, 838.0, 838.0, 836.0, 834.0, 835.0, 837.0, 837.0, 837.0, 837.0, 837.0, 838.0, 837.0, 838.0, 838.0, 839.0, 838.0, 839.0, 837.0, 838.0, 837.0, 841.0, 840.0, 837.0, 836.0, 836.0, 838.0, 838.0, 837.0, 838.0, 838.0, 839.0, 839.0, 839.0, 839.0, 837.0, 836.0, 837.0, 838.0, 838.0, 838.0, 838.0, 838.0, 838.0, 839.0, 839.0, 838.0, 838.0, 838.0, 837.0, 838.0, 838.0, 838.0, 839.0, 839.0, 840.0, 840.0, 841.0, 841.0, 841.0, 840.0, 839.0, 840.0, 841.0, 841.0, 840.0, 841.0, 840.0, 838.0, 837.0, 837.0, 837.0, 840.0, 840.0, 838.0, 836.0, 836.0, 839.0, 840.0, 841.0, 839.0, 839.0, 839.0, 841.0, 842.0, 840.0, 840.0, 841.0, 842.0, 841.0, 839.0, 838.0, 838.0, 840.0, 839.0, 838.0, 838.0, 839.0, 839.0, 838.0, 837.0, 837.0, 838.0, 839.0, 840.0, 841.0, 840.0, 839.0, 839.0, 840.0, 840.0, 841.0, 840.0, 839.0, 838.0, 837.0, 837.0, 838.0, 839.0, 839.0, 839.0, 839.0, 839.0, 839.0, 839.0, 839.0, 839.0, 839.0, 840.0, 841.0, 841.0, 841.0, 841.0, 842.0, 842.0, 841.0, 839.0, 840.0, 841.0, 841.0, 841.0, 840.0, 840.0, 840.0, 840.0, 842.0, 843.0, 842.0, 841.0, 841.0, 842.0, 841.0, 839.0, 838.0, 838.0, 838.0, 838.0, 838.0, 840.0, 841.0, 840.0, 841.0, 841.0, 839.0, 842.0, 845.0, 844.0, 841.0, 840.0, 841.0, 841.0, 842.0, 842.0, 841.0, 840.0, 839.0, 838.0, 839.0, 839.0, 839.0, 839.0, 839.0, 839.0, 839.0, 840.0, 840.0, 839.0, 839.0, 839.0, 840.0, 840.0, 841.0, 841.0, 842.0, 841.0, 841.0, 841.0, 843.0, 844.0, 844.0, 844.0, 842.0, 841.0, 841.0, 841.0],
      "WindowWidth": [1813.0, 1808.0, 1809.0, 1813.0, 1811.0, 1804.0, 1803.0, 1809.0, 1812.0, 1809.0, 1802.0, 1797.0, 1798.0, 1800.0, 1802.0, 1806.0, 1810.0, 1812.0, 1809.0, 1807.0, 1804.0, 1805.0, 1805.0, 1804.0, 1806.0, 1806.0, 1809.0, 1809.0, 1810.0, 1808.0, 1805.0, 1800.0, 1801.0, 1806.0, 1806.0, 1806.0, 1807.0, 1808.0, 1809.0, 1808.0, 1809.0, 1809.0, 1813.0, 1810.0, 1811.0, 1808.0, 1809.0, 1808.0, 1816.0, 1813.0, 1807.0, 1804.0, 1805.0, 1809.0, 1809.0, 1807.0, 1808.0, 1810.0, 1811.0, 1812.0, 1813.0, 1811.0, 1808.0, 1805.0, 1806.0, 1808.0, 1810.0, 1809.0, 1809.0, 1810.0, 1810.0, 1811.0, 1812.0, 1810.0, 1808.0, 1809.0, 1807.0, 1808.0, 1809.0, 1810.0, 1812.0, 1813.0, 1815.0, 1815.0, 1816.0, 1817.0, 1816.0, 1814.0, 1812.0, 1814.0, 1818.0, 1816.0, 1815.0, 1816.0, 1813.0, 1809.0, 1806.0, 1805.0, 1807.0, 1813.0, 1813.0, 1808.0, 1804.0, 1805.0, 1812.0, 1814.0, 1817.0, 1812.0, 1811.0, 1813.0, 1817.0, 1818.0, 1814.0, 1813.0, 1818.0, 1820.0, 1816.0, 1811.0, 1808.0, 1810.0, 1814.0, 1813.0, 1808.0, 1809.0, 1812.0, 1812.0, 1810.0, 1807.0, 1807.0, 1810.0, 1812.0, 1815.0, 1817.0, 1814.0, 1811.0, 1811.0, 1813.0, 1815.0, 1816.0, 1814.0, 1811.0, 1807.0, 1805.0, 1806.0, 1809.0, 1811.0, 1812.0, 1811.0, 1811.0, 1811.0, 1811.0, 1812.0, 1812.0, 1812.0, 1811.0, 1813.0, 1816.0, 1817.0, 1815.0, 1816.0, 1819.0, 1820.0, 1816.0, 1812.0, 1813.0, 1815.0, 1815.0, 1815.0, 1814.0, 1814.0, 1814.0, 1814.0, 1818.0, 1821.0, 1820.0, 1816.0, 1815.0, 1819.0, 1817.0, 1812.0, 1808.0, 1808.0, 1807.0, 1808.0, 1809.0, 1814.0, 1816.0, 1815.0, 1816.0, 1817.0, 1811.0, 1818.0, 1827.0, 1824.0, 1817.0, 1815.0, 1816.0, 1817.0, 1818.0, 1818.0, 1816.0, 1814.0, 1811.0, 1809.0, 1810.0, 1810.0, 1810.0, 1811.0, 1809.0, 1811.0, 1811.0, 1812.0, 1811.0, 1810.0, 1810.0, 1811.0, 1812.0, 1814.0, 1816.0, 1817.0, 1817.0, 1816.0, 1815.0, 1816.0, 1821.0, 1823.0, 1824.0, 1824.0, 1820.0, 1817.0, 1816.0, 1816.0]
    },
    "slices": {}
  }
}