{
  "AcquisitionMatrixPE": 100,
  "AcquisitionNumber": 1,
  "AcquisitionTime": "13:16:39.100000",
  "BandwidthPerPixelPhaseEncode": 18.519,
  "BaseResolution": 100,
  "BodyPartExamined": "BRAIN",
  "ConsistencyInfo": "N4_VE11C_LATEST_20160120",
  "ConversionSoftware": "dcm2niix",
  "ConversionSoftwareVersion": "v1.0.20180622 GCC4.9.2",
  "DerivedVendorReportedEchoSpacing": 0.000539986,
  "DeviceSerialNumber": "166078",
  "DwellTime": 2.1e-06,
  "EchoTime": 0.034,
  "EchoTrainLength": 100,
  "EffectiveEchoSpacing": 0.000539986,
  "FlipAngle": 90,
  "ImageOrientationPatientDICOM": [0.999877, 0.00215892, 0.0155582, -3.19464e-08, 0.990509, -0.137445],
  "ImageType": [
    "ORIGINAL",
    "PRIMARY",
    "M",
    "ND",
    "MOSAIC"
],
  "InPlanePhaseEncodingDirectionDICOM": "COL",
  "InstitutionAddress": "Street_StreetNo_Bei_Jing_District_CN_ZIP",
  "InstitutionName": "BeiJing_Normal_University",
  "InstitutionalDepartmentName": "Department",
  "MRAcquisitionType": "2D",
  "MagneticFieldStrength": 3,
  "Manufacturer": "Siemens",
  "ManufacturersModelName": "Prisma",
  "Modality": "MR",
  "MultibandAccelerationFactor": 3,
  "PartialFourier": 1,
  "PatientPosition": "HFS",
  "PercentPhaseFOV": 100,
  "PhaseEncodingDirection": "j-",
  "PhaseEncodingSteps": 100,
  "PhaseResolution": 1,
  "PixelBandwidth": 2380,
  "ProcedureStepDescription": "BNU_P2018_64CH_Liu.Jia",
  "ProtocolName": "bold_100x100_s3_2x2x2_232",
  "PulseSequenceDetails": "%SiemensSeq%_ep2d_bold",
  "ReceiveCoilActiveElements": "HC1-7;NC1",
  "ReceiveCoilName": "HeadNeck_64",
  "ReconMatrixPE": 100,
  "RepetitionTime": 2,
  "SAR": 0.0684342,
  "ScanOptions": "FS",
  "ScanningSequence": "EP",
  "SequenceName": "_epfid2d1_100",
  "SequenceVariant": "SK",
  "SeriesDescription": "bold_100x100_s3_2x2x2_232",
  "SeriesNumber": 9,
  "ShimSetting": [-5461, -11511, -1255, 289, -58, -91, -122, 31],
  "SliceThickness": 2,
  "SliceTiming": [1.485, 0, 0.99, 0.0825, 1.0725, 0.165, 1.155, 0.2475, 1.2375, 0.33, 1.32, 0.4125, 1.4025, 0.5775, 1.5675, 0.66, 1.65, 0.7425, 1.7325, 0.825, 1.815, 0.9075, 1.8975, 0.495, 1.485, 0, 0.99, 0.0825, 1.0725, 0.165, 1.155, 0.2475, 1.2375, 0.33, 1.32, 0.4125, 1.4025, 0.5775, 1.5675, 0.66, 1.65, 0.7425, 1.7325, 0.825, 1.815, 0.9075, 1.8975, 0.495, 1.485, 0, 0.99, 0.0825, 1.0725, 0.165, 1.155, 0.2475, 1.2375, 0.33, 1.32, 0.4125, 1.4025, 0.5775, 1.5675, 0.66, 1.65, 0.7425, 1.7325, 0.825, 1.815, 0.9075, 1.8975, 0.495],
  "SoftwareVersions": "syngo_MR_E11",
  "SpacingBetweenSlices": 2,
  "StationName": "AWP166078",
  "TaskName": "motor",
  "TotalReadoutTime": 0.0534586,
  "TxRefAmp": 234.337,
  "dcmmeta_affine": [
    [-1.9997532367706299, -6.389272755313868e-08, 0.031414639204740524, 98.87244415283203],
    [-0.0043178340420126915, 1.9810189008712769, -0.27485519647598267, -86.6429443359375],
    [0.031116487458348274, 0.2748890817165375, 1.9807745218276978, -80.67809295654297],
    [0.0, 0.0, 0.0, 1.0]
],
  "dcmmeta_reorient_transform": [
    [0.0, -1.0, 0.0, 99.0],
    [1.0, 0.0, 0.0, 0.0],
    [0.0, 0.0, 1.0, 0.0],
    [0.0, 0.0, 0.0, 1.0]
],
  "dcmmeta_shape": [100, 100, 72, 232],
  "dcmmeta_slice_dim": 2,
  "dcmmeta_version": 0.6,
  "global": {
    "const": {
      "AcquisitionMatrix": [100, 0, 0, 100],
      "AngioFlag": "N",
      "BitsAllocated": 16,
      "BitsStored": 12,
      "BodyPartExamined": "BRAIN",
      "Columns": 900,
      "EchoNumbers": 1,
      "EchoTime": 34.0,
      "EchoTrainLength": 100,
      "FlipAngle": 90.0,
      "HighBit": 11,
      "ImageOrientationPatient": [0.99987663245622, 0.00215891698034, 0.01555824365034, -3.1946365e-08, 0.99050946305202, -0.1374445473797],
      "ImagePositionPatient": [-898.77372098503, -903.61263688538, 44.044971024876],
      "ImageType": [
        "ORIGINAL",
        "PRIMARY",
        "M",
        "ND",
        "MOSAIC"
],
      "ImagedNucleus": "1H",
      "ImagingFrequency": 123.257832,
      "InPlanePhaseEncodingDirection": "COL",
      "MRAcquisitionType": "2D",
      "MagneticFieldStrength": 3.0,
      "Manufacturer": "SIEMENS",
      "ManufacturerModelName": "Prisma",
      "Modality": "MR",
      "NumberOfAverages": 1.0,
      "NumberOfPhaseEncodingSteps": 100,
      "PercentPhaseFieldOfView": 100.0,
      "PercentSampling": 100.0,
      "PerformedProcedureStepStartTime": "123548.598000",
      "PhotometricInterpretation": "MONOCHROME2",
      "PixelBandwidth": 2380.0,
      "PixelRepresentation": 0,
      "PixelSpacing": [2.0, 2.0],
      "ProtocolName": "bold_100x100_s3_2x2x2_232",
      "RepetitionTime": 2000.0,
      "Rows": 900,
      "SAR": 0.06843418486062,
      "SamplesPerPixel": 1,
      "ScanOptions": "FS",
      "ScanningSequence": "EP",
      "SequenceName": "*epfid2d1_100",
      "SequenceVariant": "SK",
      "SeriesDescription": "bold_100x100_s3_2x2x2_232",
      "SeriesNumber": 9,
      "SeriesTime": "131642.161000",
      "SliceLocation": -66.442403666325,
      "SliceThickness": 2.0,
      "SmallestImagePixelValue": 0,
      "SoftwareVersions": "syngo MR E11",
      "SpacingBetweenSlices": 2.0000000357771,
      "SpecificCharacterSet": "ISO_IR 100",
      "StudyID": "1",
      "StudyTime": "123548.500000",
      "TransmitCoilName": "Body",
      "VariableFlipAngleFlag": "N",
      "WindowCenterWidthExplanation": "Algo1",
      "dBdt": 0.0},
    "slices": {}
  },
  "time": {
    "samples": {
      "AcquisitionNumber": [1, 2, 3, 4, 5, 6, 7, 8, 9, 10, 11, 12, 13, 14, 15, 16, 17, 18, 19, 20, 21, 22, 23, 24, 25, 26, 27, 28, 29, 30, 31, 32, 33, 34, 35, 36, 37, 38, 39, 40, 41, 42, 43, 44, 45, 46, 47, 48, 49, 50, 51, 52, 53, 54, 55, 56, 57, 58, 59, 60, 61, 62, 63, 64, 65, 66, 67, 68, 69, 70, 71, 72, 73, 74, 75, 76, 77, 78, 79, 80, 81, 82, 83, 84, 85, 86, 87, 88, 89, 90, 91, 92, 93, 94, 95, 96, 97, 98, 99, 100, 101, 102, 103, 104, 105, 106, 107, 108, 109, 110, 111, 112, 113, 114, 115, 116, 117, 118, 119, 120, 121, 122, 123, 124, 125, 126, 127, 128, 129, 130, 131, 132, 133, 134, 135, 136, 137, 138, 139, 140, 141, 142, 143, 144, 145, 146, 147, 148, 149, 150, 151, 152, 153, 154, 155, 156, 157, 158, 159, 160, 161, 162, 163, 164, 165, 166, 167, 168, 169, 170, 171, 172, 173, 174, 175, 176, 177, 178, 179, 180, 181, 182, 183, 184, 185, 186, 187, 188, 189, 190, 191, 192, 193, 194, 195, 196, 197, 198, 199, 200, 201, 202, 203, 204, 205, 206, 207, 208, 209, 210, 211, 212, 213, 214, 215, 216, 217, 218, 219, 220, 221, 222, 223, 224, 225, 226, 227, 228, 229, 230, 231, 232],
      "AcquisitionTime": ["131639.100000", "131641.100000", "131643.100000", "131645.100000", "131647.100000", "131649.100000", "131651.100000", "131653.100000", "131655.100000", "131657.100000", "131659.100000", "131701.100000", "131703.100000", "131705.100000", "131707.100000", "131709.100000", "131711.100000", "131713.100000", "131715.100000", "131717.100000", "131719.100000", "131721.100000", "131723.100000", "131725.100000", "131727.100000", "131729.100000", "131731.100000", "131733.100000", "131735.100000", "131737.100000", "131739.100000", "131741.100000", "131743.100000", "131745.100000", "131747.100000", "131749.100000", "131751.100000", "131753.100000", "131755.100000", "131757.100000", "131759.100000", "131801.100000", "131803.100000", "131805.100000", "131807.100000", "131809.100000", "131811.100000", "131813.100000", "131815.100000", "131817.100000", "131819.100000", "131821.100000", "131823.100000", "131825.100000", "131827.100000", "131829.100000", "131831.100000", "131833.100000", "131835.100000", "131837.100000", "131839.100000", "131841.100000", "131843.100000", "131845.100000", "131847.100000", "131849.100000", "131851.100000", "131853.100000", "131855.100000", "131857.100000", "131859.100000", "131901.100000", "131903.100000", "131905.100000", "131907.100000", "131909.100000", "131911.100000", "131913.100000", "131915.100000", "131917.100000", "131919.100000", "131921.100000", "131923.100000", "131925.100000", "131927.100000", "131929.100000", "131931.100000", "131933.100000", "131935.100000", "131937.100000", "131939.100000", "131941.100000", "131943.100000", "131945.100000", "131947.100000", "131949.100000", "131951.100000", "131953.100000", "131955.100000", "131957.100000", "131959.100000", "132001.100000", "132003.100000", "132005.100000", "132007.100000", "132009.100000", "132011.100000", "132013.100000", "132015.100000", "132017.100000", "132019.100000", "132021.100000", "132023.100000", "132025.100000", "132027.100000", "132029.100000", "132031.100000", "132033.100000", "132035.100000", "132037.100000", "132039.100000", "132041.100000", "132043.100000", "132045.100000", "132047.100000", "132049.100000", "132051.100000", "132053.100000", "132055.100000", "132057.100000", "132059.100000", "132101.100000", "132103.100000", "132105.100000", "132107.100000", "132109.100000", "132111.100000", "132113.100000", "132115.100000", "132117.100000", "132119.100000", "132121.100000", "132123.100000", "132125.100000", "132127.100000", "132129.100000", "132131.100000", "132133.100000", "132135.100000", "132137.100000", "132139.100000", "132141.100000", "132143.100000", "132145.100000", "132147.100000", "132149.100000", "132151.100000", "132153.100000", "132155.100000", "132157.100000", "132159.100000", "132201.100000", "132203.100000", "132205.100000", "132207.100000", "132209.100000", "132211.100000", "132213.100000", "132215.100000", "132217.100000", "132219.100000", "132221.100000", "132223.100000", "132225.100000", "132227.100000", "132229.100000", "132231.100000", "132233.100000", "132235.100000", "132237.100000", "132239.100000", "132241.100000", "132243.100000", "132245.100000", "132247.100000", "132249.100000", "132251.100000", "132253.100000", "132255.100000", "132257.100000", "132259.100000", "132301.100000", "132303.100000", "132305.100000", "132307.100000", "132309.100000", "132311.100000", "132313.100000", "132315.100000", "132317.100000", "132319.100000", "132321.100000", "132323.100000", "132325.100000", "132327.100000", "132329.100000", "132331.100000", "132333.100000", "132335.100000", "132337.100000", "132339.100000", "132341.100000", "132343.100000", "132345.100000", "132347.100000", "132349.100000", "132351.100000", "132353.100000", "132355.100000", "132357.100000", "132359.100000", "132401.100000", "132403.100000", "132405.100000", "132407.100000", "132409.100000", "132411.100000", "132413.100000", "132415.100000", "132417.100000", "132419.100000", "132421.100000"],
      "ContentTime": ["131642.164000", "131643.662000", "131645.661000", "131647.661000", "131649.662000", "131651.661000", "131653.661000", "131655.661000", "131657.661000", "131659.660000", "131701.660000", "131703.660000", "131705.660000", "131707.662000", "131709.661000", "131711.662000", "131713.661000", "131715.661000", "131717.660000", "131719.661000", "131721.660000", "131723.661000", "131725.661000", "131727.661000", "131729.661000", "131731.661000", "131733.660000", "131735.660000", "131737.660000", "131739.660000", "131741.661000", "131743.661000", "131745.662000", "131747.661000", "131749.661000", "131751.660000", "131753.661000", "131755.660000", "131757.661000", "131759.662000", "131801.662000", "131803.661000", "131805.661000", "131807.660000", "131809.660000", "131811.661000", "131813.660000", "131815.660000", "131817.661000", "131819.661000", "131821.661000", "131823.662000", "131825.660000", "131827.660000", "131829.660000", "131831.660000", "131833.661000", "131835.661000", "131837.661000", "131839.661000", "131841.661000", "131843.661000", "131845.660000", "131847.660000", "131849.660000", "131851.661000", "131853.661000", "131855.661000", "131857.662000", "131859.660000", "131901.660000", "131903.660000", "131905.660000", "131907.660000", "131909.661000", "131911.661000", "131913.662000", "131915.662000", "131917.660000", "131919.660000", "131921.661000", "131923.660000", "131925.660000", "131927.661000", "131929.661000", "131931.661000", "131933.661000", "131935.660000", "131937.660000", "131939.660000", "131941.661000", "131943.660000", "131945.661000", "131947.661000", "131949.661000", "131951.660000", "131953.660000", "131955.660000", "131957.661000", "131959.660000", "132001.661000", "132003.661000", "132005.662000", "132007.661000", "132009.661000", "132011.660000", "132013.660000", "132015.660000", "132017.661000", "132019.661000", "132021.661000", "132023.662000", "132025.662000", "132027.661000", "132029.660000", "132031.660000", "132033.660000", "132035.660000", "132037.661000", "132039.661000", "132041.662000", "132043.662000", "132045.660000", "132047.660000", "132049.660000", "132051.661000", "132053.662000", "132055.661000", "132057.661000", "132059.661000", "132101.660000", "132103.661000", "132105.661000", "132107.660000", "132109.661000", "132111.662000", "132113.662000", "132115.662000", "132117.662000", "132119.660000", "132121.660000", "132123.660000", "132125.660000", "132127.665000", "132129.661000", "132131.661000", "132133.662000", "132135.662000", "132137.660000", "132139.660000", "132141.660000", "132143.660000", "132145.660000", "132147.661000", "132149.662000", "132151.662000", "132153.661000", "132155.660000", "132157.661000", "132159.660000", "132201.661000", "132203.661000", "132205.662000", "132207.661000", "132209.662000", "132211.661000", "132213.660000", "132215.661000", "132217.660000", "132219.661000", "132221.662000", "132223.662000", "132225.662000", "132227.661000", "132229.661000", "132231.660000", "132233.660000", "132235.661000", "132237.660000", "132239.661000", "132241.662000", "132243.661000", "132245.661000", "132247.660000", "132249.661000", "132251.660000", "132253.661000", "132255.660000", "132257.661000", "132259.661000", "132301.661000", "132303.661000", "132305.660000", "132307.661000", "132309.661000", "132311.660000", "132313.662000", "132315.662000", "132317.661000", "132319.662000", "132321.660000", "132323.660000", "132325.660000", "132327.660000", "132329.661000", "132331.661000", "132333.661000", "132335.662000", "132337.661000", "132339.660000", "132341.661000", "132343.660000", "132345.660000", "132347.661000", "132349.662000", "132351.661000", "132353.661000", "132355.662000", "132357.661000", "132359.661000", "132401.661000", "132403.660000", "132405.661000", "132407.661000", "132409.662000", "132411.662000", "132413.661000", "132415.660000", "132417.660000", "132419.660000", "132421.661000", "132423.246000"],
      "InstanceCreationTime": ["131642.164000", "131643.662000", "131645.661000", "131647.661000", "131649.662000", "131651.661000", "131653.661000", "131655.661000", "131657.661000", "131659.660000", "131701.660000", "131703.660000", "131705.660000", "131707.662000", "131709.661000", "131711.662000", "131713.661000", "131715.661000", "131717.660000", "131719.661000", "131721.660000", "131723.661000", "131725.661000", "131727.661000", "131729.661000", "131731.661000", "131733.660000", "131735.660000", "131737.660000", "131739.660000", "131741.661000", "131743.661000", "131745.662000", "131747.661000", "131749.661000", "131751.660000", "131753.661000", "131755.660000", "131757.661000", "131759.662000", "131801.662000", "131803.661000", "131805.661000", "131807.660000", "131809.660000", "131811.661000", "131813.660000", "131815.660000", "131817.661000", "131819.661000", "131821.661000", "131823.662000", "131825.660000", "131827.660000", "131829.660000", "131831.660000", "131833.661000", "131835.661000", "131837.661000", "131839.661000", "131841.661000", "131843.661000", "131845.660000", "131847.660000", "131849.660000", "131851.661000", "131853.661000", "131855.661000", "131857.662000", "131859.660000", "131901.660000", "131903.660000", "131905.660000", "131907.660000", "131909.661000", "131911.661000", "131913.662000", "131915.662000", "131917.660000", "131919.660000", "131921.661000", "131923.660000", "131925.660000", "131927.661000", "131929.661000", "131931.661000", "131933.661000", "131935.660000", "131937.660000", "131939.660000", "131941.661000", "131943.660000", "131945.661000", "131947.661000", "131949.661000", "131951.660000", "131953.660000", "131955.660000", "131957.661000", "131959.660000", "132001.661000", "132003.661000", "132005.662000", "132007.661000", "132009.661000", "132011.660000", "132013.660000", "132015.660000", "132017.661000", "132019.661000", "132021.661000", "132023.662000", "132025.662000", "132027.661000", "132029.660000", "132031.660000", "132033.660000", "132035.660000", "132037.661000", "132039.661000", "132041.662000", "132043.662000", "132045.660000", "132047.660000", "132049.660000", "132051.661000", "132053.662000", "132055.661000", "132057.661000", "132059.661000", "132101.660000", "132103.661000", "132105.661000", "132107.660000", "132109.661000", "132111.662000", "132113.662000", "132115.662000", "132117.662000", "132119.660000", "132121.660000", "132123.660000", "132125.660000", "132127.665000", "132129.661000", "132131.661000", "132133.662000", "132135.662000", "132137.660000", "132139.660000", "132141.660000", "132143.660000", "132145.660000", "132147.661000", "132149.662000", "132151.662000", "132153.661000", "132155.660000", "132157.661000", "132159.660000", "132201.661000", "132203.661000", "132205.662000", "132207.661000", "132209.662000", "132211.661000", "132213.660000", "132215.661000", "132217.660000", "132219.661000", "132221.662000", "132223.662000", "132225.662000", "132227.661000", "132229.661000", "132231.660000", "132233.660000", "132235.661000", "132237.660000", "132239.661000", "132241.662000", "132243.661000", "132245.661000", "132247.660000", "132249.661000", "132251.660000", "132253.661000", "132255.660000", "132257.661000", "132259.661000", "132301.661000", "132303.661000", "132305.660000", "132307.661000", "132309.661000", "132311.660000", "132313.662000", "132315.662000", "132317.661000", "132319.662000", "132321.660000", "132323.660000", "132325.660000", "132327.660000", "132329.661000", "132331.661000", "132333.661000", "132335.662000", "132337.661000", "132339.660000", "132341.661000", "132343.660000", "132345.660000", "132347.661000", "132349.662000", "132351.661000", "132353.661000", "132355.662000", "132357.661000", "132359.661000", "132401.661000", "132403.660000", "132405.661000", "132407.661000", "132409.662000", "132411.662000", "132413.661000", "132415.660000", "132417.660000", "132419.660000", "132421.661000", "132423.246000"],
      "InstanceNumber": [1, 2, 3, 4, 5, 6, 7, 8, 9, 10, 11, 12, 13, 14, 15, 16, 17, 18, 19, 20, 21, 22, 23, 24, 25, 26, 27, 28, 29, 30, 31, 32, 33, 34, 35, 36, 37, 38, 39, 40, 41, 42, 43, 44, 45, 46, 47, 48, 49, 50, 51, 52, 53, 54, 55, 56, 57, 58, 59, 60, 61, 62, 63, 64, 65, 66, 67, 68, 69, 70, 71, 72, 73, 74, 75, 76, 77, 78, 79, 80, 81, 82, 83, 84, 85, 86, 87, 88, 89, 90, 91, 92, 93, 94, 95, 96, 97, 98, 99, 100, 101, 102, 103, 104, 105, 106, 107, 108, 109, 110, 111, 112, 113, 114, 115, 116, 117, 118, 119, 120, 121, 122, 123, 124, 125, 126, 127, 128, 129, 130, 131, 132, 133, 134, 135, 136, 137, 138, 139, 140, 141, 142, 143, 144, 145, 146, 147, 148, 149, 150, 151, 152, 153, 154, 155, 156, 157, 158, 159, 160, 161, 162, 163, 164, 165, 166, 167, 168, 169, 170, 171, 172, 173, 174, 175, 176, 177, 178, 179, 180, 181, 182, 183, 184, 185, 186, 187, 188, 189, 190, 191, 192, 193, 194, 195, 196, 197, 198, 199, 200, 201, 202, 203, 204, 205, 206, 207, 208, 209, 210, 211, 212, 213, 214, 215, 216, 217, 218, 219, 220, 221, 222, 223, 224, 225, 226, 227, 228, 229, 230, 231, 232],
      "LargestImagePixelValue": [4095, 4006, 3985, 3987, 3951, 3942, 3961, 3976, 3959, 3971, 4001, 3980, 3969, 3987, 3993, 3979, 3960, 3980, 3964, 4012, 3990, 4039, 3998, 3995, 4003, 3982, 3971, 3959, 3972, 3977, 3982, 3955, 3989, 4002, 3978, 3989, 3984, 3962, 3984, 3964, 3996, 3976, 3995, 3979, 3967, 3983, 3979, 3978, 3980, 3991, 4015, 3960, 3976, 3996, 3946, 4004, 3983, 3950, 3976, 3940, 3958, 3949, 3959, 4000, 3942, 3948, 3939, 3979, 3969, 3997, 4016, 3981, 3987, 4021, 3997, 4010, 3983, 3961, 4033, 4012, 4034, 3971, 3969, 3996, 3986, 3987, 3960, 3973, 3939, 3973, 3962, 3936, 3948, 3988, 3981, 3958, 3933, 3959, 3968, 3942, 3982, 3996, 3961, 3975, 3995, 3975, 3984, 3965, 3985, 4019, 3968, 3999, 3967, 3946, 3936, 3970, 3970, 3956, 3981, 3984, 3975, 4032, 3967, 4032, 3988, 4047, 4025, 4046, 4015, 4003, 3989, 4014, 3988, 3948, 3999, 3980, 3976, 3983, 3966, 3978, 3961, 4001, 3995, 3965, 4002, 3985, 3952, 3949, 3968, 3932, 3922, 4003, 3964, 3956, 3959, 4021, 3992, 3994, 4023, 3972, 3964, 4007, 3995, 3967, 4017, 3999, 3998, 3980, 3971, 3982, 3957, 3975, 3974, 4000, 3969, 3965, 3968, 4003, 3969, 4053, 4019, 3991, 3993, 4044, 3979, 3943, 3931, 3969, 3980, 3953, 3951, 3954, 3931, 3960, 3968, 3932, 3921, 3957, 3960, 3955, 3993, 3973, 3964, 3979, 3963, 3947, 3969, 3993, 3972, 3979, 3992, 3948, 3945, 3944, 3946, 4017, 4038, 4004, 4001, 3975, 3969, 3948, 3947, 3958, 3952, 3980, 3946, 3960, 3949, 3964, 4012, 3962],
      "WindowCenter": [842.0, 840.0, 840.0, 840.0, 840.0, 839.0, 839.0, 840.0, 840.0, 840.0, 840.0, 840.0, 841.0, 842.0, 844.0, 843.0, 842.0, 842.0, 842.0, 841.0, 843.0, 845.0, 843.0, 842.0, 843.0, 844.0, 843.0, 842.0, 841.0, 840.0, 841.0, 841.0, 842.0, 843.0, 842.0, 842.0, 843.0, 843.0, 842.0, 841.0, 841.0, 842.0, 843.0, 843.0, 842.0, 842.0, 841.0, 841.0, 842.0, 843.0, 845.0, 843.0, 843.0, 843.0, 843.0, 844.0, 844.0, 843.0, 841.0, 840.0, 840.0, 840.0, 840.0, 841.0, 840.0, 840.0, 841.0, 842.0, 842.0, 842.0, 842.0, 841.0, 841.0, 843.0, 842.0, 842.0, 842.0, 842.0, 842.0, 842.0, 842.0, 842.0, 843.0, 843.0, 843.0, 843.0, 843.0, 843.0, 843.0, 844.0, 844.0, 843.0, 843.0, 844.0, 846.0, 845.0, 843.0, 843.0, 844.0, 843.0, 843.0, 842.0, 841.0, 842.0, 843.0, 842.0, 841.0, 840.0, 840.0, 840.0, 841.0, 842.0, 842.0, 843.0, 844.0, 844.0, 843.0, 842.0, 842.0, 842.0, 842.0, 844.0, 843.0, 842.0, 841.0, 842.0, 841.0, 841.0, 840.0, 841.0, 841.0, 842.0, 842.0, 841.0, 841.0, 841.0, 840.0, 840.0, 840.0, 841.0, 841.0, 842.0, 843.0, 843.0, 842.0, 841.0, 840.0, 841.0, 841.0, 840.0, 840.0, 840.0, 842.0, 843.0, 843.0, 842.0, 842.0, 841.0, 843.0, 843.0, 842.0, 841.0, 841.0, 842.0, 843.0, 842.0, 843.0, 842.0, 840.0, 839.0, 840.0, 841.0, 841.0, 840.0, 839.0, 839.0, 841.0, 842.0, 842.0, 842.0, 843.0, 843.0, 843.0, 843.0, 842.0, 842.0, 841.0, 841.0, 840.0, 841.0, 840.0, 841.0, 842.0, 843.0, 842.0, 841.0, 840.0, 841.0, 840.0, 840.0, 841.0, 844.0, 844.0, 842.0, 841.0, 841.0, 842.0, 843.0, 842.0, 840.0, 839.0, 840.0, 840.0, 840.0, 841.0, 841.0, 843.0, 844.0, 844.0, 841.0, 840.0, 840.0, 841.0, 842.0, 842.0, 841.0, 841.0, 841.0, 841.0, 841.0, 841.0, 841.0],
      "WindowWidth": [1822.0, 1816.0, 1816.0, 1815.0, 1814.0, 1812.0, 1813.0, 1813.0, 1814.0, 1814.0, 1814.0, 1815.0, 1817.0, 1821.0, 1825.0, 1823.0, 1819.0, 1819.0, 1819.0, 1819.0, 1823.0, 1829.0, 1823.0, 1821.0, 1822.0, 1825.0, 1824.0, 1820.0, 1817.0, 1815.0, 1816.0, 1817.0, 1819.0, 1821.0, 1819.0, 1820.0, 1822.0, 1821.0, 1818.0, 1816.0, 1818.0, 1820.0, 1822.0, 1821.0, 1819.0, 1819.0, 1817.0, 1819.0, 1820.0, 1823.0, 1827.0, 1823.0, 1822.0, 1822.0, 1822.0, 1825.0, 1826.0, 1821.0, 1817.0, 1813.0, 1813.0, 1814.0, 1815.0, 1817.0, 1814.0, 1815.0, 1817.0, 1818.0, 1818.0, 1819.0, 1818.0, 1815.0, 1816.0, 1820.0, 1820.0, 1819.0, 1819.0, 1819.0, 1818.0, 1818.0, 1818.0, 1819.0, 1820.0, 1820.0, 1820.0, 1821.0, 1822.0, 1822.0, 1821.0, 1824.0, 1825.0, 1823.0, 1821.0, 1825.0, 1830.0, 1828.0, 1822.0, 1822.0, 1824.0, 1823.0, 1822.0, 1819.0, 1818.0, 1819.0, 1821.0, 1818.0, 1815.0, 1813.0, 1813.0, 1815.0, 1815.0, 1818.0, 1819.0, 1821.0, 1823.0, 1825.0, 1822.0, 1818.0, 1818.0, 1818.0, 1820.0, 1825.0, 1821.0, 1819.0, 1817.0, 1819.0, 1815.0, 1817.0, 1814.0, 1816.0, 1817.0, 1819.0, 1818.0, 1816.0, 1816.0, 1815.0, 1814.0, 1814.0, 1814.0, 1815.0, 1815.0, 1818.0, 1822.0, 1820.0, 1817.0, 1815.0, 1814.0, 1816.0, 1817.0, 1814.0, 1812.0, 1814.0, 1818.0, 1821.0, 1821.0, 1819.0, 1817.0, 1816.0, 1822.0, 1822.0, 1819.0, 1815.0, 1817.0, 1819.0, 1821.0, 1819.0, 1820.0, 1817.0, 1813.0, 1811.0, 1813.0, 1815.0, 1815.0, 1812.0, 1810.0, 1811.0, 1815.0, 1818.0, 1818.0, 1820.0, 1820.0, 1821.0, 1819.0, 1822.0, 1819.0, 1819.0, 1816.0, 1814.0, 1814.0, 1815.0, 1814.0, 1815.0, 1818.0, 1821.0, 1818.0, 1816.0, 1814.0, 1814.0, 1814.0, 1813.0, 1816.0, 1823.0, 1823.0, 1819.0, 1815.0, 1816.0, 1818.0, 1820.0, 1819.0, 1814.0, 1810.0, 1813.0, 1813.0, 1812.0, 1816.0, 1816.0, 1822.0, 1825.0, 1823.0, 1816.0, 1813.0, 1813.0, 1816.0, 1819.0, 1819.0, 1816.0, 1816.0, 1814.0, 1814.0, 1815.0, 1815.0, 1815.0]
    },
    "slices": {}
  }
}