{
  "AcquisitionMatrixPE": 100,
  "AcquisitionNumber": 1,
  "AcquisitionTime": "13:25:11.570000",
  "BandwidthPerPixelPhaseEncode": 18.519,
  "BaseResolution": 100,
  "BodyPartExamined": "BRAIN",
  "ConsistencyInfo": "N4_VE11C_LATEST_20160120",
  "ConversionSoftware": "dcm2niix",
  "ConversionSoftwareVersion": "v1.0.20180622 GCC4.9.2",
  "DerivedVendorReportedEchoSpacing": 0.000539986,
  "DeviceSerialNumber": "166078",
  "DwellTime": 2.1e-06,
  "EchoTime": 0.034,
  "EchoTrainLength": 100,
  "EffectiveEchoSpacing": 0.000539986,
  "FlipAngle": 90,
  "ImageOrientationPatientDICOM": [0.999877, 0.00215892, 0.0155582, -3.19464e-08, 0.990509, -0.137445],
  "ImageType": [
    "ORIGINAL",
    "PRIMARY",
    "M",
    "ND",
    "MOSAIC"
],
  "InPlanePhaseEncodingDirectionDICOM": "COL",
  "InstitutionAddress": "Street_StreetNo_Bei_Jing_District_CN_ZIP",
  "InstitutionName": "BeiJing_Normal_University",
  "InstitutionalDepartmentName": "Department",
  "MRAcquisitionType": "2D",
  "MagneticFieldStrength": 3,
  "Manufacturer": "Siemens",
  "ManufacturersModelName": "Prisma",
  "Modality": "MR",
  "MultibandAccelerationFactor": 3,
  "PartialFourier": 1,
  "PatientPosition": "HFS",
  "PercentPhaseFOV": 100,
  "PhaseEncodingDirection": "j-",
  "PhaseEncodingSteps": 100,
  "PhaseResolution": 1,
  "PixelBandwidth": 2380,
  "ProcedureStepDescription": "BNU_P2018_64CH_Liu.Jia",
  "ProtocolName": "bold_100x100_s3_2x2x2_232",
  "PulseSequenceDetails": "%SiemensSeq%_ep2d_bold",
  "ReceiveCoilActiveElements": "HC1-7;NC1",
  "ReceiveCoilName": "HeadNeck_64",
  "ReconMatrixPE": 100,
  "RepetitionTime": 2,
  "SAR": 0.0684342,
  "ScanOptions": "FS",
  "ScanningSequence": "EP",
  "SequenceName": "_epfid2d1_100",
  "SequenceVariant": "SK",
  "SeriesDescription": "bold_100x100_s3_2x2x2_232",
  "SeriesNumber": 10,
  "ShimSetting": [-5461, -11511, -1255, 289, -58, -91, -122, 31],
  "SliceThickness": 2,
  "SliceTiming": [1.485, 0, 0.99, 0.0825, 1.0725, 0.165, 1.155, 0.2475, 1.2375, 0.33, 1.32, 0.4125, 1.4025, 0.5775, 1.5675, 0.66, 1.65, 0.7425, 1.7325, 0.825, 1.815, 0.9075, 1.8975, 0.495, 1.485, 0, 0.99, 0.0825, 1.0725, 0.165, 1.155, 0.2475, 1.2375, 0.33, 1.32, 0.4125, 1.4025, 0.5775, 1.5675, 0.66, 1.65, 0.7425, 1.7325, 0.825, 1.815, 0.9075, 1.8975, 0.495, 1.485, 0, 0.99, 0.0825, 1.0725, 0.165, 1.155, 0.2475, 1.2375, 0.33, 1.32, 0.4125, 1.4025, 0.5775, 1.5675, 0.66, 1.65, 0.7425, 1.7325, 0.825, 1.815, 0.9075, 1.8975, 0.495],
  "SoftwareVersions": "syngo_MR_E11",
  "SpacingBetweenSlices": 2,
  "StationName": "AWP166078",
  "TaskName": "motor",
  "TotalReadoutTime": 0.0534586,
  "TxRefAmp": 234.337,
  "dcmmeta_affine": [
    [-1.9997532367706299, -6.389272755313868e-08, 0.031414639204740524, 98.87244415283203],
    [-0.0043178340420126915, 1.9810189008712769, -0.27485519647598267, -86.6429443359375],
    [0.031116487458348274, 0.2748890817165375, 1.9807745218276978, -80.67809295654297],
    [0.0, 0.0, 0.0, 1.0]
],
  "dcmmeta_reorient_transform": [
    [0.0, -1.0, 0.0, 99.0],
    [1.0, 0.0, 0.0, 0.0],
    [0.0, 0.0, 1.0, 0.0],
    [0.0, 0.0, 0.0, 1.0]
],
  "dcmmeta_shape": [100, 100, 72, 232],
  "dcmmeta_slice_dim": 2,
  "dcmmeta_version": 0.6,
  "global": {
    "const": {
      "AcquisitionMatrix": [100, 0, 0, 100],
      "AngioFlag": "N",
      "BitsAllocated": 16,
      "BitsStored": 12,
      "BodyPartExamined": "BRAIN",
      "Columns": 900,
      "EchoNumbers": 1,
      "EchoTime": 34.0,
      "EchoTrainLength": 100,
      "FlipAngle": 90.0,
      "HighBit": 11,
      "ImageOrientationPatient": [0.99987663245622, 0.00215891698034, 0.01555824365034, -3.1946365e-08, 0.99050946305202, -0.1374445473797],
      "ImagePositionPatient": [-898.77372098503, -903.61263688538, 44.044971024876],
      "ImageType": [
        "ORIGINAL",
        "PRIMARY",
        "M",
        "ND",
        "MOSAIC"
],
      "ImagedNucleus": "1H",
      "ImagingFrequency": 123.257835,
      "InPlanePhaseEncodingDirection": "COL",
      "MRAcquisitionType": "2D",
      "MagneticFieldStrength": 3.0,
      "Manufacturer": "SIEMENS",
      "ManufacturerModelName": "Prisma",
      "Modality": "MR",
      "NumberOfAverages": 1.0,
      "NumberOfPhaseEncodingSteps": 100,
      "PercentPhaseFieldOfView": 100.0,
      "PercentSampling": 100.0,
      "PerformedProcedureStepStartTime": "123548.598000",
      "PhotometricInterpretation": "MONOCHROME2",
      "PixelBandwidth": 2380.0,
      "PixelRepresentation": 0,
      "PixelSpacing": [2.0, 2.0],
      "ProtocolName": "bold_100x100_s3_2x2x2_232",
      "RepetitionTime": 2000.0,
      "Rows": 900,
      "SAR": 0.06843418486062,
      "SamplesPerPixel": 1,
      "ScanOptions": "FS",
      "ScanningSequence": "EP",
      "SequenceName": "*epfid2d1_100",
      "SequenceVariant": "SK",
      "SeriesDescription": "bold_100x100_s3_2x2x2_232",
      "SeriesNumber": 10,
      "SeriesTime": "132513.958000",
      "SliceLocation": -66.442403666325,
      "SliceThickness": 2.0,
      "SmallestImagePixelValue": 0,
      "SoftwareVersions": "syngo MR E11",
      "SpacingBetweenSlices": 2.0000000357771,
      "SpecificCharacterSet": "ISO_IR 100",
      "StudyID": "1",
      "StudyTime": "123548.500000",
      "TransmitCoilName": "Body",
      "VariableFlipAngleFlag": "N",
      "WindowCenterWidthExplanation": "Algo1",
      "dBdt": 0.0},
    "slices": {}
  },
  "time": {
    "samples": {
      "AcquisitionNumber": [1, 2, 3, 4, 5, 6, 7, 8, 9, 10, 11, 12, 13, 14, 15, 16, 17, 18, 19, 20, 21, 22, 23, 24, 25, 26, 27, 28, 29, 30, 31, 32, 33, 34, 35, 36, 37, 38, 39, 40, 41, 42, 43, 44, 45, 46, 47, 48, 49, 50, 51, 52, 53, 54, 55, 56, 57, 58, 59, 60, 61, 62, 63, 64, 65, 66, 67, 68, 69, 70, 71, 72, 73, 74, 75, 76, 77, 78, 79, 80, 81, 82, 83, 84, 85, 86, 87, 88, 89, 90, 91, 92, 93, 94, 95, 96, 97, 98, 99, 100, 101, 102, 103, 104, 105, 106, 107, 108, 109, 110, 111, 112, 113, 114, 115, 116, 117, 118, 119, 120, 121, 122, 123, 124, 125, 126, 127, 128, 129, 130, 131, 132, 133, 134, 135, 136, 137, 138, 139, 140, 141, 142, 143, 144, 145, 146, 147, 148, 149, 150, 151, 152, 153, 154, 155, 156, 157, 158, 159, 160, 161, 162, 163, 164, 165, 166, 167, 168, 169, 170, 171, 172, 173, 174, 175, 176, 177, 178, 179, 180, 181, 182, 183, 184, 185, 186, 187, 188, 189, 190, 191, 192, 193, 194, 195, 196, 197, 198, 199, 200, 201, 202, 203, 204, 205, 206, 207, 208, 209, 210, 211, 212, 213, 214, 215, 216, 217, 218, 219, 220, 221, 222, 223, 224, 225, 226, 227, 228, 229, 230, 231, 232],
      "AcquisitionTime": ["132511.570000", "132513.570000", "132515.570000", "132517.570000", "132519.570000", "132521.570000", "132523.570000", "132525.570000", "132527.570000", "132529.570000", "132531.570000", "132533.570000", "132535.570000", "132537.570000", "132539.570000", "132541.570000", "132543.570000", "132545.570000", "132547.570000", "132549.570000", "132551.570000", "132553.570000", "132555.570000", "132557.570000", "132559.570000", "132601.570000", "132603.570000", "132605.570000", "132607.570000", "132609.570000", "132611.570000", "132613.570000", "132615.570000", "132617.570000", "132619.570000", "132621.570000", "132623.570000", "132625.570000", "132627.570000", "132629.570000", "132631.570000", "132633.570000", "132635.570000", "132637.570000", "132639.570000", "132641.570000", "132643.570000", "132645.570000", "132647.570000", "132649.570000", "132651.570000", "132653.570000", "132655.570000", "132657.570000", "132659.570000", "132701.570000", "132703.570000", "132705.570000", "132707.570000", "132709.570000", "132711.570000", "132713.570000", "132715.570000", "132717.570000", "132719.570000", "132721.570000", "132723.570000", "132725.570000", "132727.570000", "132729.570000", "132731.570000", "132733.570000", "132735.570000", "132737.570000", "132739.570000", "132741.570000", "132743.570000", "132745.570000", "132747.570000", "132749.570000", "132751.570000", "132753.570000", "132755.570000", "132757.570000", "132759.570000", "132801.570000", "132803.570000", "132805.570000", "132807.570000", "132809.570000", "132811.570000", "132813.570000", "132815.570000", "132817.570000", "132819.570000", "132821.570000", "132823.570000", "132825.570000", "132827.570000", "132829.570000", "132831.570000", "132833.570000", "132835.570000", "132837.570000", "132839.570000", "132841.570000", "132843.570000", "132845.570000", "132847.570000", "132849.570000", "132851.570000", "132853.570000", "132855.570000", "132857.570000", "132859.570000", "132901.570000", "132903.570000", "132905.570000", "132907.570000", "132909.570000", "132911.570000", "132913.570000", "132915.570000", "132917.570000", "132919.570000", "132921.570000", "132923.570000", "132925.570000", "132927.570000", "132929.570000", "132931.570000", "132933.570000", "132935.570000", "132937.570000", "132939.570000", "132941.570000", "132943.570000", "132945.570000", "132947.570000", "132949.570000", "132951.570000", "132953.570000", "132955.570000", "132957.570000", "132959.570000", "133001.570000", "133003.570000", "133005.570000", "133007.570000", "133009.570000", "133011.570000", "133013.570000", "133015.570000", "133017.570000", "133019.570000", "133021.570000", "133023.570000", "133025.570000", "133027.570000", "133029.570000", "133031.570000", "133033.570000", "133035.570000", "133037.570000", "133039.570000", "133041.570000", "133043.570000", "133045.570000", "133047.570000", "133049.570000", "133051.570000", "133053.570000", "133055.570000", "133057.570000", "133059.570000", "133101.570000", "133103.570000", "133105.570000", "133107.570000", "133109.570000", "133111.570000", "133113.570000", "133115.570000", "133117.570000", "133119.570000", "133121.570000", "133123.570000", "133125.570000", "133127.570000", "133129.570000", "133131.570000", "133133.570000", "133135.570000", "133137.570000", "133139.570000", "133141.570000", "133143.570000", "133145.570000", "133147.570000", "133149.570000", "133151.570000", "133153.570000", "133155.570000", "133157.570000", "133159.570000", "133201.570000", "133203.570000", "133205.570000", "133207.570000", "133209.570000", "133211.570000", "133213.570000", "133215.570000", "133217.570000", "133219.570000", "133221.570000", "133223.570000", "133225.570000", "133227.570000", "133229.570000", "133231.570000", "133233.570000", "133235.570000", "133237.570000", "133239.570000", "133241.570000", "133243.570000", "133245.570000", "133247.570000", "133249.570000", "133251.570000", "133253.570000"],
      "ContentTime": ["132513.961000", "132515.457000", "132517.457000", "132519.457000", "132521.457000", "132523.457000", "132525.457000", "132527.458000", "132529.457000", "132531.458000", "132533.458000", "132535.457000", "132537.457000", "132539.457000", "132541.457000", "132543.457000", "132545.457000", "132547.457000", "132549.458000", "132551.458000", "132553.457000", "132555.457000", "132557.457000", "132559.457000", "132601.457000", "132603.457000", "132605.457000", "132607.457000", "132609.458000", "132611.458000", "132613.458000", "132615.458000", "132617.457000", "132619.458000", "132621.457000", "132623.457000", "132625.457000", "132627.457000", "132629.457000", "132631.458000", "132633.457000", "132635.457000", "132637.457000", "132639.457000", "132641.457000", "132643.458000", "132645.457000", "132647.457000", "132649.457000", "132651.458000", "132653.457000", "132655.457000", "132657.457000", "132659.458000", "132701.458000", "132703.457000", "132705.457000", "132707.457000", "132709.457000", "132711.457000", "132713.458000", "132715.457000", "132717.458000", "132719.457000", "132721.457000", "132723.457000", "132725.457000", "132727.457000", "132729.457000", "132731.457000", "132733.457000", "132735.457000", "132737.457000", "132739.458000", "132741.457000", "132743.458000", "132745.457000", "132747.457000", "132749.457000", "132751.457000", "132753.458000", "132755.457000", "132757.458000", "132759.457000", "132801.457000", "132803.457000", "132805.457000", "132807.458000", "132809.457000", "132811.458000", "132813.458000", "132815.458000", "132817.457000", "132819.458000", "132821.458000", "132823.457000", "132825.458000", "132827.458000", "132829.458000", "132831.458000", "132833.457000", "132835.458000", "132837.457000", "132839.457000", "132841.457000", "132843.457000", "132845.457000", "132847.457000", "132849.458000", "132851.457000", "132853.458000", "132855.458000", "132857.458000", "132859.457000", "132901.457000", "132903.458000", "132905.457000", "132907.458000", "132909.457000", "132911.457000", "132913.458000", "132915.458000", "132917.458000", "132919.458000", "132921.458000", "132923.457000", "132925.457000", "132927.457000", "132929.458000", "132931.457000", "132933.457000", "132935.457000", "132937.457000", "132939.458000", "132941.457000", "132943.457000", "132945.458000", "132947.458000", "132949.457000", "132951.457000", "132953.457000", "132955.457000", "132957.457000", "132959.458000", "133001.457000", "133003.457000", "133005.458000", "133007.457000", "133009.458000", "133011.457000", "133013.459000", "133015.457000", "133017.457000", "133019.457000", "133021.457000", "133023.457000", "133025.457000", "133027.457000", "133029.458000", "133031.459000", "133033.458000", "133035.457000", "133037.457000", "133039.457000", "133041.458000", "133043.458000", "133045.457000", "133047.457000", "133049.457000", "133051.457000", "133053.457000", "133055.457000", "133057.458000", "133059.457000", "133101.457000", "133103.458000", "133105.473000", "133107.457000", "133109.457000", "133111.458000", "133113.457000", "133115.457000", "133117.458000", "133119.457000", "133121.458000", "133123.459000", "133125.457000", "133127.457000", "133129.457000", "133131.457000", "133133.457000", "133135.458000", "133137.457000", "133139.458000", "133141.458000", "133143.457000", "133145.457000", "133147.457000", "133149.457000", "133151.457000", "133153.457000", "133155.457000", "133157.457000", "133159.457000", "133201.457000", "133203.457000", "133205.458000", "133207.461000", "133209.458000", "133211.458000", "133213.457000", "133215.458000", "133217.457000", "133219.459000", "133221.457000", "133223.458000", "133225.457000", "133227.457000", "133229.458000", "133231.458000", "133233.458000", "133235.457000", "133237.457000", "133239.457000", "133241.457000", "133243.457000", "133245.458000", "133247.457000", "133249.457000", "133251.458000", "133253.457000", "133254.975000"],
      "InstanceCreationTime": ["132513.961000", "132515.457000", "132517.457000", "132519.457000", "132521.457000", "132523.457000", "132525.457000", "132527.458000", "132529.457000", "132531.458000", "132533.458000", "132535.457000", "132537.457000", "132539.457000", "132541.457000", "132543.457000", "132545.457000", "132547.457000", "132549.458000", "132551.458000", "132553.457000", "132555.457000", "132557.457000", "132559.457000", "132601.457000", "132603.457000", "132605.457000", "132607.457000", "132609.458000", "132611.458000", "132613.458000", "132615.458000", "132617.457000", "132619.458000", "132621.457000", "132623.457000", "132625.457000", "132627.457000", "132629.457000", "132631.458000", "132633.457000", "132635.457000", "132637.457000", "132639.457000", "132641.457000", "132643.458000", "132645.457000", "132647.457000", "132649.457000", "132651.458000", "132653.457000", "132655.457000", "132657.457000", "132659.458000", "132701.458000", "132703.457000", "132705.457000", "132707.457000", "132709.457000", "132711.457000", "132713.458000", "132715.457000", "132717.458000", "132719.457000", "132721.457000", "132723.457000", "132725.457000", "132727.457000", "132729.457000", "132731.457000", "132733.457000", "132735.457000", "132737.457000", "132739.458000", "132741.457000", "132743.458000", "132745.457000", "132747.457000", "132749.457000", "132751.457000", "132753.458000", "132755.457000", "132757.458000", "132759.457000", "132801.457000", "132803.457000", "132805.457000", "132807.458000", "132809.457000", "132811.458000", "132813.458000", "132815.458000", "132817.457000", "132819.458000", "132821.458000", "132823.457000", "132825.458000", "132827.458000", "132829.458000", "132831.458000", "132833.457000", "132835.458000", "132837.457000", "132839.457000", "132841.457000", "132843.457000", "132845.457000", "132847.457000", "132849.458000", "132851.457000", "132853.458000", "132855.458000", "132857.458000", "132859.457000", "132901.457000", "132903.458000", "132905.457000", "132907.458000", "132909.457000", "132911.457000", "132913.458000", "132915.458000", "132917.458000", "132919.458000", "132921.458000", "132923.457000", "132925.457000", "132927.457000", "132929.458000", "132931.457000", "132933.457000", "132935.457000", "132937.457000", "132939.458000", "132941.457000", "132943.457000", "132945.458000", "132947.458000", "132949.457000", "132951.457000", "132953.457000", "132955.457000", "132957.457000", "132959.458000", "133001.457000", "133003.457000", "133005.458000", "133007.457000", "133009.458000", "133011.457000", "133013.459000", "133015.457000", "133017.457000", "133019.457000", "133021.457000", "133023.457000", "133025.457000", "133027.457000", "133029.458000", "133031.459000", "133033.458000", "133035.457000", "133037.457000", "133039.457000", "133041.458000", "133043.458000", "133045.457000", "133047.457000", "133049.457000", "133051.457000", "133053.457000", "133055.457000", "133057.458000", "133059.457000", "133101.457000", "133103.458000", "133105.473000", "133107.457000", "133109.457000", "133111.458000", "133113.457000", "133115.457000", "133117.458000", "133119.457000", "133121.458000", "133123.459000", "133125.457000", "133127.457000", "133129.457000", "133131.457000", "133133.457000", "133135.458000", "133137.457000", "133139.458000", "133141.458000", "133143.457000", "133145.457000", "133147.457000", "133149.457000", "133151.457000", "133153.457000", "133155.457000", "133157.457000", "133159.457000", "133201.457000", "133203.457000", "133205.458000", "133207.461000", "133209.458000", "133211.458000", "133213.457000", "133215.458000", "133217.457000", "133219.459000", "133221.457000", "133223.458000", "133225.457000", "133227.457000", "133229.458000", "133231.458000", "133233.458000", "133235.457000", "133237.457000", "133239.457000", "133241.457000", "133243.457000", "133245.458000", "133247.457000", "133249.457000", "133251.458000", "133253.457000", "133254.975000"],
      "InstanceNumber": [1, 2, 3, 4, 5, 6, 7, 8, 9, 10, 11, 12, 13, 14, 15, 16, 17, 18, 19, 20, 21, 22, 23, 24, 25, 26, 27, 28, 29, 30, 31, 32, 33, 34, 35, 36, 37, 38, 39, 40, 41, 42, 43, 44, 45, 46, 47, 48, 49, 50, 51, 52, 53, 54, 55, 56, 57, 58, 59, 60, 61, 62, 63, 64, 65, 66, 67, 68, 69, 70, 71, 72, 73, 74, 75, 76, 77, 78, 79, 80, 81, 82, 83, 84, 85, 86, 87, 88, 89, 90, 91, 92, 93, 94, 95, 96, 97, 98, 99, 100, 101, 102, 103, 104, 105, 106, 107, 108, 109, 110, 111, 112, 113, 114, 115, 116, 117, 118, 119, 120, 121, 122, 123, 124, 125, 126, 127, 128, 129, 130, 131, 132, 133, 134, 135, 136, 137, 138, 139, 140, 141, 142, 143, 144, 145, 146, 147, 148, 149, 150, 151, 152, 153, 154, 155, 156, 157, 158, 159, 160, 161, 162, 163, 164, 165, 166, 167, 168, 169, 170, 171, 172, 173, 174, 175, 176, 177, 178, 179, 180, 181, 182, 183, 184, 185, 186, 187, 188, 189, 190, 191, 192, 193, 194, 195, 196, 197, 198, 199, 200, 201, 202, 203, 204, 205, 206, 207, 208, 209, 210, 211, 212, 213, 214, 215, 216, 217, 218, 219, 220, 221, 222, 223, 224, 225, 226, 227, 228, 229, 230, 231, 232],
      "LargestImagePixelValue": [4095, 4042, 3978, 3998, 4007, 3964, 3983, 4004, 3981, 3993, 3966, 3964, 3997, 3994, 3974, 4000, 4008, 4085, 4035, 4017, 3975, 4007, 3973, 4000, 4079, 3996, 3996, 3981, 3994, 3974, 4004, 4040, 3995, 3989, 4045, 3981, 4051, 4081, 4059, 4095, 4087, 4095, 4067, 4056, 4025, 4042, 4028, 4013, 4095, 4041, 4020, 4051, 4060, 4053, 4093, 4035, 4041, 4060, 4052, 4082, 4095, 4056, 4095, 4047, 4026, 4070, 4065, 4080, 4059, 4065, 4031, 4049, 4035, 4059, 4069, 4061, 4065, 4042, 4064, 4056, 4047, 4030, 4095, 4049, 4045, 4085, 4071, 4095, 4072, 4095, 4071, 4069, 4088, 4068, 4049, 4038, 4065, 4046, 4023, 4047, 4015, 4041, 4053, 4033, 4072, 4048, 4081, 4093, 4064, 4054, 4063, 4027, 4034, 4082, 4086, 4081, 4095, 4093, 4022, 4051, 4043, 4060, 4087, 4054, 4047, 4066, 4033, 4049, 4035, 4049, 4031, 4095, 4075, 4078, 4068, 4094, 4083, 4084, 4095, 4095, 4095, 4095, 4095, 4078, 4095, 4091, 4095, 4095, 4095, 4089, 4095, 4095, 4095, 4095, 4095, 4095, 4095, 4095, 4095, 4095, 4095, 4095, 4095, 4062, 4079, 4087, 4095, 4063, 4095, 4083, 4082, 4051, 4049, 4095, 4070, 4062, 4080, 4095, 4069, 4095, 4010, 4095, 4046, 4095, 4095, 4071, 4095, 4095, 4054, 4084, 4052, 4090, 4038, 4073, 4067, 4054, 4093, 4093, 3990, 4013, 3977, 4011, 3959, 4001, 3993, 3985, 3993, 3980, 3994, 3998, 4051, 4080, 4008, 4005, 4006, 4090, 4015, 3987, 4025, 3993, 3965, 3974, 3942, 3996, 3948, 3963, 3990, 4009, 3993, 3956, 3980, 3963],
      "WindowCenter": [844.0, 843.0, 842.0, 841.0, 841.0, 841.0, 842.0, 843.0, 842.0, 841.0, 841.0, 841.0, 841.0, 841.0, 842.0, 842.0, 841.0, 840.0, 841.0, 842.0, 842.0, 842.0, 842.0, 842.0, 842.0, 841.0, 842.0, 842.0, 843.0, 843.0, 842.0, 841.0, 842.0, 844.0, 844.0, 842.0, 841.0, 841.0, 841.0, 841.0, 841.0, 840.0, 840.0, 839.0, 839.0, 840.0, 842.0, 843.0, 842.0, 841.0, 840.0, 840.0, 840.0, 841.0, 841.0, 841.0, 842.0, 842.0, 843.0, 843.0, 842.0, 842.0, 842.0, 841.0, 841.0, 842.0, 841.0, 840.0, 841.0, 842.0, 841.0, 841.0, 840.0, 841.0, 841.0, 840.0, 840.0, 841.0, 843.0, 843.0, 842.0, 842.0, 843.0, 844.0, 843.0, 842.0, 842.0, 843.0, 844.0, 844.0, 844.0, 843.0, 842.0, 842.0, 842.0, 842.0, 841.0, 840.0, 841.0, 841.0, 841.0, 841.0, 841.0, 840.0, 841.0, 841.0, 842.0, 842.0, 842.0, 841.0, 840.0, 841.0, 841.0, 842.0, 842.0, 843.0, 843.0, 843.0, 842.0, 841.0, 840.0, 840.0, 841.0, 841.0, 841.0, 841.0, 841.0, 841.0, 841.0, 841.0, 841.0, 839.0, 840.0, 841.0, 841.0, 841.0, 841.0, 840.0, 841.0, 842.0, 842.0, 841.0, 841.0, 841.0, 840.0, 839.0, 839.0, 841.0, 842.0, 842.0, 841.0, 840.0, 841.0, 841.0, 842.0, 841.0, 840.0, 840.0, 841.0, 840.0, 839.0, 840.0, 841.0, 842.0, 841.0, 839.0, 840.0, 840.0, 840.0, 840.0, 840.0, 841.0, 841.0, 841.0, 840.0, 839.0, 840.0, 840.0, 842.0, 842.0, 840.0, 839.0, 840.0, 842.0, 844.0, 844.0, 841.0, 840.0, 840.0, 842.0, 844.0, 844.0, 842.0, 842.0, 842.0, 844.0, 844.0, 842.0, 840.0, 839.0, 840.0, 841.0, 842.0, 843.0, 843.0, 842.0, 841.0, 841.0, 842.0, 843.0, 842.0, 842.0, 841.0, 837.0, 840.0, 845.0, 844.0, 841.0, 841.0, 841.0, 842.0, 843.0, 843.0, 842.0, 841.0, 841.0, 841.0, 842.0, 842.0, 842.0, 842.0, 842.0],
      "WindowWidth": [1827.0, 1823.0, 1820.0, 1818.0, 1816.0, 1816.0, 1819.0, 1822.0, 1819.0, 1817.0, 1817.0, 1817.0, 1818.0, 1818.0, 1818.0, 1819.0, 1815.0, 1813.0, 1817.0, 1820.0, 1818.0, 1818.0, 1818.0, 1818.0, 1818.0, 1817.0, 1818.0, 1818.0, 1821.0, 1821.0, 1817.0, 1815.0, 1818.0, 1823.0, 1824.0, 1817.0, 1815.0, 1814.0, 1814.0, 1815.0, 1814.0, 1814.0, 1812.0, 1810.0, 1810.0, 1814.0, 1819.0, 1820.0, 1817.0, 1814.0, 1812.0, 1813.0, 1814.0, 1815.0, 1815.0, 1815.0, 1816.0, 1819.0, 1821.0, 1820.0, 1819.0, 1819.0, 1818.0, 1816.0, 1815.0, 1817.0, 1814.0, 1813.0, 1815.0, 1817.0, 1816.0, 1815.0, 1814.0, 1814.0, 1814.0, 1813.0, 1813.0, 1816.0, 1821.0, 1820.0, 1817.0, 1818.0, 1822.0, 1822.0, 1821.0, 1819.0, 1818.0, 1820.0, 1824.0, 1825.0, 1823.0, 1820.0, 1819.0, 1819.0, 1819.0, 1817.0, 1814.0, 1812.0, 1813.0, 1815.0, 1815.0, 1815.0, 1814.0, 1813.0, 1816.0, 1815.0, 1817.0, 1818.0, 1817.0, 1813.0, 1813.0, 1813.0, 1815.0, 1817.0, 1819.0, 1821.0, 1821.0, 1820.0, 1817.0, 1815.0, 1813.0, 1812.0, 1815.0, 1814.0, 1814.0, 1814.0, 1815.0, 1815.0, 1815.0, 1815.0, 1813.0, 1810.0, 1812.0, 1816.0, 1813.0, 1813.0, 1814.0, 1813.0, 1815.0, 1817.0, 1816.0, 1813.0, 1814.0, 1814.0, 1812.0, 1809.0, 1810.0, 1814.0, 1817.0, 1817.0, 1815.0, 1813.0, 1813.0, 1816.0, 1817.0, 1814.0, 1812.0, 1813.0, 1815.0, 1812.0, 1809.0, 1811.0, 1815.0, 1816.0, 1813.0, 1810.0, 1811.0, 1812.0, 1813.0, 1812.0, 1813.0, 1814.0, 1814.0, 1813.0, 1810.0, 1808.0, 1810.0, 1811.0, 1816.0, 1817.0, 1812.0, 1810.0, 1812.0, 1818.0, 1822.0, 1821.0, 1815.0, 1812.0, 1812.0, 1817.0, 1822.0, 1823.0, 1818.0, 1818.0, 1818.0, 1821.0, 1822.0, 1818.0, 1811.0, 1809.0, 1812.0, 1815.0, 1816.0, 1819.0, 1820.0, 1818.0, 1815.0, 1814.0, 1816.0, 1820.0, 1817.0, 1816.0, 1814.0, 1805.0, 1813.0, 1826.0, 1821.0, 1815.0, 1814.0, 1815.0, 1816.0, 1820.0, 1820.0, 1817.0, 1814.0, 1813.0, 1814.0, 1816.0, 1818.0, 1817.0, 1817.0, 1818.0]
    },
    "slices": {}
  }
}