{
  "AcquisitionMatrixPE": 100,
  "AcquisitionNumber": 1,
  "AcquisitionTime": "12:39:19.505000",
  "BandwidthPerPixelPhaseEncode": 18.519,
  "BaseResolution": 100,
  "BodyPartExamined": "BRAIN",
  "ConsistencyInfo": "N4_VE11C_LATEST_20160120",
  "ConversionSoftware": "dcm2niix",
  "ConversionSoftwareVersion": "v1.0.20180622 GCC4.9.2",
  "DerivedVendorReportedEchoSpacing": 0.000539986,
  "DeviceSerialNumber": "166078",
  "DwellTime": 2.1e-06,
  "EchoTime": 0.034,
  "EchoTrainLength": 100,
  "EffectiveEchoSpacing": 0.000539986,
  "FlipAngle": 90,
  "ImageOrientationPatientDICOM": [0.999877, 0.00215892, 0.0155582, -3.19464e-08, 0.990509, -0.137445],
  "ImageType": [
    "ORIGINAL",
    "PRIMARY",
    "M",
    "ND",
    "MOSAIC"
],
  "InPlanePhaseEncodingDirectionDICOM": "COL",
  "InstitutionAddress": "Street_StreetNo_Bei_Jing_District_CN_ZIP",
  "InstitutionName": "BeiJing_Normal_University",
  "InstitutionalDepartmentName": "Department",
  "MRAcquisitionType": "2D",
  "MagneticFieldStrength": 3,
  "Manufacturer": "Siemens",
  "ManufacturersModelName": "Prisma",
  "Modality": "MR",
  "MultibandAccelerationFactor": 3,
  "PartialFourier": 1,
  "PatientPosition": "HFS",
  "PercentPhaseFOV": 100,
  "PhaseEncodingDirection": "j-",
  "PhaseEncodingSteps": 100,
  "PhaseResolution": 1,
  "PixelBandwidth": 2380,
  "ProcedureStepDescription": "BNU_P2018_64CH_Liu.Jia",
  "ProtocolName": "bold_100x100_s3_2x2x2_232",
  "PulseSequenceDetails": "%SiemensSeq%_ep2d_bold",
  "ReceiveCoilActiveElements": "HC1-7;NC1",
  "ReceiveCoilName": "HeadNeck_64",
  "ReconMatrixPE": 100,
  "RepetitionTime": 2,
  "SAR": 0.0684342,
  "ScanOptions": "FS",
  "ScanningSequence": "EP",
  "SequenceName": "_epfid2d1_100",
  "SequenceVariant": "SK",
  "SeriesDescription": "bold_100x100_s3_2x2x2_232",
  "SeriesNumber": 3,
  "ShimSetting": [-5461, -11511, -1255, 289, -58, -91, -122, 31],
  "SliceThickness": 2,
  "SliceTiming": [1.485, 0, 0.99, 0.0825, 1.0725, 0.165, 1.155, 0.2475, 1.2375, 0.33, 1.32, 0.4125, 1.4025, 0.5775, 1.5675, 0.66, 1.65, 0.7425, 1.7325, 0.825, 1.815, 0.9075, 1.8975, 0.495, 1.485, 0, 0.99, 0.0825, 1.0725, 0.165, 1.155, 0.2475, 1.2375, 0.33, 1.32, 0.4125, 1.4025, 0.5775, 1.5675, 0.66, 1.65, 0.7425, 1.7325, 0.825, 1.815, 0.9075, 1.8975, 0.495, 1.485, 0, 0.99, 0.0825, 1.0725, 0.165, 1.155, 0.2475, 1.2375, 0.33, 1.32, 0.4125, 1.4025, 0.5775, 1.5675, 0.66, 1.65, 0.7425, 1.7325, 0.825, 1.815, 0.9075, 1.8975, 0.495],
  "SoftwareVersions": "syngo_MR_E11",
  "SpacingBetweenSlices": 2,
  "StationName": "AWP166078",
  "TaskName": "motor",
  "TotalReadoutTime": 0.0534586,
  "TxRefAmp": 234.337,
  "dcmmeta_affine": [
    [-1.9997532367706299, -6.389272755313868e-08, 0.031414639204740524, 98.87244415283203],
    [-0.0043178340420126915, 1.9810189008712769, -0.27485519647598267, -86.6429443359375],
    [0.031116487458348274, 0.2748890817165375, 1.9807745218276978, -80.67809295654297],
    [0.0, 0.0, 0.0, 1.0]
],
  "dcmmeta_reorient_transform": [
    [0.0, -1.0, 0.0, 99.0],
    [1.0, 0.0, 0.0, 0.0],
    [0.0, 0.0, 1.0, 0.0],
    [0.0, 0.0, 0.0, 1.0]
],
  "dcmmeta_shape": [100, 100, 72, 232],
  "dcmmeta_slice_dim": 2,
  "dcmmeta_version": 0.6,
  "global": {
    "const": {
      "AcquisitionMatrix": [100, 0, 0, 100],
      "AngioFlag": "N",
      "BitsAllocated": 16,
      "BitsStored": 12,
      "BodyPartExamined": "BRAIN",
      "Columns": 900,
      "EchoNumbers": 1,
      "EchoTime": 34.0,
      "EchoTrainLength": 100,
      "FlipAngle": 90.0,
      "HighBit": 11,
      "ImageOrientationPatient": [0.99987663245622, 0.00215891698034, 0.01555824365034, -3.1946365e-08, 0.99050946305202, -0.1374445473797],
      "ImagePositionPatient": [-898.77372098503, -903.61263688538, 44.044971024876],
      "ImageType": [
        "ORIGINAL",
        "PRIMARY",
        "M",
        "ND",
        "MOSAIC"
],
      "ImagedNucleus": "1H",
      "ImagingFrequency": 123.257809,
      "InPlanePhaseEncodingDirection": "COL",
      "MRAcquisitionType": "2D",
      "MagneticFieldStrength": 3.0,
      "Manufacturer": "SIEMENS",
      "ManufacturerModelName": "Prisma",
      "Modality": "MR",
      "NumberOfAverages": 1.0,
      "NumberOfPhaseEncodingSteps": 100,
      "PercentPhaseFieldOfView": 100.0,
      "PercentSampling": 100.0,
      "PerformedProcedureStepStartTime": "123548.598000",
      "PhotometricInterpretation": "MONOCHROME2",
      "PixelBandwidth": 2380.0,
      "PixelRepresentation": 0,
      "PixelSpacing": [2.0, 2.0],
      "ProtocolName": "bold_100x100_s3_2x2x2_232",
      "RepetitionTime": 2000.0,
      "Rows": 900,
      "SAR": 0.06843418486062,
      "SamplesPerPixel": 1,
      "ScanOptions": "FS",
      "ScanningSequence": "EP",
      "SequenceName": "*epfid2d1_100",
      "SequenceVariant": "SK",
      "SeriesDescription": "bold_100x100_s3_2x2x2_232",
      "SeriesNumber": 3,
      "SeriesTime": "123922.462000",
      "SliceLocation": -66.442403666325,
      "SliceThickness": 2.0,
      "SmallestImagePixelValue": 0,
      "SoftwareVersions": "syngo MR E11",
      "SpacingBetweenSlices": 2.0000000357771,
      "SpecificCharacterSet": "ISO_IR 100",
      "StudyID": "1",
      "StudyTime": "123548.500000",
      "TransmitCoilName": "Body",
      "VariableFlipAngleFlag": "N",
      "WindowCenterWidthExplanation": "Algo1",
      "dBdt": 0.0},
    "slices": {}
  },
  "time": {
    "samples": {
      "AcquisitionNumber": [1, 2, 3, 4, 5, 6, 7, 8, 9, 10, 11, 12, 13, 14, 15, 16, 17, 18, 19, 20, 21, 22, 23, 24, 25, 26, 27, 28, 29, 30, 31, 32, 33, 34, 35, 36, 37, 38, 39, 40, 41, 42, 43, 44, 45, 46, 47, 48, 49, 50, 51, 52, 53, 54, 55, 56, 57, 58, 59, 60, 61, 62, 63, 64, 65, 66, 67, 68, 69, 70, 71, 72, 73, 74, 75, 76, 77, 78, 79, 80, 81, 82, 83, 84, 85, 86, 87, 88, 89, 90, 91, 92, 93, 94, 95, 96, 97, 98, 99, 100, 101, 102, 103, 104, 105, 106, 107, 108, 109, 110, 111, 112, 113, 114, 115, 116, 117, 118, 119, 120, 121, 122, 123, 124, 125, 126, 127, 128, 129, 130, 131, 132, 133, 134, 135, 136, 137, 138, 139, 140, 141, 142, 143, 144, 145, 146, 147, 148, 149, 150, 151, 152, 153, 154, 155, 156, 157, 158, 159, 160, 161, 162, 163, 164, 165, 166, 167, 168, 169, 170, 171, 172, 173, 174, 175, 176, 177, 178, 179, 180, 181, 182, 183, 184, 185, 186, 187, 188, 189, 190, 191, 192, 193, 194, 195, 196, 197, 198, 199, 200, 201, 202, 203, 204, 205, 206, 207, 208, 209, 210, 211, 212, 213, 214, 215, 216, 217, 218, 219, 220, 221, 222, 223, 224, 225, 226, 227, 228, 229, 230, 231, 232],
      "AcquisitionTime": ["123919.505000", "123921.505000", "123923.505000", "123925.505000", "123927.505000", "123929.505000", "123931.505000", "123933.505000", "123935.505000", "123937.505000", "123939.505000", "123941.505000", "123943.505000", "123945.505000", "123947.505000", "123949.505000", "123951.505000", "123953.505000", "123955.505000", "123957.505000", "123959.505000", "124001.505000", "124003.505000", "124005.505000", "124007.505000", "124009.505000", "124011.505000", "124013.505000", "124015.505000", "124017.505000", "124019.505000", "124021.505000", "124023.505000", "124025.505000", "124027.505000", "124029.505000", "124031.505000", "124033.505000", "124035.505000", "124037.505000", "124039.505000", "124041.505000", "124043.505000", "124045.505000", "124047.505000", "124049.505000", "124051.505000", "124053.505000", "124055.505000", "124057.505000", "124059.505000", "124101.505000", "124103.505000", "124105.505000", "124107.505000", "124109.505000", "124111.505000", "124113.505000", "124115.505000", "124117.505000", "124119.505000", "124121.505000", "124123.505000", "124125.505000", "124127.505000", "124129.505000", "124131.505000", "124133.505000", "124135.505000", "124137.505000", "124139.505000", "124141.505000", "124143.505000", "124145.505000", "124147.505000", "124149.505000", "124151.505000", "124153.505000", "124155.505000", "124157.505000", "124159.505000", "124201.505000", "124203.505000", "124205.505000", "124207.505000", "124209.505000", "124211.505000", "124213.505000", "124215.505000", "124217.505000", "124219.505000", "124221.505000", "124223.505000", "124225.505000", "124227.505000", "124229.505000", "124231.505000", "124233.505000", "124235.505000", "124237.505000", "124239.505000", "124241.505000", "124243.505000", "124245.505000", "124247.505000", "124249.505000", "124251.505000", "124253.505000", "124255.505000", "124257.505000", "124259.505000", "124301.505000", "124303.505000", "124305.505000", "124307.505000", "124309.505000", "124311.505000", "124313.505000", "124315.505000", "124317.505000", "124319.505000", "124321.505000", "124323.505000", "124325.505000", "124327.505000", "124329.505000", "124331.505000", "124333.505000", "124335.505000", "124337.505000", "124339.505000", "124341.505000", "124343.505000", "124345.505000", "124347.505000", "124349.505000", "124351.505000", "124353.505000", "124355.505000", "124357.505000", "124359.505000", "124401.505000", "124403.505000", "124405.505000", "124407.505000", "124409.505000", "124411.505000", "124413.505000", "124415.505000", "124417.505000", "124419.505000", "124421.505000", "124423.505000", "124425.505000", "124427.505000", "124429.505000", "124431.505000", "124433.505000", "124435.505000", "124437.505000", "124439.505000", "124441.505000", "124443.505000", "124445.505000", "124447.505000", "124449.505000", "124451.505000", "124453.505000", "124455.505000", "124457.505000", "124459.505000", "124501.505000", "124503.505000", "124505.505000", "124507.505000", "124509.505000", "124511.505000", "124513.505000", "124515.505000", "124517.505000", "124519.505000", "124521.505000", "124523.505000", "124525.505000", "124527.505000", "124529.505000", "124531.505000", "124533.505000", "124535.505000", "124537.505000", "124539.505000", "124541.505000", "124543.505000", "124545.505000", "124547.505000", "124549.505000", "124551.505000", "124553.505000", "124555.505000", "124557.505000", "124559.505000", "124601.505000", "124603.505000", "124605.505000", "124607.505000", "124609.505000", "124611.505000", "124613.505000", "124615.505000", "124617.505000", "124619.505000", "124621.505000", "124623.505000", "124625.505000", "124627.505000", "124629.505000", "124631.505000", "124633.505000", "124635.505000", "124637.505000", "124639.505000", "124641.505000", "124643.505000", "124645.505000", "124647.505000", "124649.505000", "124651.505000", "124653.505000", "124655.505000", "124657.505000", "124659.505000", "124701.505000"],
      "ContentTime": ["123922.466000", "123923.962000", "123925.963000", "123927.461000", "123929.964000", "123931.962000", "123933.962000", "123935.962000", "123937.962000", "123939.961000", "123941.961000", "123943.961000", "123945.961000", "123947.962000", "123949.962000", "123951.462000", "123953.963000", "123955.962000", "123957.961000", "123959.461000", "124001.961000", "124003.961000", "124005.963000", "124007.462000", "124009.962000", "124011.963000", "124013.462000", "124015.962000", "124017.961000", "124019.961000", "124021.461000", "124023.962000", "124025.962000", "124027.462000", "124029.962000", "124031.461000", "124033.962000", "124035.961000", "124037.461000", "124039.962000", "124041.962000", "124043.462000", "124045.962000", "124047.463000", "124049.462000", "124051.461000", "124053.462000", "124055.461000", "124057.962000", "124059.462000", "124101.462000", "124103.962000", "124105.962000", "124107.961000", "124109.962000", "124111.461000", "124113.961000", "124115.962000", "124117.462000", "124119.962000", "124121.962000", "124123.463000", "124125.461000", "124127.961000", "124129.962000", "124131.962000", "124133.962000", "124135.463000", "124137.963000", "124139.962000", "124141.961000", "124143.461000", "124145.461000", "124147.961000", "124149.961000", "124151.962000", "124153.962000", "124155.962000", "124157.462000", "124159.961000", "124201.461000", "124203.461000", "124205.461000", "124207.962000", "124209.962000", "124211.963000", "124213.963000", "124215.962000", "124217.461000", "124219.461000", "124221.461000", "124223.961000", "124225.962000", "124227.462000", "124229.962000", "124231.962000", "124233.961000", "124235.961000", "124237.961000", "124239.461000", "124241.962000", "124243.462000", "124245.963000", "124247.962000", "124249.463000", "124251.962000", "124253.461000", "124255.961000", "124257.961000", "124259.961000", "124301.462000", "124303.462000", "124305.963000", "124307.962000", "124309.461000", "124311.961000", "124313.962000", "124315.961000", "124317.961000", "124319.462000", "124321.462000", "124323.963000", "124325.462000", "124327.961000", "124329.461000", "124331.461000", "124333.461000", "124335.461000", "124337.963000", "124339.462000", "124341.462000", "124343.462000", "124345.962000", "124347.461000", "124349.962000", "124351.461000", "124353.962000", "124355.962000", "124357.962000", "124359.462000", "124401.461000", "124403.962000", "124405.962000", "124407.961000", "124409.962000", "124411.963000", "124413.962000", "124415.963000", "124417.962000", "124419.961000", "124421.461000", "124423.462000", "124425.962000", "124427.961000", "124429.962000", "124431.962000", "124433.462000", "124435.963000", "124437.962000", "124439.961000", "124441.461000", "124443.461000", "124445.963000", "124447.963000", "124449.963000", "124451.963000", "124453.962000", "124455.961000", "124457.461000", "124459.962000", "124501.961000", "124503.962000", "124505.963000", "124507.962000", "124509.962000", "124511.961000", "124513.461000", "124515.461000", "124517.961000", "124519.461000", "124521.462000", "124523.462000", "124525.962000", "124527.462000", "124529.961000", "124531.961000", "124533.961000", "124535.962000", "124537.461000", "124539.962000", "124541.962000", "124543.963000", "124545.963000", "124547.962000", "124549.961000", "124551.962000", "124553.461000", "124555.962000", "124557.462000", "124559.962000", "124601.962000", "124603.462000", "124605.962000", "124607.961000", "124609.962000", "124611.461000", "124613.962000", "124615.962000", "124617.962000", "124619.462000", "124621.462000", "124623.961000", "124625.962000", "124627.961000", "124629.962000", "124631.462000", "124633.962000", "124635.963000", "124637.462000", "124639.461000", "124641.962000", "124643.461000", "124645.461000", "124647.962000", "124649.962000", "124651.962000", "124653.962000", "124655.962000", "124657.962000", "124659.961000", "124701.961000", "124703.443000"],
      "InstanceCreationTime": ["123922.466000", "123923.962000", "123925.963000", "123927.461000", "123929.964000", "123931.962000", "123933.962000", "123935.962000", "123937.962000", "123939.961000", "123941.961000", "123943.961000", "123945.961000", "123947.962000", "123949.962000", "123951.462000", "123953.963000", "123955.962000", "123957.961000", "123959.461000", "124001.961000", "124003.961000", "124005.963000", "124007.462000", "124009.962000", "124011.963000", "124013.462000", "124015.962000", "124017.961000", "124019.961000", "124021.461000", "124023.962000", "124025.962000", "124027.462000", "124029.962000", "124031.461000", "124033.962000", "124035.961000", "124037.461000", "124039.962000", "124041.962000", "124043.462000", "124045.962000", "124047.463000", "124049.462000", "124051.461000", "124053.462000", "124055.461000", "124057.962000", "124059.462000", "124101.462000", "124103.962000", "124105.962000", "124107.961000", "124109.962000", "124111.461000", "124113.961000", "124115.962000", "124117.462000", "124119.962000", "124121.962000", "124123.463000", "124125.461000", "124127.961000", "124129.962000", "124131.962000", "124133.962000", "124135.463000", "124137.963000", "124139.962000", "124141.961000", "124143.461000", "124145.461000", "124147.961000", "124149.961000", "124151.962000", "124153.962000", "124155.962000", "124157.462000", "124159.961000", "124201.461000", "124203.461000", "124205.461000", "124207.962000", "124209.962000", "124211.963000", "124213.963000", "124215.962000", "124217.461000", "124219.461000", "124221.461000", "124223.961000", "124225.962000", "124227.462000", "124229.962000", "124231.962000", "124233.961000", "124235.961000", "124237.961000", "124239.461000", "124241.962000", "124243.462000", "124245.963000", "124247.962000", "124249.463000", "124251.962000", "124253.461000", "124255.961000", "124257.961000", "124259.961000", "124301.462000", "124303.462000", "124305.963000", "124307.962000", "124309.461000", "124311.961000", "124313.962000", "124315.961000", "124317.961000", "124319.462000", "124321.462000", "124323.963000", "124325.462000", "124327.961000", "124329.461000", "124331.461000", "124333.461000", "124335.461000", "124337.963000", "124339.462000", "124341.462000", "124343.462000", "124345.962000", "124347.461000", "124349.962000", "124351.461000", "124353.962000", "124355.962000", "124357.962000", "124359.462000", "124401.461000", "124403.962000", "124405.962000", "124407.961000", "124409.962000", "124411.963000", "124413.962000", "124415.963000", "124417.962000", "124419.961000", "124421.461000", "124423.462000", "124425.962000", "124427.961000", "124429.962000", "124431.962000", "124433.462000", "124435.963000", "124437.962000", "124439.961000", "124441.461000", "124443.461000", "124445.963000", "124447.963000", "124449.963000", "124451.963000", "124453.962000", "124455.961000", "124457.461000", "124459.962000", "124501.961000", "124503.962000", "124505.963000", "124507.962000", "124509.962000", "124511.961000", "124513.461000", "124515.461000", "124517.961000", "124519.461000", "124521.462000", "124523.462000", "124525.962000", "124527.462000", "124529.961000", "124531.961000", "124533.961000", "124535.962000", "124537.461000", "124539.962000", "124541.962000", "124543.963000", "124545.963000", "124547.962000", "124549.961000", "124551.962000", "124553.461000", "124555.962000", "124557.462000", "124559.962000", "124601.962000", "124603.462000", "124605.962000", "124607.961000", "124609.962000", "124611.461000", "124613.962000", "124615.962000", "124617.962000", "124619.462000", "124621.462000", "124623.961000", "124625.962000", "124627.961000", "124629.962000", "124631.462000", "124633.962000", "124635.963000", "124637.462000", "124639.461000", "124641.962000", "124643.461000", "124645.461000", "124647.962000", "124649.962000", "124651.962000", "124653.962000", "124655.962000", "124657.962000", "124659.961000", "124701.961000", "124703.443000"],
      "InstanceNumber": [1, 2, 3, 4, 5, 6, 7, 8, 9, 10, 11, 12, 13, 14, 15, 16, 17, 18, 19, 20, 21, 22, 23, 24, 25, 26, 27, 28, 29, 30, 31, 32, 33, 34, 35, 36, 37, 38, 39, 40, 41, 42, 43, 44, 45, 46, 47, 48, 49, 50, 51, 52, 53, 54, 55, 56, 57, 58, 59, 60, 61, 62, 63, 64, 65, 66, 67, 68, 69, 70, 71, 72, 73, 74, 75, 76, 77, 78, 79, 80, 81, 82, 83, 84, 85, 86, 87, 88, 89, 90, 91, 92, 93, 94, 95, 96, 97, 98, 99, 100, 101, 102, 103, 104, 105, 106, 107, 108, 109, 110, 111, 112, 113, 114, 115, 116, 117, 118, 119, 120, 121, 122, 123, 124, 125, 126, 127, 128, 129, 130, 131, 132, 133, 134, 135, 136, 137, 138, 139, 140, 141, 142, 143, 144, 145, 146, 147, 148, 149, 150, 151, 152, 153, 154, 155, 156, 157, 158, 159, 160, 161, 162, 163, 164, 165, 166, 167, 168, 169, 170, 171, 172, 173, 174, 175, 176, 177, 178, 179, 180, 181, 182, 183, 184, 185, 186, 187, 188, 189, 190, 191, 192, 193, 194, 195, 196, 197, 198, 199, 200, 201, 202, 203, 204, 205, 206, 207, 208, 209, 210, 211, 212, 213, 214, 215, 216, 217, 218, 219, 220, 221, 222, 223, 224, 225, 226, 227, 228, 229, 230, 231, 232],
      "LargestImagePixelValue": [4015, 4004, 4006, 4036, 4000, 4017, 3959, 4005, 3991, 3968, 4036, 4014, 4012, 4013, 4042, 3997, 4014, 4019, 4029, 3992, 4016, 3964, 3971, 3997, 3955, 3990, 3988, 3975, 4010, 3994, 3983, 3969, 4055, 3930, 3714, 3976, 4095, 4095, 4033, 3962, 4095, 3956, 4079, 4001, 3998, 3984, 4064, 4074, 4095, 4095, 4095, 4003, 4008, 3877, 3903, 3883, 3924, 3936, 3869, 3886, 3913, 3921, 3883, 3915, 3849, 3860, 3864, 3918, 3890, 3889, 3970, 3930, 3926, 3934, 3900, 3893, 3896, 3983, 3942, 3946, 3920, 4008, 3955, 3947, 4001, 4032, 3978, 4013, 4053, 4095, 4088, 4054, 4023, 4031, 3993, 4034, 4027, 4050, 3919, 4001, 4095, 4095, 3972, 4095, 4095, 4095, 4095, 4040, 4042, 4054, 4052, 4047, 4045, 4095, 4095, 4095, 4095, 4095, 4095, 4095, 4095, 4095, 4095, 4095, 4095, 4095, 4095, 4095, 4093, 4095, 3983, 4095, 4085, 4075, 4095, 4095, 4095, 4095, 4095, 4095, 4095, 4095, 4095, 4095, 4095, 4095, 4095, 4095, 4095, 4095, 4095, 4095, 4095, 4095, 4095, 4095, 4093, 4051, 4030, 4040, 4073, 4070, 4095, 4037, 4095, 4083, 4095, 4084, 4095, 4095, 4095, 4095, 4095, 4090, 4095, 4095, 4095, 4095, 4095, 4095, 4095, 4092, 4095, 4068, 4095, 4038, 4054, 4095, 4059, 4095, 4095, 4095, 4076, 4095, 3903, 4067, 4095, 4095, 3921, 3836, 3870, 4095, 4095, 4095, 4088, 4074, 4094, 4060, 4068, 4078, 4060, 4032, 4013, 4054, 4046, 4057, 4084, 4086, 4076, 4032, 4038, 4077, 4047, 4002, 3988, 4033, 4015, 4063, 4029, 4064, 4059, 4031],
      "WindowCenter": [839.0, 838.0, 838.0, 838.0, 839.0, 840.0, 840.0, 839.0, 838.0, 839.0, 840.0, 841.0, 841.0, 841.0, 842.0, 844.0, 843.0, 842.0, 843.0, 844.0, 844.0, 844.0, 843.0, 843.0, 842.0, 842.0, 842.0, 842.0, 842.0, 841.0, 842.0, 842.0, 842.0, 837.0, 825.0, 825.0, 824.0, 838.0, 832.0, 826.0, 841.0, 842.0, 843.0, 846.0, 844.0, 842.0, 842.0, 842.0, 841.0, 840.0, 840.0, 840.0, 840.0, 840.0, 840.0, 840.0, 840.0, 842.0, 841.0, 840.0, 840.0, 839.0, 839.0, 839.0, 838.0, 837.0, 838.0, 839.0, 838.0, 838.0, 839.0, 840.0, 840.0, 840.0, 840.0, 840.0, 840.0, 840.0, 840.0, 840.0, 840.0, 842.0, 842.0, 841.0, 842.0, 843.0, 842.0, 843.0, 843.0, 843.0, 842.0, 839.0, 838.0, 840.0, 842.0, 842.0, 840.0, 834.0, 830.0, 832.0, 836.0, 838.0, 830.0, 835.0, 842.0, 841.0, 841.0, 841.0, 840.0, 839.0, 840.0, 841.0, 841.0, 841.0, 840.0, 840.0, 842.0, 842.0, 839.0, 837.0, 837.0, 839.0, 839.0, 838.0, 837.0, 836.0, 837.0, 837.0, 839.0, 841.0, 836.0, 837.0, 836.0, 839.0, 839.0, 838.0, 837.0, 839.0, 837.0, 837.0, 837.0, 838.0, 838.0, 838.0, 838.0, 839.0, 839.0, 839.0, 838.0, 838.0, 840.0, 840.0, 840.0, 841.0, 840.0, 839.0, 838.0, 838.0, 838.0, 839.0, 839.0, 840.0, 840.0, 840.0, 840.0, 840.0, 840.0, 839.0, 837.0, 837.0, 838.0, 840.0, 840.0, 839.0, 838.0, 837.0, 837.0, 837.0, 838.0, 837.0, 838.0, 837.0, 836.0, 836.0, 838.0, 839.0, 840.0, 841.0, 842.0, 842.0, 841.0, 840.0, 840.0, 836.0, 832.0, 838.0, 838.0, 838.0, 834.0, 831.0, 834.0, 842.0, 842.0, 841.0, 840.0, 840.0, 841.0, 841.0, 841.0, 841.0, 841.0, 840.0, 841.0, 842.0, 843.0, 842.0, 842.0, 843.0, 843.0, 841.0, 839.0, 839.0, 839.0, 840.0, 841.0, 842.0, 842.0, 843.0, 841.0, 840.0, 838.0, 839.0],
      "WindowWidth": [1818.0, 1813.0, 1813.0, 1815.0, 1816.0, 1820.0, 1820.0, 1818.0, 1815.0, 1817.0, 1821.0, 1821.0, 1823.0, 1824.0, 1825.0, 1830.0, 1829.0, 1826.0, 1828.0, 1831.0, 1832.0, 1830.0, 1829.0, 1828.0, 1827.0, 1826.0, 1826.0, 1825.0, 1824.0, 1824.0, 1825.0, 1825.0, 1824.0, 1813.0, 1779.0, 1783.0, 1781.0, 1818.0, 1800.0, 1785.0, 1828.0, 1824.0, 1826.0, 1835.0, 1829.0, 1824.0, 1824.0, 1825.0, 1822.0, 1820.0, 1818.0, 1817.0, 1818.0, 1818.0, 1819.0, 1818.0, 1820.0, 1823.0, 1822.0, 1818.0, 1818.0, 1817.0, 1816.0, 1817.0, 1812.0, 1810.0, 1813.0, 1815.0, 1813.0, 1812.0, 1815.0, 1818.0, 1820.0, 1819.0, 1819.0, 1818.0, 1818.0, 1819.0, 1819.0, 1818.0, 1819.0, 1824.0, 1823.0, 1823.0, 1825.0, 1827.0, 1826.0, 1827.0, 1827.0, 1826.0, 1823.0, 1817.0, 1814.0, 1820.0, 1825.0, 1825.0, 1820.0, 1804.0, 1794.0, 1798.0, 1809.0, 1813.0, 1793.0, 1805.0, 1824.0, 1823.0, 1822.0, 1821.0, 1818.0, 1816.0, 1818.0, 1820.0, 1822.0, 1822.0, 1819.0, 1819.0, 1824.0, 1823.0, 1816.0, 1810.0, 1811.0, 1814.0, 1816.0, 1812.0, 1809.0, 1808.0, 1810.0, 1812.0, 1816.0, 1820.0, 1807.0, 1811.0, 1807.0, 1814.0, 1815.0, 1814.0, 1810.0, 1815.0, 1810.0, 1810.0, 1811.0, 1814.0, 1814.0, 1812.0, 1811.0, 1814.0, 1816.0, 1815.0, 1813.0, 1814.0, 1818.0, 1818.0, 1817.0, 1821.0, 1819.0, 1815.0, 1813.0, 1813.0, 1814.0, 1815.0, 1816.0, 1818.0, 1820.0, 1818.0, 1819.0, 1819.0, 1819.0, 1816.0, 1811.0, 1810.0, 1814.0, 1817.0, 1818.0, 1815.0, 1813.0, 1809.0, 1809.0, 1810.0, 1813.0, 1810.0, 1814.0, 1811.0, 1808.0, 1808.0, 1813.0, 1815.0, 1817.0, 1821.0, 1823.0, 1822.0, 1821.0, 1818.0, 1818.0, 1807.0, 1795.0, 1812.0, 1813.0, 1813.0, 1800.0, 1791.0, 1802.0, 1825.0, 1822.0, 1820.0, 1817.0, 1817.0, 1819.0, 1820.0, 1820.0, 1820.0, 1819.0, 1818.0, 1820.0, 1824.0, 1826.0, 1823.0, 1822.0, 1825.0, 1826.0, 1820.0, 1814.0, 1815.0, 1816.0, 1818.0, 1821.0, 1823.0, 1824.0, 1825.0, 1821.0, 1817.0, 1813.0, 1814.0]
    },
    "slices": {}
  }
}