{
  "AcquisitionMatrixPE": 100,
  "AcquisitionNumber": 1,
  "AcquisitionTime": "12:48:19.125000",
  "BandwidthPerPixelPhaseEncode": 18.519,
  "BaseResolution": 100,
  "BodyPartExamined": "BRAIN",
  "ConsistencyInfo": "N4_VE11C_LATEST_20160120",
  "ConversionSoftware": "dcm2niix",
  "ConversionSoftwareVersion": "v1.0.20180622 GCC4.9.2",
  "DerivedVendorReportedEchoSpacing": 0.000539986,
  "DeviceSerialNumber": "166078",
  "DwellTime": 2.1e-06,
  "EchoTime": 0.034,
  "EchoTrainLength": 100,
  "EffectiveEchoSpacing": 0.000539986,
  "FlipAngle": 90,
  "ImageOrientationPatientDICOM": [0.999877, 0.00215892, 0.0155582, -3.19464e-08, 0.990509, -0.137445],
  "ImageType": [
    "ORIGINAL",
    "PRIMARY",
    "M",
    "ND",
    "MOSAIC"
],
  "InPlanePhaseEncodingDirectionDICOM": "COL",
  "InstitutionAddress": "Street_StreetNo_Bei_Jing_District_CN_ZIP",
  "InstitutionName": "BeiJing_Normal_University",
  "InstitutionalDepartmentName": "Department",
  "MRAcquisitionType": "2D",
  "MagneticFieldStrength": 3,
  "Manufacturer": "Siemens",
  "ManufacturersModelName": "Prisma",
  "Modality": "MR",
  "MultibandAccelerationFactor": 3,
  "PartialFourier": 1,
  "PatientPosition": "HFS",
  "PercentPhaseFOV": 100,
  "PhaseEncodingDirection": "j-",
  "PhaseEncodingSteps": 100,
  "PhaseResolution": 1,
  "PixelBandwidth": 2380,
  "ProcedureStepDescription": "BNU_P2018_64CH_Liu.Jia",
  "ProtocolName": "bold_100x100_s3_2x2x2_232",
  "PulseSequenceDetails": "%SiemensSeq%_ep2d_bold",
  "ReceiveCoilActiveElements": "HC1-7;NC1",
  "ReceiveCoilName": "HeadNeck_64",
  "ReconMatrixPE": 100,
  "RepetitionTime": 2,
  "SAR": 0.0684342,
  "ScanOptions": "FS",
  "ScanningSequence": "EP",
  "SequenceName": "_epfid2d1_100",
  "SequenceVariant": "SK",
  "SeriesDescription": "bold_100x100_s3_2x2x2_232",
  "SeriesNumber": 4,
  "ShimSetting": [-5461, -11511, -1255, 289, -58, -91, -122, 31],
  "SliceThickness": 2,
  "SliceTiming": [1.485, 0, 0.99, 0.0825, 1.0725, 0.165, 1.155, 0.2475, 1.2375, 0.33, 1.32, 0.4125, 1.4025, 0.5775, 1.5675, 0.66, 1.65, 0.7425, 1.7325, 0.825, 1.815, 0.9075, 1.8975, 0.495, 1.485, 0, 0.99, 0.0825, 1.0725, 0.165, 1.155, 0.2475, 1.2375, 0.33, 1.32, 0.4125, 1.4025, 0.5775, 1.5675, 0.66, 1.65, 0.7425, 1.7325, 0.825, 1.815, 0.9075, 1.8975, 0.495, 1.485, 0, 0.99, 0.0825, 1.0725, 0.165, 1.155, 0.2475, 1.2375, 0.33, 1.32, 0.4125, 1.4025, 0.5775, 1.5675, 0.66, 1.65, 0.7425, 1.7325, 0.825, 1.815, 0.9075, 1.8975, 0.495],
  "SoftwareVersions": "syngo_MR_E11",
  "SpacingBetweenSlices": 2,
  "StationName": "AWP166078",
  "TaskName": "motor",
  "TotalReadoutTime": 0.0534586,
  "TxRefAmp": 234.337,
  "dcmmeta_affine": [
    [-1.9997532367706299, -6.389272755313868e-08, 0.031414639204740524, 98.87244415283203],
    [-0.0043178340420126915, 1.9810189008712769, -0.27485519647598267, -86.6429443359375],
    [0.031116487458348274, 0.2748890817165375, 1.9807745218276978, -80.67809295654297],
    [0.0, 0.0, 0.0, 1.0]
],
  "dcmmeta_reorient_transform": [
    [0.0, -1.0, 0.0, 99.0],
    [1.0, 0.0, 0.0, 0.0],
    [0.0, 0.0, 1.0, 0.0],
    [0.0, 0.0, 0.0, 1.0]
],
  "dcmmeta_shape": [100, 100, 72, 232],
  "dcmmeta_slice_dim": 2,
  "dcmmeta_version": 0.6,
  "global": {
    "const": {
      "AcquisitionMatrix": [100, 0, 0, 100],
      "AngioFlag": "N",
      "BitsAllocated": 16,
      "BitsStored": 12,
      "BodyPartExamined": "BRAIN",
      "Columns": 900,
      "EchoNumbers": 1,
      "EchoTime": 34.0,
      "EchoTrainLength": 100,
      "FlipAngle": 90.0,
      "HighBit": 11,
      "ImageOrientationPatient": [0.99987663245622, 0.00215891698034, 0.01555824365034, -3.1946365e-08, 0.99050946305202, -0.1374445473797],
      "ImagePositionPatient": [-898.77372098503, -903.61263688538, 44.044971024876],
      "ImageType": [
        "ORIGINAL",
        "PRIMARY",
        "M",
        "ND",
        "MOSAIC"
],
      "ImagedNucleus": "1H",
      "ImagingFrequency": 123.257825,
      "InPlanePhaseEncodingDirection": "COL",
      "MRAcquisitionType": "2D",
      "MagneticFieldStrength": 3.0,
      "Manufacturer": "SIEMENS",
      "ManufacturerModelName": "Prisma",
      "Modality": "MR",
      "NumberOfAverages": 1.0,
      "NumberOfPhaseEncodingSteps": 100,
      "PercentPhaseFieldOfView": 100.0,
      "PercentSampling": 100.0,
      "PerformedProcedureStepStartTime": "123548.598000",
      "PhotometricInterpretation": "MONOCHROME2",
      "PixelBandwidth": 2380.0,
      "PixelRepresentation": 0,
      "PixelSpacing": [2.0, 2.0],
      "ProtocolName": "bold_100x100_s3_2x2x2_232",
      "RepetitionTime": 2000.0,
      "Rows": 900,
      "SAR": 0.06843418486062,
      "SamplesPerPixel": 1,
      "ScanOptions": "FS",
      "ScanningSequence": "EP",
      "SequenceName": "*epfid2d1_100",
      "SequenceVariant": "SK",
      "SeriesDescription": "bold_100x100_s3_2x2x2_232",
      "SeriesNumber": 4,
      "SeriesTime": "124821.633000",
      "SliceLocation": -66.442403666325,
      "SliceThickness": 2.0,
      "SmallestImagePixelValue": 0,
      "SoftwareVersions": "syngo MR E11",
      "SpacingBetweenSlices": 2.0000000357771,
      "SpecificCharacterSet": "ISO_IR 100",
      "StudyID": "1",
      "StudyTime": "123548.500000",
      "TransmitCoilName": "Body",
      "VariableFlipAngleFlag": "N",
      "WindowCenterWidthExplanation": "Algo1",
      "dBdt": 0.0},
    "slices": {}
  },
  "time": {
    "samples": {
      "AcquisitionNumber": [1, 2, 3, 4, 5, 6, 7, 8, 9, 10, 11, 12, 13, 14, 15, 16, 17, 18, 19, 20, 21, 22, 23, 24, 25, 26, 27, 28, 29, 30, 31, 32, 33, 34, 35, 36, 37, 38, 39, 40, 41, 42, 43, 44, 45, 46, 47, 48, 49, 50, 51, 52, 53, 54, 55, 56, 57, 58, 59, 60, 61, 62, 63, 64, 65, 66, 67, 68, 69, 70, 71, 72, 73, 74, 75, 76, 77, 78, 79, 80, 81, 82, 83, 84, 85, 86, 87, 88, 89, 90, 91, 92, 93, 94, 95, 96, 97, 98, 99, 100, 101, 102, 103, 104, 105, 106, 107, 108, 109, 110, 111, 112, 113, 114, 115, 116, 117, 118, 119, 120, 121, 122, 123, 124, 125, 126, 127, 128, 129, 130, 131, 132, 133, 134, 135, 136, 137, 138, 139, 140, 141, 142, 143, 144, 145, 146, 147, 148, 149, 150, 151, 152, 153, 154, 155, 156, 157, 158, 159, 160, 161, 162, 163, 164, 165, 166, 167, 168, 169, 170, 171, 172, 173, 174, 175, 176, 177, 178, 179, 180, 181, 182, 183, 184, 185, 186, 187, 188, 189, 190, 191, 192, 193, 194, 195, 196, 197, 198, 199, 200, 201, 202, 203, 204, 205, 206, 207, 208, 209, 210, 211, 212, 213, 214, 215, 216, 217, 218, 219, 220, 221, 222, 223, 224, 225, 226, 227, 228, 229, 230, 231, 232],
      "AcquisitionTime": ["124819.125000", "124821.125000", "124823.125000", "124825.125000", "124827.125000", "124829.125000", "124831.125000", "124833.125000", "124835.125000", "124837.125000", "124839.125000", "124841.125000", "124843.125000", "124845.125000", "124847.125000", "124849.125000", "124851.125000", "124853.125000", "124855.125000", "124857.125000", "124859.125000", "124901.125000", "124903.125000", "124905.125000", "124907.125000", "124909.125000", "124911.125000", "124913.125000", "124915.125000", "124917.125000", "124919.125000", "124921.125000", "124923.125000", "124925.125000", "124927.125000", "124929.125000", "124931.125000", "124933.125000", "124935.125000", "124937.125000", "124939.125000", "124941.125000", "124943.125000", "124945.125000", "124947.125000", "124949.125000", "124951.125000", "124953.125000", "124955.125000", "124957.125000", "124959.125000", "125001.125000", "125003.125000", "125005.125000", "125007.125000", "125009.125000", "125011.125000", "125013.125000", "125015.125000", "125017.125000", "125019.125000", "125021.125000", "125023.125000", "125025.125000", "125027.125000", "125029.125000", "125031.125000", "125033.125000", "125035.125000", "125037.125000", "125039.125000", "125041.125000", "125043.125000", "125045.125000", "125047.125000", "125049.125000", "125051.125000", "125053.125000", "125055.125000", "125057.125000", "125059.125000", "125101.125000", "125103.125000", "125105.125000", "125107.125000", "125109.125000", "125111.125000", "125113.125000", "125115.125000", "125117.125000", "125119.125000", "125121.125000", "125123.125000", "125125.125000", "125127.125000", "125129.125000", "125131.125000", "125133.125000", "125135.125000", "125137.125000", "125139.125000", "125141.125000", "125143.125000", "125145.125000", "125147.125000", "125149.125000", "125151.125000", "125153.125000", "125155.125000", "125157.125000", "125159.125000", "125201.125000", "125203.125000", "125205.125000", "125207.125000", "125209.125000", "125211.125000", "125213.125000", "125215.125000", "125217.125000", "125219.125000", "125221.125000", "125223.125000", "125225.125000", "125227.125000", "125229.125000", "125231.125000", "125233.125000", "125235.125000", "125237.125000", "125239.125000", "125241.125000", "125243.125000", "125245.125000", "125247.125000", "125249.125000", "125251.125000", "125253.125000", "125255.125000", "125257.125000", "125259.125000", "125301.125000", "125303.125000", "125305.125000", "125307.125000", "125309.125000", "125311.125000", "125313.125000", "125315.125000", "125317.125000", "125319.125000", "125321.125000", "125323.125000", "125325.125000", "125327.125000", "125329.125000", "125331.125000", "125333.125000", "125335.125000", "125337.125000", "125339.125000", "125341.125000", "125343.125000", "125345.125000", "125347.125000", "125349.125000", "125351.125000", "125353.125000", "125355.125000", "125357.125000", "125359.125000", "125401.125000", "125403.125000", "125405.125000", "125407.125000", "125409.125000", "125411.125000", "125413.125000", "125415.125000", "125417.125000", "125419.125000", "125421.125000", "125423.125000", "125425.125000", "125427.125000", "125429.125000", "125431.125000", "125433.125000", "125435.125000", "125437.125000", "125439.125000", "125441.125000", "125443.125000", "125445.125000", "125447.125000", "125449.125000", "125451.125000", "125453.125000", "125455.125000", "125457.125000", "125459.125000", "125501.125000", "125503.125000", "125505.125000", "125507.125000", "125509.125000", "125511.125000", "125513.125000", "125515.125000", "125517.125000", "125519.125000", "125521.125000", "125523.125000", "125525.125000", "125527.125000", "125529.125000", "125531.125000", "125533.125000", "125535.125000", "125537.125000", "125539.125000", "125541.125000", "125543.125000", "125545.125000", "125547.125000", "125549.125000", "125551.125000", "125553.125000", "125555.125000", "125557.125000", "125559.125000", "125601.125000"],
      "ContentTime": ["124821.636000", "124823.132000", "124825.132000", "124827.131000", "124829.131000", "124831.131000", "124833.131000", "124835.131000", "124837.131000", "124839.132000", "124841.131000", "124843.132000", "124845.132000", "124847.132000", "124849.132000", "124851.131000", "124853.131000", "124855.131000", "124857.132000", "124859.132000", "124901.132000", "124903.132000", "124905.131000", "124907.130000", "124909.131000", "124911.131000", "124913.131000", "124915.131000", "124917.131000", "124919.131000", "124921.132000", "124923.131000", "124925.131000", "124927.131000", "124929.131000", "124931.131000", "124933.132000", "124935.131000", "124937.132000", "124939.132000", "124941.131000", "124943.131000", "124945.131000", "124947.131000", "124949.132000", "124951.131000", "124953.131000", "124955.132000", "124957.131000", "124959.131000", "125001.132000", "125003.131000", "125005.131000", "125007.132000", "125009.131000", "125011.131000", "125013.132000", "125015.131000", "125017.131000", "125019.132000", "125021.132000", "125023.131000", "125025.131000", "125027.131000", "125029.132000", "125031.132000", "125033.131000", "125035.130000", "125037.131000", "125039.132000", "125041.132000", "125043.132000", "125045.132000", "125047.132000", "125049.132000", "125051.132000", "125053.131000", "125055.132000", "125057.132000", "125059.132000", "125101.131000", "125103.131000", "125105.131000", "125107.131000", "125109.131000", "125111.131000", "125113.132000", "125115.132000", "125117.132000", "125119.131000", "125121.131000", "125123.132000", "125125.131000", "125127.131000", "125129.132000", "125131.132000", "125133.131000", "125135.132000", "125137.132000", "125139.131000", "125141.131000", "125143.131000", "125145.130000", "125147.131000", "125149.132000", "125151.131000", "125153.131000", "125155.132000", "125157.132000", "125159.132000", "125201.132000", "125203.131000", "125205.132000", "125207.131000", "125209.132000", "125211.132000", "125213.132000", "125215.132000", "125217.131000", "125219.132000", "125221.131000", "125223.132000", "125225.131000", "125227.132000", "125229.132000", "125231.132000", "125233.131000", "125235.131000", "125237.130000", "125239.131000", "125241.131000", "125243.132000", "125245.146000", "125247.131000", "125249.131000", "125251.131000", "125253.132000", "125255.131000", "125257.131000", "125259.131000", "125301.131000", "125303.131000", "125305.132000", "125307.132000", "125309.131000", "125311.131000", "125313.132000", "125315.131000", "125317.131000", "125319.131000", "125321.131000", "125323.132000", "125325.131000", "125327.132000", "125329.132000", "125331.132000", "125333.131000", "125335.131000", "125337.132000", "125339.132000", "125341.132000", "125343.131000", "125345.132000", "125347.131000", "125349.131000", "125351.132000", "125353.131000", "125355.131000", "125357.131000", "125359.132000", "125401.132000", "125403.131000", "125405.132000", "125407.131000", "125409.131000", "125411.132000", "125413.131000", "125415.131000", "125417.131000", "125419.132000", "125421.132000", "125423.132000", "125425.131000", "125427.132000", "125429.131000", "125431.132000", "125433.132000", "125435.132000", "125437.131000", "125439.132000", "125441.131000", "125443.131000", "125445.131000", "125447.132000", "125449.131000", "125451.132000", "125453.131000", "125455.131000", "125457.131000", "125459.131000", "125501.132000", "125503.131000", "125505.131000", "125507.131000", "125509.132000", "125511.132000", "125513.132000", "125515.132000", "125517.131000", "125519.132000", "125521.132000", "125523.132000", "125525.132000", "125527.132000", "125529.132000", "125531.131000", "125533.131000", "125535.131000", "125537.131000", "125539.131000", "125541.132000", "125543.131000", "125545.132000", "125547.131000", "125549.132000", "125551.131000", "125553.131000", "125555.131000", "125557.131000", "125559.131000", "125601.132000", "125602.783000"],
      "InstanceCreationTime": ["124821.636000", "124823.132000", "124825.132000", "124827.131000", "124829.131000", "124831.131000", "124833.131000", "124835.131000", "124837.131000", "124839.132000", "124841.131000", "124843.132000", "124845.132000", "124847.132000", "124849.132000", "124851.131000", "124853.131000", "124855.131000", "124857.132000", "124859.132000", "124901.132000", "124903.132000", "124905.131000", "124907.130000", "124909.131000", "124911.131000", "124913.131000", "124915.131000", "124917.131000", "124919.131000", "124921.132000", "124923.131000", "124925.131000", "124927.131000", "124929.131000", "124931.131000", "124933.132000", "124935.131000", "124937.132000", "124939.132000", "124941.131000", "124943.131000", "124945.131000", "124947.131000", "124949.132000", "124951.131000", "124953.131000", "124955.132000", "124957.131000", "124959.131000", "125001.132000", "125003.131000", "125005.131000", "125007.132000", "125009.131000", "125011.131000", "125013.132000", "125015.131000", "125017.131000", "125019.132000", "125021.132000", "125023.131000", "125025.131000", "125027.131000", "125029.132000", "125031.132000", "125033.131000", "125035.130000", "125037.131000", "125039.132000", "125041.132000", "125043.132000", "125045.132000", "125047.132000", "125049.132000", "125051.132000", "125053.131000", "125055.132000", "125057.132000", "125059.132000", "125101.131000", "125103.131000", "125105.131000", "125107.131000", "125109.131000", "125111.131000", "125113.132000", "125115.132000", "125117.132000", "125119.131000", "125121.131000", "125123.132000", "125125.131000", "125127.131000", "125129.132000", "125131.132000", "125133.131000", "125135.132000", "125137.132000", "125139.131000", "125141.131000", "125143.131000", "125145.130000", "125147.131000", "125149.132000", "125151.131000", "125153.131000", "125155.132000", "125157.132000", "125159.132000", "125201.132000", "125203.131000", "125205.132000", "125207.131000", "125209.132000", "125211.132000", "125213.132000", "125215.132000", "125217.131000", "125219.132000", "125221.131000", "125223.132000", "125225.131000", "125227.132000", "125229.132000", "125231.132000", "125233.131000", "125235.131000", "125237.130000", "125239.131000", "125241.131000", "125243.132000", "125245.146000", "125247.131000", "125249.131000", "125251.131000", "125253.132000", "125255.131000", "125257.131000", "125259.131000", "125301.131000", "125303.131000", "125305.132000", "125307.132000", "125309.131000", "125311.131000", "125313.132000", "125315.131000", "125317.131000", "125319.131000", "125321.131000", "125323.132000", "125325.131000", "125327.132000", "125329.132000", "125331.132000", "125333.131000", "125335.131000", "125337.132000", "125339.132000", "125341.132000", "125343.131000", "125345.132000", "125347.131000", "125349.131000", "125351.132000", "125353.131000", "125355.131000", "125357.131000", "125359.132000", "125401.132000", "125403.131000", "125405.132000", "125407.131000", "125409.131000", "125411.132000", "125413.131000", "125415.131000", "125417.131000", "125419.132000", "125421.132000", "125423.132000", "125425.131000", "125427.132000", "125429.131000", "125431.132000", "125433.132000", "125435.132000", "125437.131000", "125439.132000", "125441.131000", "125443.131000", "125445.131000", "125447.132000", "125449.131000", "125451.132000", "125453.131000", "125455.131000", "125457.131000", "125459.131000", "125501.132000", "125503.131000", "125505.131000", "125507.131000", "125509.132000", "125511.132000", "125513.132000", "125515.132000", "125517.131000", "125519.132000", "125521.132000", "125523.132000", "125525.132000", "125527.132000", "125529.132000", "125531.131000", "125533.131000", "125535.131000", "125537.131000", "125539.131000", "125541.132000", "125543.131000", "125545.132000", "125547.131000", "125549.132000", "125551.131000", "125553.131000", "125555.131000", "125557.131000", "125559.131000", "125601.132000", "125602.783000"],
      "InstanceNumber": [1, 2, 3, 4, 5, 6, 7, 8, 9, 10, 11, 12, 13, 14, 15, 16, 17, 18, 19, 20, 21, 22, 23, 24, 25, 26, 27, 28, 29, 30, 31, 32, 33, 34, 35, 36, 37, 38, 39, 40, 41, 42, 43, 44, 45, 46, 47, 48, 49, 50, 51, 52, 53, 54, 55, 56, 57, 58, 59, 60, 61, 62, 63, 64, 65, 66, 67, 68, 69, 70, 71, 72, 73, 74, 75, 76, 77, 78, 79, 80, 81, 82, 83, 84, 85, 86, 87, 88, 89, 90, 91, 92, 93, 94, 95, 96, 97, 98, 99, 100, 101, 102, 103, 104, 105, 106, 107, 108, 109, 110, 111, 112, 113, 114, 115, 116, 117, 118, 119, 120, 121, 122, 123, 124, 125, 126, 127, 128, 129, 130, 131, 132, 133, 134, 135, 136, 137, 138, 139, 140, 141, 142, 143, 144, 145, 146, 147, 148, 149, 150, 151, 152, 153, 154, 155, 156, 157, 158, 159, 160, 161, 162, 163, 164, 165, 166, 167, 168, 169, 170, 171, 172, 173, 174, 175, 176, 177, 178, 179, 180, 181, 182, 183, 184, 185, 186, 187, 188, 189, 190, 191, 192, 193, 194, 195, 196, 197, 198, 199, 200, 201, 202, 203, 204, 205, 206, 207, 208, 209, 210, 211, 212, 213, 214, 215, 216, 217, 218, 219, 220, 221, 222, 223, 224, 225, 226, 227, 228, 229, 230, 231, 232],
      "LargestImagePixelValue": [4085, 4070, 4065, 4054, 4009, 4036, 4012, 3997, 3994, 4091, 4085, 4030, 4036, 4044, 4047, 4095, 4055, 4062, 3992, 3983, 3971, 3983, 3995, 3985, 4006, 4067, 4095, 4095, 4095, 4095, 4090, 4075, 4095, 4039, 4025, 4095, 4095, 4089, 4046, 4034, 4075, 4014, 3988, 4011, 4017, 4052, 4067, 4040, 4095, 4095, 4095, 4095, 4095, 4095, 4095, 4095, 4095, 4095, 4095, 4095, 4095, 4095, 4095, 4095, 4095, 4095, 4095, 4095, 4095, 4095, 4095, 4095, 4095, 4095, 4095, 4095, 4095, 4095, 4095, 4095, 4095, 4095, 4095, 4095, 4095, 4095, 4095, 4095, 4095, 4089, 4095, 4095, 4095, 4095, 4082, 4095, 4095, 4085, 4088, 4095, 4095, 4095, 4090, 4095, 4070, 4081, 4075, 4017, 4049, 4095, 4063, 4095, 4082, 4095, 4095, 4090, 4095, 4095, 4095, 4095, 4095, 4072, 4009, 4078, 4072, 4079, 4095, 4033, 4095, 4080, 4095, 4067, 4055, 4007, 4078, 4035, 4095, 4047, 4071, 4087, 4043, 4047, 4059, 4075, 4064, 4080, 4078, 4095, 4041, 4070, 4095, 4095, 4095, 4095, 4086, 4095, 4095, 4069, 4062, 4095, 4095, 4095, 4095, 4095, 4095, 4095, 4087, 4095, 4095, 4095, 4095, 4095, 4095, 4095, 4095, 4095, 4080, 4095, 4095, 4095, 4095, 4095, 4095, 4095, 4095, 4095, 4095, 4095, 4095, 4095, 4095, 4095, 4095, 4095, 4095, 4095, 4095, 4095, 4095, 4095, 4095, 4095, 4095, 4095, 4095, 4095, 4095, 4095, 4095, 4095, 4095, 4095, 4095, 4095, 4095, 4095, 4095, 4095, 4095, 4095, 4095, 4095, 4095, 4095, 4095, 4095, 4095, 4095, 4095, 4095, 4095, 4095],
      "WindowCenter": [845.0, 844.0, 842.0, 840.0, 839.0, 839.0, 840.0, 840.0, 840.0, 841.0, 842.0, 841.0, 841.0, 841.0, 842.0, 843.0, 842.0, 841.0, 840.0, 840.0, 841.0, 841.0, 841.0, 841.0, 841.0, 842.0, 842.0, 841.0, 840.0, 841.0, 842.0, 842.0, 842.0, 844.0, 845.0, 844.0, 843.0, 842.0, 841.0, 841.0, 842.0, 842.0, 839.0, 840.0, 839.0, 840.0, 841.0, 841.0, 842.0, 842.0, 842.0, 841.0, 841.0, 842.0, 842.0, 842.0, 842.0, 841.0, 842.0, 843.0, 845.0, 845.0, 843.0, 840.0, 839.0, 837.0, 835.0, 836.0, 837.0, 838.0, 839.0, 841.0, 842.0, 843.0, 843.0, 841.0, 841.0, 842.0, 842.0, 842.0, 843.0, 842.0, 841.0, 841.0, 840.0, 841.0, 841.0, 841.0, 842.0, 843.0, 843.0, 841.0, 839.0, 840.0, 841.0, 841.0, 842.0, 842.0, 842.0, 842.0, 841.0, 840.0, 841.0, 840.0, 840.0, 841.0, 840.0, 838.0, 841.0, 840.0, 841.0, 842.0, 843.0, 842.0, 843.0, 845.0, 846.0, 843.0, 841.0, 840.0, 839.0, 838.0, 836.0, 838.0, 838.0, 840.0, 839.0, 839.0, 841.0, 840.0, 842.0, 841.0, 840.0, 841.0, 842.0, 842.0, 842.0, 841.0, 840.0, 839.0, 839.0, 839.0, 840.0, 839.0, 839.0, 840.0, 840.0, 839.0, 838.0, 839.0, 840.0, 841.0, 842.0, 842.0, 841.0, 840.0, 840.0, 840.0, 839.0, 839.0, 840.0, 841.0, 841.0, 841.0, 840.0, 840.0, 841.0, 842.0, 841.0, 840.0, 840.0, 841.0, 841.0, 843.0, 841.0, 838.0, 837.0, 838.0, 838.0, 839.0, 841.0, 841.0, 841.0, 841.0, 841.0, 842.0, 842.0, 842.0, 840.0, 842.0, 842.0, 842.0, 840.0, 841.0, 842.0, 843.0, 842.0, 841.0, 841.0, 842.0, 841.0, 841.0, 841.0, 841.0, 840.0, 840.0, 841.0, 841.0, 841.0, 842.0, 843.0, 842.0, 842.0, 841.0, 842.0, 842.0, 841.0, 841.0, 840.0, 839.0, 840.0, 841.0, 841.0, 839.0, 839.0, 839.0, 839.0, 840.0, 840.0, 840.0, 839.0, 839.0],
      "WindowWidth": [1835.0, 1831.0, 1824.0, 1820.0, 1817.0, 1817.0, 1818.0, 1818.0, 1818.0, 1823.0, 1824.0, 1822.0, 1820.0, 1821.0, 1826.0, 1828.0, 1825.0, 1821.0, 1819.0, 1820.0, 1822.0, 1822.0, 1821.0, 1821.0, 1822.0, 1825.0, 1825.0, 1821.0, 1820.0, 1822.0, 1824.0, 1824.0, 1825.0, 1829.0, 1832.0, 1831.0, 1826.0, 1824.0, 1823.0, 1823.0, 1825.0, 1825.0, 1816.0, 1819.0, 1817.0, 1819.0, 1821.0, 1821.0, 1826.0, 1825.0, 1824.0, 1822.0, 1822.0, 1823.0, 1824.0, 1825.0, 1825.0, 1822.0, 1823.0, 1828.0, 1833.0, 1832.0, 1825.0, 1819.0, 1815.0, 1810.0, 1807.0, 1807.0, 1811.0, 1814.0, 1817.0, 1821.0, 1825.0, 1827.0, 1826.0, 1822.0, 1822.0, 1823.0, 1824.0, 1826.0, 1826.0, 1825.0, 1823.0, 1821.0, 1819.0, 1821.0, 1822.0, 1823.0, 1823.0, 1825.0, 1827.0, 1821.0, 1816.0, 1818.0, 1821.0, 1822.0, 1823.0, 1824.0, 1824.0, 1823.0, 1820.0, 1820.0, 1820.0, 1820.0, 1820.0, 1821.0, 1820.0, 1814.0, 1821.0, 1820.0, 1821.0, 1825.0, 1826.0, 1824.0, 1827.0, 1834.0, 1834.0, 1827.0, 1822.0, 1819.0, 1817.0, 1813.0, 1807.0, 1813.0, 1812.0, 1818.0, 1814.0, 1816.0, 1820.0, 1819.0, 1823.0, 1820.0, 1819.0, 1820.0, 1824.0, 1824.0, 1823.0, 1819.0, 1818.0, 1815.0, 1814.0, 1816.0, 1818.0, 1816.0, 1815.0, 1818.0, 1819.0, 1816.0, 1813.0, 1815.0, 1818.0, 1821.0, 1824.0, 1823.0, 1819.0, 1818.0, 1819.0, 1817.0, 1815.0, 1816.0, 1818.0, 1820.0, 1822.0, 1820.0, 1819.0, 1817.0, 1820.0, 1824.0, 1821.0, 1818.0, 1818.0, 1820.0, 1820.0, 1825.0, 1821.0, 1814.0, 1809.0, 1811.0, 1814.0, 1816.0, 1819.0, 1822.0, 1821.0, 1820.0, 1821.0, 1823.0, 1823.0, 1822.0, 1819.0, 1822.0, 1823.0, 1823.0, 1819.0, 1820.0, 1823.0, 1825.0, 1823.0, 1820.0, 1821.0, 1823.0, 1822.0, 1821.0, 1821.0, 1820.0, 1818.0, 1818.0, 1819.0, 1821.0, 1822.0, 1823.0, 1825.0, 1823.0, 1822.0, 1822.0, 1822.0, 1822.0, 1820.0, 1820.0, 1817.0, 1816.0, 1818.0, 1820.0, 1820.0, 1815.0, 1813.0, 1813.0, 1815.0, 1817.0, 1818.0, 1817.0, 1815.0, 1815.0]
    },
    "slices": {}
  }
}