{
  "AcquisitionMatrixPE": 100,
  "AcquisitionNumber": 1,
  "AcquisitionTime": "09:42:53.372500",
  "BandwidthPerPixelPhaseEncode": 18.519,
  "BaseResolution": 100,
  "BodyPartExamined": "BRAIN",
  "ConsistencyInfo": "N4_VE11C_LATEST_20160120",
  "ConversionSoftware": "dcm2niix",
  "ConversionSoftwareVersion": "v1.0.20180622 GCC4.9.2",
  "DerivedVendorReportedEchoSpacing": 0.000539986,
  "DeviceSerialNumber": "166078",
  "DwellTime": 2.1e-06,
  "EchoTime": 0.034,
  "EchoTrainLength": 100,
  "EffectiveEchoSpacing": 0.000539986,
  "FlipAngle": 90,
  "ImageOrientationPatientDICOM": [1, -6.78895e-05, -0.000324879, 2.68361e-08, 0.978873, -0.204471],
  "ImageType": [
    "ORIGINAL",
    "PRIMARY",
    "M",
    "ND",
    "MOSAIC"
],
  "InPlanePhaseEncodingDirectionDICOM": "COL",
  "InstitutionAddress": "Street_StreetNo_Bei_Jing_District_CN_ZIP",
  "InstitutionName": "BeiJing_Normal_University",
  "InstitutionalDepartmentName": "Department",
  "MRAcquisitionType": "2D",
  "MagneticFieldStrength": 3,
  "Manufacturer": "Siemens",
  "ManufacturersModelName": "Prisma",
  "Modality": "MR",
  "MultibandAccelerationFactor": 3,
  "PartialFourier": 1,
  "PatientPosition": "HFS",
  "PercentPhaseFOV": 100,
  "PhaseEncodingDirection": "j-",
  "PhaseEncodingSteps": 100,
  "PhaseResolution": 1,
  "PixelBandwidth": 2380,
  "ProcedureStepDescription": "BNU_P2018_64CH_Liu.Jia",
  "ProtocolName": "bold_100x100_s3_2x2x2_232",
  "PulseSequenceDetails": "%SiemensSeq%_ep2d_bold",
  "ReceiveCoilActiveElements": "HC1-7;NC1",
  "ReceiveCoilName": "HeadNeck_64",
  "ReconMatrixPE": 100,
  "RepetitionTime": 2,
  "SAR": 0.0650575,
  "ScanOptions": "FS",
  "ScanningSequence": "EP",
  "SequenceName": "_epfid2d1_100",
  "SequenceVariant": "SK",
  "SeriesDescription": "bold_100x100_s3_2x2x2_232",
  "SeriesNumber": 8,
  "ShimSetting": [-5477, -11497, -1259, 269, -61, -300, -175, 67],
  "SliceThickness": 2,
  "SliceTiming": [1.485, 0, 0.99, 0.0825, 1.0725, 0.165, 1.155, 0.2475, 1.2375, 0.33, 1.32, 0.4125, 1.4025, 0.5775, 1.5675, 0.66, 1.65, 0.7425, 1.7325, 0.825, 1.815, 0.9075, 1.8975, 0.495, 1.485, 0, 0.99, 0.0825, 1.0725, 0.165, 1.155, 0.2475, 1.2375, 0.33, 1.32, 0.4125, 1.4025, 0.5775, 1.5675, 0.66, 1.65, 0.7425, 1.7325, 0.825, 1.815, 0.9075, 1.8975, 0.495, 1.485, 0, 0.99, 0.0825, 1.0725, 0.165, 1.155, 0.2475, 1.2375, 0.33, 1.32, 0.4125, 1.4025, 0.5775, 1.5675, 0.66, 1.65, 0.7425, 1.7325, 0.825, 1.815, 0.9075, 1.8975, 0.495],
  "SoftwareVersions": "syngo_MR_E11",
  "SpacingBetweenSlices": 2,
  "StationName": "AWP166078",
  "TaskName": "motor",
  "TotalReadoutTime": 0.0534586,
  "TxRefAmp": 211.758,
  "dcmmeta_affine": [
    [-1.9999998807907104, 5.367226663111069e-08, -0.0006637934129685163, 102.15424346923828],
    [0.000135778944240883, 1.9577453136444092, -0.4089416563510895, -90.13007354736328],
    [-0.0006497582653537393, 0.40894168615341187, 1.9577451944351196, -82.04549407958984],
    [0.0, 0.0, 0.0, 1.0]
],
  "dcmmeta_reorient_transform": [
    [0.0, -1.0, 0.0, 99.0],
    [1.0, 0.0, 0.0, 0.0],
    [0.0, 0.0, 1.0, 0.0],
    [0.0, 0.0, 0.0, 1.0]
],
  "dcmmeta_shape": [100, 100, 72, 232],
  "dcmmeta_slice_dim": 2,
  "dcmmeta_version": 0.6,
  "global": {
    "const": {
      "AcquisitionMatrix": [100, 0, 0, 100],
      "AngioFlag": "N",
      "BitsAllocated": 16,
      "BitsStored": 12,
      "BodyPartExamined": "BRAIN",
      "Columns": 900,
      "EchoNumbers": 1,
      "EchoTime": 34.0,
      "EchoTrainLength": 100,
      "FlipAngle": 90.0,
      "HighBit": 11,
      "ImageOrientationPatient": [0.99999994492229, -6.78894689e-05, -0.00032487912, 2.6836134e-08, 0.97887265423343, -0.2044708458289],
      "ImagePositionPatient": [-902.15422973433, -886.73052074049, 122.2763117558],
      "ImageType": [
        "ORIGINAL",
        "PRIMARY",
        "M",
        "ND",
        "MOSAIC"
],
      "ImagedNucleus": "1H",
      "ImagingFrequency": 123.257807,
      "InPlanePhaseEncodingDirection": "COL",
      "LargestImagePixelValue": 4095,
      "MRAcquisitionType": "2D",
      "MagneticFieldStrength": 3.0,
      "Manufacturer": "SIEMENS",
      "ManufacturerModelName": "Prisma",
      "Modality": "MR",
      "NumberOfAverages": 1.0,
      "NumberOfPhaseEncodingSteps": 100,
      "PercentPhaseFieldOfView": 100.0,
      "PercentSampling": 100.0,
      "PerformedProcedureStepStartTime": "090627.219000",
      "PhotometricInterpretation": "MONOCHROME2",
      "PixelBandwidth": 2380.0,
      "PixelRepresentation": 0,
      "PixelSpacing": [2.0, 2.0],
      "ProtocolName": "bold_100x100_s3_2x2x2_232",
      "RepetitionTime": 2000.0,
      "Rows": 900,
      "SAR": 0.06505748117073,
      "SamplesPerPixel": 1,
      "ScanOptions": "FS",
      "ScanningSequence": "EP",
      "SequenceName": "*epfid2d1_100",
      "SequenceVariant": "SK",
      "SeriesDescription": "bold_100x100_s3_2x2x2_232",
      "SeriesNumber": 8,
      "SeriesTime": "094255.618000",
      "SliceLocation": -61.917020373165,
      "SliceThickness": 2.0,
      "SmallestImagePixelValue": 0,
      "SoftwareVersions": "syngo MR E11",
      "SpacingBetweenSlices": 1.999999984066,
      "SpecificCharacterSet": "ISO_IR 100",
      "StudyID": "1",
      "StudyTime": "090627.049000",
      "TransmitCoilName": "Body",
      "VariableFlipAngleFlag": "N",
      "WindowCenterWidthExplanation": "Algo1",
      "dBdt": 0.0},
    "slices": {}
  },
  "time": {
    "samples": {
      "AcquisitionNumber": [1, 2, 3, 4, 5, 6, 7, 8, 9, 10, 11, 12, 13, 14, 15, 16, 17, 18, 19, 20, 21, 22, 23, 24, 25, 26, 27, 28, 29, 30, 31, 32, 33, 34, 35, 36, 37, 38, 39, 40, 41, 42, 43, 44, 45, 46, 47, 48, 49, 50, 51, 52, 53, 54, 55, 56, 57, 58, 59, 60, 61, 62, 63, 64, 65, 66, 67, 68, 69, 70, 71, 72, 73, 74, 75, 76, 77, 78, 79, 80, 81, 82, 83, 84, 85, 86, 87, 88, 89, 90, 91, 92, 93, 94, 95, 96, 97, 98, 99, 100, 101, 102, 103, 104, 105, 106, 107, 108, 109, 110, 111, 112, 113, 114, 115, 116, 117, 118, 119, 120, 121, 122, 123, 124, 125, 126, 127, 128, 129, 130, 131, 132, 133, 134, 135, 136, 137, 138, 139, 140, 141, 142, 143, 144, 145, 146, 147, 148, 149, 150, 151, 152, 153, 154, 155, 156, 157, 158, 159, 160, 161, 162, 163, 164, 165, 166, 167, 168, 169, 170, 171, 172, 173, 174, 175, 176, 177, 178, 179, 180, 181, 182, 183, 184, 185, 186, 187, 188, 189, 190, 191, 192, 193, 194, 195, 196, 197, 198, 199, 200, 201, 202, 203, 204, 205, 206, 207, 208, 209, 210, 211, 212, 213, 214, 215, 216, 217, 218, 219, 220, 221, 222, 223, 224, 225, 226, 227, 228, 229, 230, 231, 232],
      "AcquisitionTime": ["094253.372500", "094255.372500", "094257.372500", "094259.372500", "094301.372500", "094303.372500", "094305.372500", "094307.372500", "094309.372500", "094311.372500", "094313.372500", "094315.372500", "094317.372500", "094319.372500", "094321.372500", "094323.372500", "094325.372500", "094327.372500", "094329.372500", "094331.372500", "094333.372500", "094335.372500", "094337.372500", "094339.372500", "094341.372500", "094343.372500", "094345.372500", "094347.372500", "094349.372500", "094351.372500", "094353.372500", "094355.372500", "094357.372500", "094359.372500", "094401.372500", "094403.372500", "094405.372500", "094407.372500", "094409.372500", "094411.372500", "094413.372500", "094415.372500", "094417.372500", "094419.372500", "094421.372500", "094423.372500", "094425.372500", "094427.372500", "094429.372500", "094431.372500", "094433.372500", "094435.372500", "094437.372500", "094439.372500", "094441.372500", "094443.372500", "094445.372500", "094447.372500", "094449.372500", "094451.372500", "094453.372500", "094455.372500", "094457.372500", "094459.372500", "094501.372500", "094503.372500", "094505.372500", "094507.372500", "094509.372500", "094511.372500", "094513.372500", "094515.372500", "094517.372500", "094519.372500", "094521.372500", "094523.372500", "094525.372500", "094527.372500", "094529.372500", "094531.372500", "094533.372500", "094535.372500", "094537.372500", "094539.372500", "094541.372500", "094543.372500", "094545.372500", "094547.372500", "094549.372500", "094551.372500", "094553.372500", "094555.372500", "094557.372500", "094559.372500", "094601.372500", "094603.372500", "094605.372500", "094607.372500", "094609.372500", "094611.372500", "094613.372500", "094615.372500", "094617.372500", "094619.372500", "094621.372500", "094623.372500", "094625.372500", "094627.372500", "094629.372500", "094631.372500", "094633.372500", "094635.372500", "094637.372500", "094639.372500", "094641.372500", "094643.372500", "094645.372500", "094647.372500", "094649.372500", "094651.372500", "094653.372500", "094655.372500", "094657.372500", "094659.372500", "094701.372500", "094703.372500", "094705.372500", "094707.372500", "094709.372500", "094711.372500", "094713.372500", "094715.372500", "094717.372500", "094719.372500", "094721.372500", "094723.372500", "094725.372500", "094727.372500", "094729.372500", "094731.372500", "094733.372500", "094735.372500", "094737.372500", "094739.372500", "094741.372500", "094743.372500", "094745.372500", "094747.372500", "094749.372500", "094751.372500", "094753.372500", "094755.372500", "094757.372500", "094759.372500", "094801.372500", "094803.372500", "094805.372500", "094807.372500", "094809.372500", "094811.372500", "094813.372500", "094815.372500", "094817.372500", "094819.372500", "094821.372500", "094823.372500", "094825.372500", "094827.372500", "094829.372500", "094831.372500", "094833.372500", "094835.372500", "094837.372500", "094839.372500", "094841.372500", "094843.372500", "094845.372500", "094847.372500", "094849.372500", "094851.372500", "094853.372500", "094855.372500", "094857.372500", "094859.372500", "094901.372500", "094903.372500", "094905.372500", "094907.372500", "094909.372500", "094911.372500", "094913.372500", "094915.372500", "094917.372500", "094919.372500", "094921.372500", "094923.372500", "094925.372500", "094927.372500", "094929.372500", "094931.372500", "094933.372500", "094935.372500", "094937.372500", "094939.372500", "094941.372500", "094943.372500", "094945.372500", "094947.372500", "094949.372500", "094951.372500", "094953.372500", "094955.372500", "094957.372500", "094959.372500", "095001.372500", "095003.372500", "095005.372500", "095007.372500", "095009.372500", "095011.372500", "095013.372500", "095015.372500", "095017.372500", "095019.372500", "095021.372500", "095023.372500", "095025.372500", "095027.372500", "095029.372500", "095031.372500", "095033.372500", "095035.372500"],
      "ContentTime": ["094255.621000", "094257.119000", "094259.118000", "094301.118000", "094303.117000", "094305.117000", "094307.118000", "094309.118000", "094311.117000", "094313.117000", "094315.119000", "094317.118000", "094319.118000", "094321.118000", "094323.118000", "094325.117000", "094327.117000", "094329.117000", "094331.117000", "094333.118000", "094335.118000", "094337.118000", "094339.117000", "094341.117000", "094343.117000", "094345.117000", "094347.117000", "094349.117000", "094351.118000", "094353.118000", "094355.117000", "094357.117000", "094359.117000", "094401.117000", "094403.118000", "094405.117000", "094407.118000", "094409.119000", "094411.118000", "094413.117000", "094415.118000", "094417.117000", "094419.117000", "094421.117000", "094423.118000", "094425.118000", "094427.118000", "094429.118000", "094431.117000", "094433.118000", "094435.117000", "094437.117000", "094439.117000", "094441.117000", "094443.118000", "094445.118000", "094447.118000", "094449.117000", "094451.117000", "094453.117000", "094455.117000", "094457.118000", "094459.117000", "094501.118000", "094503.118000", "094505.117000", "094507.117000", "094509.117000", "094511.118000", "094513.118000", "094515.117000", "094517.118000", "094519.118000", "094521.118000", "094523.117000", "094525.117000", "094527.117000", "094529.117000", "094531.117000", "094533.118000", "094535.118000", "094537.118000", "094539.118000", "094541.117000", "094543.117000", "094545.117000", "094547.117000", "094549.117000", "094551.117000", "094553.119000", "094555.118000", "094557.118000", "094559.118000", "094601.117000", "094603.117000", "094605.117000", "094607.117000", "094609.117000", "094611.118000", "094613.118000", "094615.117000", "094617.118000", "094619.117000", "094621.118000", "094623.118000", "094625.117000", "094627.118000", "094629.118000", "094631.118000", "094633.118000", "094635.117000", "094637.118000", "094639.117000", "094641.118000", "094643.118000", "094645.118000", "094647.118000", "094649.118000", "094651.118000", "094653.118000", "094655.117000", "094657.118000", "094659.118000", "094701.118000", "094703.119000", "094705.119000", "094707.119000", "094709.117000", "094711.117000", "094713.117000", "094715.117000", "094717.117000", "094719.117000", "094721.118000", "094723.119000", "094725.117000", "094727.117000", "094729.117000", "094731.117000", "094733.117000", "094735.117000", "094737.118000", "094739.119000", "094741.119000", "094743.117000", "094745.117000", "094747.117000", "094749.117000", "094751.117000", "094753.118000", "094755.118000", "094757.118000", "094759.118000", "094801.118000", "094803.127000", "094805.117000", "094807.117000", "094809.117000", "094811.118000", "094813.119000", "094815.118000", "094817.118000", "094819.118000", "094821.118000", "094823.117000", "094825.117000", "094827.117000", "094829.119000", "094831.118000", "094833.118000", "094835.118000", "094837.117000", "094839.117000", "094841.117000", "094843.117000", "094845.117000", "094847.118000", "094849.118000", "094851.119000", "094853.118000", "094855.117000", "094857.117000", "094859.117000", "094901.117000", "094903.117000", "094905.119000", "094907.118000", "094909.119000", "094911.118000", "094913.118000", "094915.118000", "094917.117000", "094919.118000", "094921.118000", "094923.118000", "094925.119000", "094927.118000", "094929.117000", "094931.117000", "094933.118000", "094935.117000", "094937.117000", "094939.119000", "094941.119000", "094943.118000", "094945.117000", "094947.117000", "094949.118000", "094951.118000", "094953.117000", "094955.117000", "094957.119000", "094959.118000", "095001.119000", "095003.117000", "095005.118000", "095007.117000", "095009.117000", "095011.117000", "095013.117000", "095015.119000", "095017.119000", "095019.119000", "095021.117000", "095023.118000", "095025.118000", "095027.118000", "095029.118000", "095031.117000", "095033.119000", "095035.119000", "095036.973000"],
      "InstanceCreationTime": ["094255.621000", "094257.119000", "094259.118000", "094301.118000", "094303.117000", "094305.117000", "094307.118000", "094309.118000", "094311.117000", "094313.117000", "094315.119000", "094317.118000", "094319.118000", "094321.118000", "094323.118000", "094325.117000", "094327.117000", "094329.117000", "094331.117000", "094333.118000", "094335.118000", "094337.118000", "094339.117000", "094341.117000", "094343.117000", "094345.117000", "094347.117000", "094349.117000", "094351.118000", "094353.118000", "094355.117000", "094357.117000", "094359.117000", "094401.117000", "094403.118000", "094405.117000", "094407.118000", "094409.119000", "094411.118000", "094413.117000", "094415.118000", "094417.117000", "094419.117000", "094421.117000", "094423.118000", "094425.118000", "094427.118000", "094429.118000", "094431.117000", "094433.118000", "094435.117000", "094437.117000", "094439.117000", "094441.117000", "094443.118000", "094445.118000", "094447.118000", "094449.117000", "094451.117000", "094453.117000", "094455.117000", "094457.118000", "094459.117000", "094501.118000", "094503.118000", "094505.117000", "094507.117000", "094509.117000", "094511.118000", "094513.118000", "094515.117000", "094517.118000", "094519.118000", "094521.118000", "094523.117000", "094525.117000", "094527.117000", "094529.117000", "094531.117000", "094533.118000", "094535.118000", "094537.118000", "094539.118000", "094541.117000", "094543.117000", "094545.117000", "094547.117000", "094549.117000", "094551.117000", "094553.119000", "094555.118000", "094557.118000", "094559.118000", "094601.117000", "094603.117000", "094605.117000", "094607.117000", "094609.117000", "094611.118000", "094613.118000", "094615.117000", "094617.118000", "094619.117000", "094621.118000", "094623.118000", "094625.117000", "094627.118000", "094629.118000", "094631.118000", "094633.118000", "094635.117000", "094637.118000", "094639.117000", "094641.118000", "094643.118000", "094645.118000", "094647.118000", "094649.118000", "094651.118000", "094653.118000", "094655.117000", "094657.118000", "094659.118000", "094701.118000", "094703.119000", "094705.119000", "094707.119000", "094709.117000", "094711.117000", "094713.117000", "094715.117000", "094717.117000", "094719.117000", "094721.118000", "094723.119000", "094725.117000", "094727.117000", "094729.117000", "094731.117000", "094733.117000", "094735.117000", "094737.118000", "094739.119000", "094741.119000", "094743.117000", "094745.117000", "094747.117000", "094749.117000", "094751.117000", "094753.118000", "094755.118000", "094757.118000", "094759.118000", "094801.118000", "094803.127000", "094805.117000", "094807.117000", "094809.117000", "094811.118000", "094813.119000", "094815.118000", "094817.118000", "094819.118000", "094821.118000", "094823.117000", "094825.117000", "094827.117000", "094829.119000", "094831.118000", "094833.118000", "094835.118000", "094837.117000", "094839.117000", "094841.117000", "094843.117000", "094845.117000", "094847.118000", "094849.118000", "094851.119000", "094853.118000", "094855.117000", "094857.117000", "094859.117000", "094901.117000", "094903.117000", "094905.119000", "094907.118000", "094909.119000", "094911.118000", "094913.118000", "094915.118000", "094917.117000", "094919.118000", "094921.118000", "094923.118000", "094925.119000", "094927.118000", "094929.117000", "094931.117000", "094933.118000", "094935.117000", "094937.117000", "094939.119000", "094941.119000", "094943.118000", "094945.117000", "094947.117000", "094949.118000", "094951.118000", "094953.117000", "094955.117000", "094957.119000", "094959.118000", "095001.119000", "095003.117000", "095005.118000", "095007.117000", "095009.117000", "095011.117000", "095013.117000", "095015.119000", "095017.119000", "095019.119000", "095021.117000", "095023.118000", "095025.118000", "095027.118000", "095029.118000", "095031.117000", "095033.119000", "095035.119000", "095036.973000"],
      "InstanceNumber": [1, 2, 3, 4, 5, 6, 7, 8, 9, 10, 11, 12, 13, 14, 15, 16, 17, 18, 19, 20, 21, 22, 23, 24, 25, 26, 27, 28, 29, 30, 31, 32, 33, 34, 35, 36, 37, 38, 39, 40, 41, 42, 43, 44, 45, 46, 47, 48, 49, 50, 51, 52, 53, 54, 55, 56, 57, 58, 59, 60, 61, 62, 63, 64, 65, 66, 67, 68, 69, 70, 71, 72, 73, 74, 75, 76, 77, 78, 79, 80, 81, 82, 83, 84, 85, 86, 87, 88, 89, 90, 91, 92, 93, 94, 95, 96, 97, 98, 99, 100, 101, 102, 103, 104, 105, 106, 107, 108, 109, 110, 111, 112, 113, 114, 115, 116, 117, 118, 119, 120, 121, 122, 123, 124, 125, 126, 127, 128, 129, 130, 131, 132, 133, 134, 135, 136, 137, 138, 139, 140, 141, 142, 143, 144, 145, 146, 147, 148, 149, 150, 151, 152, 153, 154, 155, 156, 157, 158, 159, 160, 161, 162, 163, 164, 165, 166, 167, 168, 169, 170, 171, 172, 173, 174, 175, 176, 177, 178, 179, 180, 181, 182, 183, 184, 185, 186, 187, 188, 189, 190, 191, 192, 193, 194, 195, 196, 197, 198, 199, 200, 201, 202, 203, 204, 205, 206, 207, 208, 209, 210, 211, 212, 213, 214, 215, 216, 217, 218, 219, 220, 221, 222, 223, 224, 225, 226, 227, 228, 229, 230, 231, 232],
      "WindowCenter": [826.0, 824.0, 824.0, 823.0, 824.0, 825.0, 825.0, 825.0, 825.0, 826.0, 826.0, 826.0, 826.0, 826.0, 825.0, 826.0, 826.0, 826.0, 826.0, 825.0, 825.0, 826.0, 825.0, 825.0, 824.0, 825.0, 828.0, 828.0, 827.0, 827.0, 825.0, 825.0, 825.0, 825.0, 826.0, 826.0, 826.0, 825.0, 825.0, 827.0, 826.0, 824.0, 824.0, 823.0, 823.0, 824.0, 824.0, 822.0, 819.0, 823.0, 823.0, 824.0, 824.0, 825.0, 825.0, 825.0, 825.0, 824.0, 823.0, 823.0, 823.0, 824.0, 824.0, 824.0, 825.0, 826.0, 828.0, 828.0, 828.0, 825.0, 824.0, 824.0, 824.0, 825.0, 826.0, 826.0, 825.0, 825.0, 826.0, 826.0, 826.0, 826.0, 826.0, 828.0, 829.0, 827.0, 826.0, 825.0, 824.0, 825.0, 825.0, 825.0, 825.0, 825.0, 825.0, 826.0, 827.0, 827.0, 826.0, 825.0, 824.0, 825.0, 824.0, 824.0, 822.0, 824.0, 825.0, 828.0, 829.0, 827.0, 825.0, 823.0, 823.0, 823.0, 826.0, 827.0, 827.0, 826.0, 825.0, 824.0, 825.0, 823.0, 825.0, 827.0, 825.0, 823.0, 822.0, 821.0, 822.0, 822.0, 822.0, 823.0, 823.0, 823.0, 823.0, 824.0, 824.0, 826.0, 826.0, 826.0, 827.0, 827.0, 826.0, 826.0, 825.0, 826.0, 827.0, 827.0, 827.0, 825.0, 825.0, 827.0, 827.0, 827.0, 825.0, 826.0, 827.0, 827.0, 827.0, 826.0, 826.0, 827.0, 827.0, 827.0, 826.0, 826.0, 826.0, 826.0, 826.0, 826.0, 825.0, 825.0, 826.0, 826.0, 827.0, 826.0, 825.0, 825.0, 826.0, 827.0, 827.0, 826.0, 826.0, 825.0, 824.0, 825.0, 826.0, 824.0, 825.0, 826.0, 825.0, 825.0, 823.0, 824.0, 825.0, 825.0, 826.0, 827.0, 827.0, 826.0, 824.0, 824.0, 824.0, 826.0, 825.0, 824.0, 824.0, 825.0, 823.0, 823.0, 823.0, 823.0, 822.0, 822.0, 823.0, 825.0, 826.0, 827.0, 827.0, 828.0, 825.0, 825.0, 826.0, 826.0, 827.0, 826.0, 826.0, 826.0, 827.0, 826.0, 827.0, 826.0],
      "WindowWidth": [1840.0, 1834.0, 1832.0, 1831.0, 1833.0, 1835.0, 1835.0, 1835.0, 1835.0, 1838.0, 1840.0, 1841.0, 1838.0, 1838.0, 1837.0, 1840.0, 1839.0, 1840.0, 1839.0, 1836.0, 1835.0, 1839.0, 1837.0, 1835.0, 1834.0, 1837.0, 1845.0, 1844.0, 1841.0, 1841.0, 1836.0, 1835.0, 1837.0, 1837.0, 1840.0, 1841.0, 1838.0, 1835.0, 1835.0, 1840.0, 1839.0, 1833.0, 1831.0, 1828.0, 1830.0, 1833.0, 1831.0, 1826.0, 1818.0, 1828.0, 1830.0, 1833.0, 1834.0, 1835.0, 1835.0, 1834.0, 1835.0, 1833.0, 1830.0, 1828.0, 1828.0, 1831.0, 1831.0, 1833.0, 1836.0, 1839.0, 1844.0, 1845.0, 1843.0, 1836.0, 1832.0, 1831.0, 1831.0, 1835.0, 1837.0, 1838.0, 1836.0, 1834.0, 1839.0, 1839.0, 1838.0, 1837.0, 1837.0, 1844.0, 1847.0, 1841.0, 1837.0, 1834.0, 1833.0, 1834.0, 1834.0, 1836.0, 1834.0, 1835.0, 1836.0, 1838.0, 1840.0, 1841.0, 1837.0, 1836.0, 1833.0, 1835.0, 1833.0, 1832.0, 1827.0, 1830.0, 1835.0, 1843.0, 1846.0, 1841.0, 1835.0, 1828.0, 1828.0, 1830.0, 1838.0, 1841.0, 1842.0, 1838.0, 1834.0, 1832.0, 1834.0, 1830.0, 1835.0, 1839.0, 1834.0, 1827.0, 1825.0, 1823.0, 1824.0, 1825.0, 1826.0, 1829.0, 1828.0, 1828.0, 1827.0, 1831.0, 1832.0, 1838.0, 1838.0, 1838.0, 1841.0, 1842.0, 1839.0, 1837.0, 1836.0, 1838.0, 1841.0, 1840.0, 1839.0, 1834.0, 1836.0, 1840.0, 1840.0, 1838.0, 1835.0, 1836.0, 1839.0, 1840.0, 1840.0, 1838.0, 1837.0, 1840.0, 1842.0, 1840.0, 1838.0, 1836.0, 1837.0, 1837.0, 1837.0, 1836.0, 1835.0, 1834.0, 1836.0, 1839.0, 1840.0, 1838.0, 1836.0, 1836.0, 1838.0, 1840.0, 1840.0, 1838.0, 1837.0, 1834.0, 1832.0, 1834.0, 1838.0, 1832.0, 1835.0, 1837.0, 1834.0, 1833.0, 1827.0, 1831.0, 1833.0, 1835.0, 1838.0, 1841.0, 1839.0, 1836.0, 1832.0, 1831.0, 1832.0, 1838.0, 1836.0, 1832.0, 1830.0, 1833.0, 1829.0, 1828.0, 1828.0, 1828.0, 1824.0, 1826.0, 1829.0, 1834.0, 1839.0, 1840.0, 1842.0, 1843.0, 1834.0, 1834.0, 1838.0, 1838.0, 1841.0, 1838.0, 1838.0, 1838.0, 1842.0, 1839.0, 1841.0, 1838.0]
    },
    "slices": {}
  }
}