{
  "AcquisitionMatrixPE": 100,
  "AcquisitionNumber": 1,
  "AcquisitionTime": "14:31:52.265000",
  "BandwidthPerPixelPhaseEncode": 18.519,
  "BaseResolution": 100,
  "BodyPartExamined": "BRAIN",
  "ConsistencyInfo": "N4_VE11C_LATEST_20160120",
  "ConversionSoftware": "dcm2niix",
  "ConversionSoftwareVersion": "v1.0.20180622 GCC4.9.2",
  "DerivedVendorReportedEchoSpacing": 0.000539986,
  "DeviceSerialNumber": "166078",
  "DwellTime": 2.1e-06,
  "EchoTime": 0.034,
  "EchoTrainLength": 100,
  "EffectiveEchoSpacing": 0.000539986,
  "FlipAngle": 90,
  "ImageOrientationPatientDICOM": [0.999976, 0.00151098, 0.00681578, 4.00657e-08, 0.976296, -0.21644],
  "ImageType": [
    "ORIGINAL",
    "PRIMARY",
    "M",
    "ND",
    "MOSAIC"
],
  "InPlanePhaseEncodingDirectionDICOM": "COL",
  "InstitutionAddress": "Street_StreetNo_Bei_Jing_District_CN_ZIP",
  "InstitutionName": "BeiJing_Normal_University",
  "InstitutionalDepartmentName": "Department",
  "MRAcquisitionType": "2D",
  "MagneticFieldStrength": 3,
  "Manufacturer": "Siemens",
  "ManufacturersModelName": "Prisma",
  "Modality": "MR",
  "MultibandAccelerationFactor": 3,
  "PartialFourier": 1,
  "PatientPosition": "HFS",
  "PercentPhaseFOV": 100,
  "PhaseEncodingDirection": "j-",
  "PhaseEncodingSteps": 100,
  "PhaseResolution": 1,
  "PixelBandwidth": 2380,
  "ProcedureStepDescription": "BNU_P2018_64CH_Liu.Jia",
  "ProtocolName": "bold_100x100_s3_2x2x2_232",
  "PulseSequenceDetails": "%SiemensSeq%_ep2d_bold",
  "ReceiveCoilActiveElements": "HC1-7;NC1",
  "ReceiveCoilName": "HeadNeck_64",
  "ReconMatrixPE": 100,
  "RepetitionTime": 2,
  "SAR": 0.0595991,
  "ScanOptions": "FS",
  "ScanningSequence": "EP",
  "SequenceName": "_epfid2d1_100",
  "SequenceVariant": "SK",
  "SeriesDescription": "bold_100x100_s3_2x2x2_232",
  "SeriesNumber": 8,
  "ShimSetting": [-5459, -11464, -1313, 379, -105, -215, -202, 56],
  "SliceThickness": 2,
  "SliceTiming": [1.485, 0, 0.99, 0.0825, 1.0725, 0.165, 1.155, 0.2475, 1.2375, 0.33, 1.32, 0.4125, 1.4025, 0.5775, 1.5675, 0.66, 1.65, 0.7425, 1.7325, 0.825, 1.815, 0.9075, 1.8975, 0.495, 1.485, 0, 0.99, 0.0825, 1.0725, 0.165, 1.155, 0.2475, 1.2375, 0.33, 1.32, 0.4125, 1.4025, 0.5775, 1.5675, 0.66, 1.65, 0.7425, 1.7325, 0.825, 1.815, 0.9075, 1.8975, 0.495, 1.485, 0, 0.99, 0.0825, 1.0725, 0.165, 1.155, 0.2475, 1.2375, 0.33, 1.32, 0.4125, 1.4025, 0.5775, 1.5675, 0.66, 1.65, 0.7425, 1.7325, 0.825, 1.815, 0.9075, 1.8975, 0.495],
  "SoftwareVersions": "syngo_MR_E11",
  "SpacingBetweenSlices": 2,
  "StationName": "AWP166078",
  "TaskName": "motor",
  "TotalReadoutTime": 0.0534586,
  "TxRefAmp": 206.401,
  "dcmmeta_affine": [
    [-1.9999512434005737, 8.013149255248209e-08, 0.013962505385279655, 101.45709228515625],
    [-0.0030219610780477524, 1.9525920152664185, -0.4328686594963074, -86.50300598144531],
    [0.013631556183099747, 0.4328792095184326, 1.9525444507598877, -94.34886169433594],
    [0.0, 0.0, 0.0, 1.0]
],
  "dcmmeta_reorient_transform": [
    [0.0, -1.0, 0.0, 99.0],
    [1.0, 0.0, 0.0, 0.0],
    [0.0, 0.0, 1.0, 0.0],
    [0.0, 0.0, 0.0, 1.0]
],
  "dcmmeta_shape": [100, 100, 72, 232],
  "dcmmeta_slice_dim": 2,
  "dcmmeta_version": 0.6,
  "global": {
    "const": {
      "AcquisitionMatrix": [100, 0, 0, 100],
      "AngioFlag": "N",
      "BitsAllocated": 16,
      "BitsStored": 12,
      "BodyPartExamined": "BRAIN",
      "Columns": 900,
      "EchoNumbers": 1,
      "EchoTime": 34.0,
      "EchoTrainLength": 100,
      "FlipAngle": 90.0,
      "HighBit": 11,
      "ImageOrientationPatient": [0.99997563075761, 0.00151098053693, 0.00681577792548, 4.0065745e-08, 0.97629600752515, -0.2164396121103],
      "ImagePositionPatient": [-901.43763469061, -889.04919746663, 116.20525112033],
      "ImageType": [
        "ORIGINAL",
        "PRIMARY",
        "M",
        "ND",
        "MOSAIC"
],
      "ImagedNucleus": "1H",
      "ImagingFrequency": 123.257841,
      "InPlanePhaseEncodingDirection": "COL",
      "MRAcquisitionType": "2D",
      "MagneticFieldStrength": 3.0,
      "Manufacturer": "SIEMENS",
      "ManufacturerModelName": "Prisma",
      "Modality": "MR",
      "NumberOfAverages": 1.0,
      "NumberOfPhaseEncodingSteps": 100,
      "PercentPhaseFieldOfView": 100.0,
      "PercentSampling": 100.0,
      "PerformedProcedureStepStartTime": "135837.620000",
      "PhotometricInterpretation": "MONOCHROME2",
      "PixelBandwidth": 2380.0,
      "PixelRepresentation": 0,
      "PixelSpacing": [2.0, 2.0],
      "ProtocolName": "bold_100x100_s3_2x2x2_232",
      "RepetitionTime": 2000.0,
      "Rows": 900,
      "SAR": 0.05959907075188,
      "SamplesPerPixel": 1,
      "ScanOptions": "FS",
      "ScanningSequence": "EP",
      "SequenceName": "*epfid2d1_100",
      "SequenceVariant": "SK",
      "SeriesDescription": "bold_100x100_s3_2x2x2_232",
      "SeriesNumber": 8,
      "SeriesTime": "143154.998000",
      "SliceLocation": -72.679652392055,
      "SliceThickness": 2.0,
      "SmallestImagePixelValue": 0,
      "SoftwareVersions": "syngo MR E11",
      "SpacingBetweenSlices": 1.9999999825401,
      "SpecificCharacterSet": "ISO_IR 100",
      "StudyID": "1",
      "StudyTime": "135837.530000",
      "TransmitCoilName": "Body",
      "VariableFlipAngleFlag": "N",
      "WindowCenterWidthExplanation": "Algo1",
      "dBdt": 0.0},
    "slices": {}
  },
  "time": {
    "samples": {
      "AcquisitionNumber": [1, 2, 3, 4, 5, 6, 7, 8, 9, 10, 11, 12, 13, 14, 15, 16, 17, 18, 19, 20, 21, 22, 23, 24, 25, 26, 27, 28, 29, 30, 31, 32, 33, 34, 35, 36, 37, 38, 39, 40, 41, 42, 43, 44, 45, 46, 47, 48, 49, 50, 51, 52, 53, 54, 55, 56, 57, 58, 59, 60, 61, 62, 63, 64, 65, 66, 67, 68, 69, 70, 71, 72, 73, 74, 75, 76, 77, 78, 79, 80, 81, 82, 83, 84, 85, 86, 87, 88, 89, 90, 91, 92, 93, 94, 95, 96, 97, 98, 99, 100, 101, 102, 103, 104, 105, 106, 107, 108, 109, 110, 111, 112, 113, 114, 115, 116, 117, 118, 119, 120, 121, 122, 123, 124, 125, 126, 127, 128, 129, 130, 131, 132, 133, 134, 135, 136, 137, 138, 139, 140, 141, 142, 143, 144, 145, 146, 147, 148, 149, 150, 151, 152, 153, 154, 155, 156, 157, 158, 159, 160, 161, 162, 163, 164, 165, 166, 167, 168, 169, 170, 171, 172, 173, 174, 175, 176, 177, 178, 179, 180, 181, 182, 183, 184, 185, 186, 187, 188, 189, 190, 191, 192, 193, 194, 195, 196, 197, 198, 199, 200, 201, 202, 203, 204, 205, 206, 207, 208, 209, 210, 211, 212, 213, 214, 215, 216, 217, 218, 219, 220, 221, 222, 223, 224, 225, 226, 227, 228, 229, 230, 231, 232],
      "AcquisitionTime": ["143152.265000", "143154.265000", "143156.265000", "143158.265000", "143200.265000", "143202.265000", "143204.265000", "143206.265000", "143208.265000", "143210.265000", "143212.265000", "143214.265000", "143216.265000", "143218.265000", "143220.265000", "143222.265000", "143224.265000", "143226.265000", "143228.265000", "143230.265000", "143232.265000", "143234.265000", "143236.265000", "143238.265000", "143240.265000", "143242.265000", "143244.265000", "143246.265000", "143248.265000", "143250.265000", "143252.265000", "143254.265000", "143256.265000", "143258.265000", "143300.265000", "143302.265000", "143304.265000", "143306.265000", "143308.265000", "143310.265000", "143312.265000", "143314.265000", "143316.265000", "143318.265000", "143320.265000", "143322.265000", "143324.265000", "143326.265000", "143328.265000", "143330.265000", "143332.265000", "143334.265000", "143336.265000", "143338.265000", "143340.265000", "143342.265000", "143344.265000", "143346.265000", "143348.265000", "143350.265000", "143352.265000", "143354.265000", "143356.265000", "143358.265000", "143400.265000", "143402.265000", "143404.265000", "143406.265000", "143408.265000", "143410.265000", "143412.265000", "143414.265000", "143416.265000", "143418.265000", "143420.265000", "143422.265000", "143424.265000", "143426.265000", "143428.265000", "143430.265000", "143432.265000", "143434.265000", "143436.265000", "143438.265000", "143440.265000", "143442.265000", "143444.265000", "143446.265000", "143448.265000", "143450.265000", "143452.265000", "143454.265000", "143456.265000", "143458.265000", "143500.265000", "143502.265000", "143504.265000", "143506.265000", "143508.265000", "143510.265000", "143512.265000", "143514.265000", "143516.265000", "143518.265000", "143520.265000", "143522.265000", "143524.265000", "143526.265000", "143528.265000", "143530.265000", "143532.265000", "143534.265000", "143536.265000", "143538.265000", "143540.265000", "143542.265000", "143544.265000", "143546.265000", "143548.265000", "143550.265000", "143552.265000", "143554.265000", "143556.265000", "143558.265000", "143600.265000", "143602.265000", "143604.265000", "143606.265000", "143608.265000", "143610.265000", "143612.265000", "143614.265000", "143616.265000", "143618.265000", "143620.265000", "143622.265000", "143624.265000", "143626.265000", "143628.265000", "143630.265000", "143632.265000", "143634.265000", "143636.265000", "143638.265000", "143640.265000", "143642.265000", "143644.265000", "143646.265000", "143648.265000", "143650.265000", "143652.265000", "143654.265000", "143656.265000", "143658.265000", "143700.265000", "143702.265000", "143704.265000", "143706.265000", "143708.265000", "143710.265000", "143712.265000", "143714.265000", "143716.265000", "143718.265000", "143720.265000", "143722.265000", "143724.265000", "143726.265000", "143728.265000", "143730.265000", "143732.265000", "143734.265000", "143736.265000", "143738.265000", "143740.265000", "143742.265000", "143744.265000", "143746.265000", "143748.265000", "143750.265000", "143752.265000", "143754.265000", "143756.265000", "143758.265000", "143800.265000", "143802.265000", "143804.265000", "143806.265000", "143808.265000", "143810.265000", "143812.265000", "143814.265000", "143816.265000", "143818.265000", "143820.265000", "143822.265000", "143824.265000", "143826.265000", "143828.265000", "143830.265000", "143832.265000", "143834.265000", "143836.265000", "143838.265000", "143840.265000", "143842.265000", "143844.265000", "143846.265000", "143848.265000", "143850.265000", "143852.265000", "143854.265000", "143856.265000", "143858.265000", "143900.265000", "143902.265000", "143904.265000", "143906.265000", "143908.265000", "143910.265000", "143912.265000", "143914.265000", "143916.265000", "143918.265000", "143920.265000", "143922.265000", "143924.265000", "143926.265000", "143928.265000", "143930.265000", "143932.265000", "143934.265000"],
      "ContentTime": ["143155.002000", "143156.498000", "143158.496000", "143200.497000", "143202.498000", "143204.498000", "143206.497000", "143208.498000", "143210.498000", "143212.498000", "143214.498000", "143216.496000", "143218.497000", "143220.499000", "143222.518000", "143224.497000", "143226.499000", "143228.499000", "143230.498000", "143232.498000", "143234.497000", "143236.498000", "143238.497000", "143240.498000", "143242.498000", "143244.498000", "143246.498000", "143248.498000", "143250.498000", "143252.497000", "143254.498000", "143256.498000", "143258.497000", "143300.498000", "143302.498000", "143304.498000", "143306.498000", "143308.496000", "143310.498000", "143312.498000", "143314.498000", "143316.498000", "143318.498000", "143320.498000", "143322.498000", "143324.498000", "143326.497000", "143328.497000", "143330.497000", "143332.498000", "143334.498000", "143336.498000", "143338.498000", "143340.498000", "143342.498000", "143344.497000", "143346.497000", "143348.498000", "143350.498000", "143352.498000", "143354.498000", "143356.498000", "143358.498000", "143400.498000", "143402.497000", "143404.498000", "143406.498000", "143408.498000", "143410.498000", "143412.498000", "143414.498000", "143416.498000", "143418.496000", "143420.498000", "143422.499000", "143424.498000", "143426.498000", "143428.498000", "143430.498000", "143432.498000", "143434.498000", "143436.497000", "143438.498000", "143440.498000", "143442.498000", "143444.498000", "143446.498000", "143448.498000", "143450.498000", "143452.498000", "143454.497000", "143456.498000", "143458.498000", "143500.498000", "143502.498000", "143504.498000", "143506.498000", "143508.498000", "143510.498000", "143512.497000", "143514.498000", "143516.497000", "143518.497000", "143520.498000", "143522.499000", "143524.498000", "143526.497000", "143528.497000", "143530.498000", "143532.498000", "143534.498000", "143536.497000", "143538.498000", "143540.498000", "143542.498000", "143544.498000", "143546.497000", "143548.498000", "143550.498000", "143552.497000", "143554.498000", "143556.498000", "143558.498000", "143600.498000", "143602.498000", "143604.497000", "143606.498000", "143608.498000", "143610.497000", "143612.498000", "143614.498000", "143616.497000", "143618.497000", "143620.499000", "143622.497000", "143624.497000", "143626.498000", "143628.498000", "143630.499000", "143632.498000", "143634.498000", "143636.498000", "143638.497000", "143640.498000", "143642.498000", "143644.498000", "143646.498000", "143648.497000", "143650.498000", "143652.498000", "143654.498000", "143656.497000", "143658.498000", "143700.498000", "143702.498000", "143704.498000", "143706.498000", "143708.498000", "143710.498000", "143712.498000", "143714.497000", "143716.498000", "143718.498000", "143720.498000", "143722.498000", "143724.499000", "143726.498000", "143728.498000", "143730.498000", "143732.497000", "143734.498000", "143736.498000", "143738.498000", "143740.498000", "143742.498000", "143744.498000", "143746.497000", "143748.497000", "143750.498000", "143752.499000", "143754.498000", "143756.498000", "143758.498000", "143800.498000", "143802.498000", "143804.497000", "143806.497000", "143808.512000", "143810.498000", "143812.498000", "143814.498000", "143816.498000", "143818.498000", "143820.498000", "143822.497000", "143824.497000", "143826.498000", "143828.498000", "143830.498000", "143832.497000", "143834.498000", "143836.497000", "143838.497000", "143840.497000", "143842.497000", "143844.498000", "143846.497000", "143848.498000", "143850.498000", "143852.497000", "143854.497000", "143856.497000", "143858.497000", "143900.498000", "143902.498000", "143904.498000", "143906.498000", "143908.497000", "143910.498000", "143912.498000", "143914.498000", "143916.497000", "143918.498000", "143920.498000", "143922.498000", "143924.498000", "143926.498000", "143928.497000", "143930.497000", "143932.498000", "143934.498000", "143936.236000"],
      "InstanceCreationTime": ["143155.002000", "143156.498000", "143158.496000", "143200.497000", "143202.498000", "143204.498000", "143206.497000", "143208.498000", "143210.498000", "143212.498000", "143214.498000", "143216.496000", "143218.497000", "143220.499000", "143222.518000", "143224.497000", "143226.499000", "143228.499000", "143230.498000", "143232.498000", "143234.497000", "143236.498000", "143238.497000", "143240.498000", "143242.498000", "143244.498000", "143246.498000", "143248.498000", "143250.498000", "143252.497000", "143254.498000", "143256.498000", "143258.497000", "143300.498000", "143302.498000", "143304.498000", "143306.498000", "143308.496000", "143310.498000", "143312.498000", "143314.498000", "143316.498000", "143318.498000", "143320.498000", "143322.498000", "143324.498000", "143326.497000", "143328.497000", "143330.497000", "143332.498000", "143334.498000", "143336.498000", "143338.498000", "143340.498000", "143342.498000", "143344.497000", "143346.497000", "143348.498000", "143350.498000", "143352.498000", "143354.498000", "143356.498000", "143358.498000", "143400.498000", "143402.497000", "143404.498000", "143406.498000", "143408.498000", "143410.498000", "143412.498000", "143414.498000", "143416.498000", "143418.496000", "143420.498000", "143422.499000", "143424.498000", "143426.498000", "143428.498000", "143430.498000", "143432.498000", "143434.498000", "143436.497000", "143438.498000", "143440.498000", "143442.498000", "143444.498000", "143446.498000", "143448.498000", "143450.498000", "143452.498000", "143454.497000", "143456.498000", "143458.498000", "143500.498000", "143502.498000", "143504.498000", "143506.498000", "143508.498000", "143510.498000", "143512.497000", "143514.498000", "143516.497000", "143518.497000", "143520.498000", "143522.499000", "143524.498000", "143526.497000", "143528.497000", "143530.498000", "143532.498000", "143534.498000", "143536.497000", "143538.498000", "143540.498000", "143542.498000", "143544.498000", "143546.497000", "143548.498000", "143550.498000", "143552.497000", "143554.498000", "143556.498000", "143558.498000", "143600.498000", "143602.498000", "143604.497000", "143606.498000", "143608.498000", "143610.497000", "143612.498000", "143614.498000", "143616.497000", "143618.497000", "143620.499000", "143622.497000", "143624.497000", "143626.498000", "143628.498000", "143630.499000", "143632.498000", "143634.498000", "143636.498000", "143638.497000", "143640.498000", "143642.498000", "143644.498000", "143646.498000", "143648.497000", "143650.498000", "143652.498000", "143654.498000", "143656.497000", "143658.498000", "143700.498000", "143702.498000", "143704.498000", "143706.498000", "143708.498000", "143710.498000", "143712.498000", "143714.497000", "143716.498000", "143718.498000", "143720.498000", "143722.498000", "143724.499000", "143726.498000", "143728.498000", "143730.498000", "143732.497000", "143734.498000", "143736.498000", "143738.498000", "143740.498000", "143742.498000", "143744.498000", "143746.497000", "143748.497000", "143750.498000", "143752.499000", "143754.498000", "143756.498000", "143758.498000", "143800.498000", "143802.498000", "143804.497000", "143806.497000", "143808.512000", "143810.498000", "143812.498000", "143814.498000", "143816.498000", "143818.498000", "143820.498000", "143822.497000", "143824.497000", "143826.498000", "143828.498000", "143830.498000", "143832.497000", "143834.498000", "143836.497000", "143838.497000", "143840.497000", "143842.497000", "143844.498000", "143846.497000", "143848.498000", "143850.498000", "143852.497000", "143854.497000", "143856.497000", "143858.497000", "143900.498000", "143902.498000", "143904.498000", "143906.498000", "143908.497000", "143910.498000", "143912.498000", "143914.498000", "143916.497000", "143918.498000", "143920.498000", "143922.498000", "143924.498000", "143926.498000", "143928.497000", "143930.497000", "143932.498000", "143934.498000", "143936.236000"],
      "InstanceNumber": [1, 2, 3, 4, 5, 6, 7, 8, 9, 10, 11, 12, 13, 14, 15, 16, 17, 18, 19, 20, 21, 22, 23, 24, 25, 26, 27, 28, 29, 30, 31, 32, 33, 34, 35, 36, 37, 38, 39, 40, 41, 42, 43, 44, 45, 46, 47, 48, 49, 50, 51, 52, 53, 54, 55, 56, 57, 58, 59, 60, 61, 62, 63, 64, 65, 66, 67, 68, 69, 70, 71, 72, 73, 74, 75, 76, 77, 78, 79, 80, 81, 82, 83, 84, 85, 86, 87, 88, 89, 90, 91, 92, 93, 94, 95, 96, 97, 98, 99, 100, 101, 102, 103, 104, 105, 106, 107, 108, 109, 110, 111, 112, 113, 114, 115, 116, 117, 118, 119, 120, 121, 122, 123, 124, 125, 126, 127, 128, 129, 130, 131, 132, 133, 134, 135, 136, 137, 138, 139, 140, 141, 142, 143, 144, 145, 146, 147, 148, 149, 150, 151, 152, 153, 154, 155, 156, 157, 158, 159, 160, 161, 162, 163, 164, 165, 166, 167, 168, 169, 170, 171, 172, 173, 174, 175, 176, 177, 178, 179, 180, 181, 182, 183, 184, 185, 186, 187, 188, 189, 190, 191, 192, 193, 194, 195, 196, 197, 198, 199, 200, 201, 202, 203, 204, 205, 206, 207, 208, 209, 210, 211, 212, 213, 214, 215, 216, 217, 218, 219, 220, 221, 222, 223, 224, 225, 226, 227, 228, 229, 230, 231, 232],
      "LargestImagePixelValue": [3134, 3048, 3056, 3061, 3056, 3098, 3088, 3058, 3018, 3062, 3044, 3060, 2992, 3010, 3022, 3029, 3014, 3001, 3010, 3086, 3028, 3020, 3050, 3023, 3004, 3023, 3032, 3024, 3053, 3037, 3028, 3065, 3042, 3068, 3083, 3075, 3059, 3022, 3040, 3053, 3062, 2990, 2897, 3040, 3126, 3013, 3066, 2995, 3083, 2951, 2962, 3020, 3010, 3006, 3045, 3097, 3015, 3015, 3007, 3031, 3045, 3067, 3043, 3031, 3006, 3018, 2932, 3019, 2974, 2943, 2949, 3007, 3003, 3031, 3019, 2931, 2878, 2952, 2942, 2907, 2886, 3012, 2967, 3031, 3048, 3056, 3092, 3064, 3087, 3096, 3083, 3081, 3103, 3072, 3079, 3091, 3111, 3106, 3089, 3094, 3124, 3108, 3102, 3092, 3096, 3086, 3082, 3113, 3010, 3156, 3063, 3091, 2942, 3136, 3102, 3133, 3131, 3115, 3114, 3141, 3125, 3021, 3079, 3061, 3126, 2968, 3108, 3121, 3012, 3260, 3159, 3170, 3129, 3156, 3156, 3135, 3141, 3189, 3170, 3151, 3129, 3132, 3165, 3171, 3152, 3151, 3159, 3142, 3154, 3151, 3135, 3137, 3129, 3100, 3063, 3029, 2973, 2890, 2899, 2828, 2833, 2900, 3038, 2999, 2922, 3053, 2970, 3014, 2939, 2975, 2934, 2931, 2975, 2952, 2969, 3015, 3022, 2893, 2856, 2891, 2908, 2862, 2854, 2967, 2986, 3082, 3058, 3148, 2980, 3155, 2928, 3154, 3055, 3045, 3072, 3098, 3088, 3088, 3092, 3111, 3117, 3084, 3079, 3096, 3096, 3074, 3085, 3061, 3090, 3076, 3082, 3049, 3060, 3057, 3043, 3070, 3115, 3057, 3009, 3016, 3076, 3046, 3091, 3102, 3053, 3106, 3086, 3102, 3083, 3084, 3057, 3050],
      "WindowCenter": [734.0, 732.0, 732.0, 733.0, 734.0, 735.0, 734.0, 733.0, 732.0, 732.0, 733.0, 734.0, 733.0, 733.0, 733.0, 732.0, 733.0, 734.0, 735.0, 735.0, 734.0, 733.0, 733.0, 733.0, 733.0, 733.0, 734.0, 733.0, 734.0, 734.0, 734.0, 734.0, 734.0, 735.0, 737.0, 737.0, 734.0, 733.0, 734.0, 734.0, 734.0, 734.0, 732.0, 736.0, 734.0, 736.0, 733.0, 735.0, 735.0, 733.0, 735.0, 736.0, 735.0, 735.0, 737.0, 738.0, 737.0, 736.0, 735.0, 735.0, 735.0, 736.0, 736.0, 735.0, 734.0, 733.0, 736.0, 735.0, 734.0, 732.0, 733.0, 734.0, 734.0, 733.0, 734.0, 732.0, 731.0, 731.0, 730.0, 730.0, 729.0, 730.0, 732.0, 732.0, 732.0, 732.0, 732.0, 731.0, 732.0, 731.0, 733.0, 734.0, 734.0, 733.0, 733.0, 734.0, 735.0, 735.0, 735.0, 735.0, 734.0, 734.0, 735.0, 735.0, 733.0, 730.0, 735.0, 732.0, 732.0, 728.0, 734.0, 733.0, 729.0, 735.0, 734.0, 734.0, 734.0, 733.0, 732.0, 733.0, 731.0, 729.0, 724.0, 734.0, 730.0, 732.0, 732.0, 729.0, 729.0, 736.0, 736.0, 736.0, 735.0, 735.0, 734.0, 735.0, 736.0, 736.0, 735.0, 735.0, 735.0, 735.0, 735.0, 734.0, 734.0, 734.0, 735.0, 735.0, 734.0, 733.0, 733.0, 734.0, 733.0, 733.0, 733.0, 733.0, 732.0, 730.0, 730.0, 729.0, 730.0, 729.0, 732.0, 732.0, 730.0, 731.0, 731.0, 733.0, 732.0, 730.0, 731.0, 731.0, 730.0, 729.0, 730.0, 731.0, 731.0, 728.0, 729.0, 730.0, 730.0, 728.0, 728.0, 730.0, 731.0, 732.0, 730.0, 733.0, 728.0, 732.0, 727.0, 732.0, 730.0, 732.0, 734.0, 734.0, 732.0, 732.0, 733.0, 734.0, 733.0, 733.0, 733.0, 733.0, 733.0, 732.0, 733.0, 733.0, 734.0, 734.0, 734.0, 733.0, 732.0, 732.0, 731.0, 732.0, 733.0, 731.0, 731.0, 732.0, 732.0, 730.0, 733.0, 732.0, 732.0, 731.0, 732.0, 734.0, 733.0, 732.0, 732.0, 731.0],
      "WindowWidth": [1592.0, 1586.0, 1587.0, 1588.0, 1592.0, 1594.0, 1591.0, 1589.0, 1587.0, 1587.0, 1589.0, 1591.0, 1589.0, 1589.0, 1588.0, 1586.0, 1589.0, 1591.0, 1594.0, 1595.0, 1591.0, 1589.0, 1589.0, 1588.0, 1590.0, 1589.0, 1591.0, 1589.0, 1591.0, 1591.0, 1591.0, 1592.0, 1591.0, 1595.0, 1600.0, 1600.0, 1593.0, 1590.0, 1591.0, 1592.0, 1591.0, 1593.0, 1588.0, 1597.0, 1591.0, 1596.0, 1591.0, 1596.0, 1594.0, 1590.0, 1594.0, 1596.0, 1594.0, 1594.0, 1599.0, 1603.0, 1600.0, 1598.0, 1596.0, 1595.0, 1594.0, 1597.0, 1597.0, 1595.0, 1591.0, 1590.0, 1596.0, 1596.0, 1592.0, 1588.0, 1590.0, 1594.0, 1592.0, 1588.0, 1591.0, 1586.0, 1582.0, 1582.0, 1580.0, 1580.0, 1578.0, 1582.0, 1584.0, 1586.0, 1586.0, 1585.0, 1584.0, 1583.0, 1585.0, 1585.0, 1588.0, 1591.0, 1592.0, 1590.0, 1589.0, 1591.0, 1593.0, 1594.0, 1594.0, 1594.0, 1591.0, 1591.0, 1595.0, 1592.0, 1587.0, 1580.0, 1595.0, 1586.0, 1588.0, 1577.0, 1591.0, 1589.0, 1579.0, 1594.0, 1590.0, 1591.0, 1590.0, 1588.0, 1586.0, 1588.0, 1583.0, 1578.0, 1565.0, 1593.0, 1582.0, 1587.0, 1586.0, 1578.0, 1578.0, 1597.0, 1597.0, 1598.0, 1595.0, 1594.0, 1591.0, 1593.0, 1597.0, 1596.0, 1595.0, 1594.0, 1594.0, 1593.0, 1593.0, 1592.0, 1591.0, 1592.0, 1592.0, 1592.0, 1589.0, 1587.0, 1588.0, 1590.0, 1589.0, 1588.0, 1589.0, 1587.0, 1585.0, 1581.0, 1580.0, 1577.0, 1580.0, 1577.0, 1585.0, 1585.0, 1581.0, 1583.0, 1584.0, 1587.0, 1585.0, 1581.0, 1583.0, 1584.0, 1580.0, 1578.0, 1579.0, 1582.0, 1581.0, 1576.0, 1576.0, 1581.0, 1580.0, 1575.0, 1574.0, 1579.0, 1582.0, 1586.0, 1581.0, 1590.0, 1575.0, 1585.0, 1574.0, 1587.0, 1581.0, 1587.0, 1592.0, 1590.0, 1587.0, 1585.0, 1588.0, 1590.0, 1589.0, 1587.0, 1587.0, 1588.0, 1587.0, 1586.0, 1589.0, 1589.0, 1591.0, 1590.0, 1591.0, 1589.0, 1586.0, 1584.0, 1584.0, 1586.0, 1587.0, 1582.0, 1582.0, 1585.0, 1586.0, 1580.0, 1587.0, 1586.0, 1584.0, 1583.0, 1585.0, 1590.0, 1589.0, 1586.0, 1585.0, 1582.0]
    },
    "slices": {}
  }
}