{
  "AcquisitionMatrixPE": 100,
  "AcquisitionNumber": 1,
  "AcquisitionTime": "10:24:13.387500",
  "BandwidthPerPixelPhaseEncode": 18.519,
  "BaseResolution": 100,
  "BodyPartExamined": "BRAIN",
  "ConsistencyInfo": "N4_VE11C_LATEST_20160120",
  "ConversionSoftware": "dcm2niix",
  "ConversionSoftwareVersion": "v1.0.20180622 GCC4.9.2",
  "DerivedVendorReportedEchoSpacing": 0.000539986,
  "DeviceSerialNumber": "166078",
  "DwellTime": 2.1e-06,
  "EchoTime": 0.034,
  "EchoTrainLength": 100,
  "EffectiveEchoSpacing": 0.000539986,
  "FlipAngle": 90,
  "ImageOrientationPatientDICOM": [0.999784, 0.00310587, 0.0205322, -1.57831e-08, 0.988752, -0.149566],
  "ImageType": [
    "ORIGINAL",
    "PRIMARY",
    "M",
    "ND",
    "MOSAIC"
],
  "InPlanePhaseEncodingDirectionDICOM": "COL",
  "InstitutionAddress": "Street_StreetNo_Bei_Jing_District_CN_ZIP",
  "InstitutionName": "BeiJing_Normal_University",
  "InstitutionalDepartmentName": "Department",
  "MRAcquisitionType": "2D",
  "MagneticFieldStrength": 3,
  "Manufacturer": "Siemens",
  "ManufacturersModelName": "Prisma",
  "Modality": "MR",
  "MultibandAccelerationFactor": 3,
  "PartialFourier": 1,
  "PatientPosition": "HFS",
  "PercentPhaseFOV": 100,
  "PhaseEncodingDirection": "j-",
  "PhaseEncodingSteps": 100,
  "PhaseResolution": 1,
  "PixelBandwidth": 2380,
  "ProcedureStepDescription": "BNU_P2018_64CH_Liu.Jia",
  "ProtocolName": "bold_100x100_s3_2x2x2_232",
  "PulseSequenceDetails": "%SiemensSeq%_ep2d_bold",
  "ReceiveCoilActiveElements": "HC1-7;NC1",
  "ReceiveCoilName": "HeadNeck_64",
  "ReconMatrixPE": 100,
  "RepetitionTime": 2,
  "SAR": 0.0762384,
  "ScanOptions": "FS",
  "ScanningSequence": "EP",
  "SequenceName": "_epfid2d1_100",
  "SequenceVariant": "SK",
  "SeriesDescription": "bold_100x100_s3_2x2x2_232",
  "SeriesNumber": 4,
  "ShimSetting": [-5455, -11487, -1246, 352, -15, -113, -193, 87],
  "SliceThickness": 2,
  "SliceTiming": [1.485, 0, 0.99, 0.0825, 1.0725, 0.165, 1.155, 0.2475, 1.2375, 0.33, 1.32, 0.4125, 1.4025, 0.5775, 1.5675, 0.66, 1.65, 0.7425, 1.7325, 0.825, 1.815, 0.9075, 1.8975, 0.495, 1.485, 0, 0.99, 0.0825, 1.0725, 0.165, 1.155, 0.2475, 1.2375, 0.33, 1.32, 0.4125, 1.4025, 0.5775, 1.5675, 0.66, 1.65, 0.7425, 1.7325, 0.825, 1.815, 0.9075, 1.8975, 0.495, 1.485, 0, 0.99, 0.0825, 1.0725, 0.165, 1.155, 0.2475, 1.2375, 0.33, 1.32, 0.4125, 1.4025, 0.5775, 1.5675, 0.66, 1.65, 0.7425, 1.7325, 0.825, 1.815, 0.9075, 1.8975, 0.495],
  "SoftwareVersions": "syngo_MR_E11",
  "SpacingBetweenSlices": 2,
  "StationName": "AWP166078",
  "TaskName": "motor",
  "TotalReadoutTime": 0.0534586,
  "TxRefAmp": 209.348,
  "dcmmeta_affine": [
    [-1.9995687007904053, -3.1566177227659864e-08, 0.041531629860401154, 99.93097686767578],
    [-0.006211732514202595, 1.9775036573410034, -0.29906657338142395, -86.86141204833984],
    [0.04106447100639343, 0.2991310954093933, 1.9770771265029907, -73.86609649658203],
    [0.0, 0.0, 0.0, 1.0]
],
  "dcmmeta_reorient_transform": [
    [0.0, -1.0, 0.0, 99.0],
    [1.0, 0.0, 0.0, 0.0],
    [0.0, 0.0, 1.0, 0.0],
    [0.0, 0.0, 0.0, 1.0]
],
  "dcmmeta_shape": [100, 100, 72, 232],
  "dcmmeta_slice_dim": 2,
  "dcmmeta_version": 0.6,
  "global": {
    "const": {
      "AcquisitionMatrix": [100, 0, 0, 100],
      "AngioFlag": "N",
      "BitsAllocated": 16,
      "BitsStored": 12,
      "BodyPartExamined": "BRAIN",
      "Columns": 900,
      "EchoNumbers": 1,
      "EchoTime": 34.0,
      "EchoTrainLength": 100,
      "FlipAngle": 90.0,
      "HighBit": 11,
      "ImageOrientationPatient": [0.99978436719939, 0.00310586617396, 0.02053223560724, -1.5783088e-08, 0.98875181285974, -0.1495655460545],
      "ImagePositionPatient": [-899.75845702994, -902.39759148158, 58.974526674276],
      "ImageType": [
        "ORIGINAL",
        "PRIMARY",
        "M",
        "ND",
        "MOSAIC"
],
      "ImagedNucleus": "1H",
      "ImagingFrequency": 123.257835,
      "InPlanePhaseEncodingDirection": "COL",
      "LargestImagePixelValue": 4095,
      "MRAcquisitionType": "2D",
      "MagneticFieldStrength": 3.0,
      "Manufacturer": "SIEMENS",
      "ManufacturerModelName": "Prisma",
      "Modality": "MR",
      "NumberOfAverages": 1.0,
      "NumberOfPhaseEncodingSteps": 100,
      "PercentPhaseFieldOfView": 100.0,
      "PercentSampling": 100.0,
      "PerformedProcedureStepStartTime": "101229.817000",
      "PhotometricInterpretation": "MONOCHROME2",
      "PixelBandwidth": 2380.0,
      "PixelRepresentation": 0,
      "PixelSpacing": [2.0, 2.0],
      "ProtocolName": "bold_100x100_s3_2x2x2_232",
      "RepetitionTime": 2000.0,
      "Rows": 900,
      "SAR": 0.07623838279172,
      "SamplesPerPixel": 1,
      "ScanOptions": "FS",
      "ScanningSequence": "EP",
      "SequenceName": "*epfid2d1_100",
      "SequenceVariant": "SK",
      "SeriesDescription": "bold_100x100_s3_2x2x2_232",
      "SeriesNumber": 4,
      "SeriesTime": "102416.633000",
      "SliceLocation": -57.955670095695,
      "SliceThickness": 2.0,
      "SmallestImagePixelValue": 0,
      "SoftwareVersions": "syngo MR E11",
      "SpacingBetweenSlices": 1.999999950325,
      "SpecificCharacterSet": "ISO_IR 100",
      "StudyID": "1",
      "StudyTime": "101229.741000",
      "TransmitCoilName": "Body",
      "VariableFlipAngleFlag": "N",
      "WindowCenterWidthExplanation": "Algo1",
      "dBdt": 0.0},
    "slices": {}
  },
  "time": {
    "samples": {
      "AcquisitionNumber": [1, 2, 3, 4, 5, 6, 7, 8, 9, 10, 11, 12, 13, 14, 15, 16, 17, 18, 19, 20, 21, 22, 23, 24, 25, 26, 27, 28, 29, 30, 31, 32, 33, 34, 35, 36, 37, 38, 39, 40, 41, 42, 43, 44, 45, 46, 47, 48, 49, 50, 51, 52, 53, 54, 55, 56, 57, 58, 59, 60, 61, 62, 63, 64, 65, 66, 67, 68, 69, 70, 71, 72, 73, 74, 75, 76, 77, 78, 79, 80, 81, 82, 83, 84, 85, 86, 87, 88, 89, 90, 91, 92, 93, 94, 95, 96, 97, 98, 99, 100, 101, 102, 103, 104, 105, 106, 107, 108, 109, 110, 111, 112, 113, 114, 115, 116, 117, 118, 119, 120, 121, 122, 123, 124, 125, 126, 127, 128, 129, 130, 131, 132, 133, 134, 135, 136, 137, 138, 139, 140, 141, 142, 143, 144, 145, 146, 147, 148, 149, 150, 151, 152, 153, 154, 155, 156, 157, 158, 159, 160, 161, 162, 163, 164, 165, 166, 167, 168, 169, 170, 171, 172, 173, 174, 175, 176, 177, 178, 179, 180, 181, 182, 183, 184, 185, 186, 187, 188, 189, 190, 191, 192, 193, 194, 195, 196, 197, 198, 199, 200, 201, 202, 203, 204, 205, 206, 207, 208, 209, 210, 211, 212, 213, 214, 215, 216, 217, 218, 219, 220, 221, 222, 223, 224, 225, 226, 227, 228, 229, 230, 231, 232],
      "AcquisitionTime": ["102413.387500", "102415.387500", "102417.387500", "102419.387500", "102421.387500", "102423.387500", "102425.387500", "102427.387500", "102429.387500", "102431.387500", "102433.387500", "102435.387500", "102437.387500", "102439.387500", "102441.387500", "102443.387500", "102445.387500", "102447.387500", "102449.387500", "102451.387500", "102453.387500", "102455.387500", "102457.387500", "102459.387500", "102501.387500", "102503.387500", "102505.387500", "102507.387500", "102509.387500", "102511.387500", "102513.387500", "102515.387500", "102517.387500", "102519.387500", "102521.387500", "102523.387500", "102525.387500", "102527.387500", "102529.387500", "102531.387500", "102533.387500", "102535.387500", "102537.387500", "102539.387500", "102541.387500", "102543.387500", "102545.387500", "102547.387500", "102549.387500", "102551.387500", "102553.387500", "102555.387500", "102557.387500", "102559.387500", "102601.387500", "102603.387500", "102605.387500", "102607.387500", "102609.387500", "102611.387500", "102613.387500", "102615.387500", "102617.387500", "102619.387500", "102621.387500", "102623.387500", "102625.387500", "102627.387500", "102629.387500", "102631.387500", "102633.387500", "102635.387500", "102637.387500", "102639.387500", "102641.387500", "102643.387500", "102645.387500", "102647.387500", "102649.387500", "102651.387500", "102653.387500", "102655.387500", "102657.387500", "102659.387500", "102701.387500", "102703.387500", "102705.387500", "102707.387500", "102709.387500", "102711.387500", "102713.387500", "102715.387500", "102717.387500", "102719.387500", "102721.387500", "102723.387500", "102725.387500", "102727.387500", "102729.387500", "102731.387500", "102733.387500", "102735.387500", "102737.387500", "102739.387500", "102741.387500", "102743.387500", "102745.387500", "102747.387500", "102749.387500", "102751.387500", "102753.387500", "102755.387500", "102757.387500", "102759.387500", "102801.387500", "102803.387500", "102805.387500", "102807.387500", "102809.387500", "102811.387500", "102813.387500", "102815.387500", "102817.387500", "102819.387500", "102821.387500", "102823.387500", "102825.387500", "102827.387500", "102829.387500", "102831.387500", "102833.387500", "102835.387500", "102837.387500", "102839.387500", "102841.387500", "102843.387500", "102845.387500", "102847.387500", "102849.387500", "102851.387500", "102853.387500", "102855.387500", "102857.387500", "102859.387500", "102901.387500", "102903.387500", "102905.387500", "102907.387500", "102909.387500", "102911.387500", "102913.387500", "102915.387500", "102917.387500", "102919.387500", "102921.387500", "102923.387500", "102925.387500", "102927.387500", "102929.387500", "102931.387500", "102933.387500", "102935.387500", "102937.387500", "102939.387500", "102941.387500", "102943.387500", "102945.387500", "102947.387500", "102949.387500", "102951.387500", "102953.387500", "102955.387500", "102957.387500", "102959.387500", "103001.387500", "103003.387500", "103005.387500", "103007.387500", "103009.387500", "103011.387500", "103013.387500", "103015.387500", "103017.387500", "103019.387500", "103021.387500", "103023.387500", "103025.387500", "103027.387500", "103029.387500", "103031.387500", "103033.387500", "103035.387500", "103037.387500", "103039.387500", "103041.387500", "103043.387500", "103045.387500", "103047.387500", "103049.387500", "103051.387500", "103053.387500", "103055.387500", "103057.387500", "103059.387500", "103101.387500", "103103.387500", "103105.387500", "103107.387500", "103109.387500", "103111.387500", "103113.387500", "103115.387500", "103117.387500", "103119.387500", "103121.387500", "103123.387500", "103125.387500", "103127.387500", "103129.387500", "103131.387500", "103133.387500", "103135.387500", "103137.387500", "103139.387500", "103141.387500", "103143.387500", "103145.387500", "103147.387500", "103149.387500", "103151.387500", "103153.387500", "103155.387500"],
      "ContentTime": ["102416.636000", "102417.632000", "102419.633000", "102421.632000", "102423.632000", "102425.632000", "102427.632000", "102429.632000", "102431.632000", "102433.632000", "102435.632000", "102437.634000", "102439.632000", "102441.633000", "102443.632000", "102445.632000", "102447.632000", "102449.632000", "102451.632000", "102453.634000", "102455.634000", "102457.632000", "102459.632000", "102501.633000", "102503.632000", "102505.632000", "102507.633000", "102509.632000", "102511.633000", "102513.633000", "102515.633000", "102517.632000", "102519.632000", "102521.632000", "102523.632000", "102525.632000", "102527.632000", "102529.633000", "102532.132000", "102533.633000", "102535.632000", "102537.632000", "102539.632000", "102541.633000", "102543.632000", "102545.632000", "102547.634000", "102549.632000", "102551.633000", "102553.632000", "102555.633000", "102557.632000", "102559.632000", "102601.632000", "102603.633000", "102605.633000", "102607.632000", "102609.633000", "102611.632000", "102613.633000", "102615.632000", "102617.632000", "102619.632000", "102621.634000", "102623.633000", "102625.633000", "102627.632000", "102629.632000", "102631.632000", "102633.632000", "102635.632000", "102637.632000", "102639.633000", "102641.632000", "102643.632000", "102645.633000", "102647.632000", "102649.632000", "102651.632000", "102653.633000", "102655.632000", "102657.633000", "102659.633000", "102701.632000", "102703.632000", "102705.632000", "102707.633000", "102709.632000", "102711.632000", "102713.633000", "102715.633000", "102717.632000", "102719.633000", "102721.633000", "102723.632000", "102725.632000", "102727.632000", "102729.632000", "102731.633000", "102733.634000", "102735.652000", "102737.633000", "102739.632000", "102741.632000", "102743.633000", "102745.632000", "102747.632000", "102749.633000", "102751.632000", "102753.632000", "102755.633000", "102757.633000", "102759.633000", "102801.632000", "102803.633000", "102805.632000", "102807.633000", "102809.632000", "102811.633000", "102813.633000", "102815.632000", "102817.633000", "102819.633000", "102821.632000", "102823.633000", "102825.633000", "102827.632000", "102829.632000", "102831.632000", "102833.632000", "102835.632000", "102837.632000", "102839.632000", "102841.633000", "102843.633000", "102845.633000", "102847.632000", "102849.632000", "102851.632000", "102853.632000", "102855.633000", "102857.632000", "102859.633000", "102901.632000", "102903.633000", "102905.632000", "102907.632000", "102909.632000", "102911.632000", "102913.632000", "102915.632000", "102917.633000", "102919.632000", "102921.632000", "102923.632000", "102925.632000", "102927.633000", "102929.632000", "102931.632000", "102933.633000", "102935.633000", "102937.632000", "102939.632000", "102941.633000", "102943.632000", "102945.633000", "102947.632000", "102950.132000", "102951.633000", "102953.633000", "102955.633000", "102957.633000", "102959.632000", "103001.632000", "103003.632000", "103005.633000", "103007.632000", "103010.134000", "103011.633000", "103013.633000", "103015.632000", "103017.632000", "103019.632000", "103021.633000", "103023.633000", "103025.633000", "103027.634000", "103029.633000", "103031.632000", "103033.633000", "103035.633000", "103037.632000", "103039.632000", "103041.632000", "103043.633000", "103045.633000", "103047.632000", "103049.632000", "103051.632000", "103053.632000", "103055.633000", "103057.633000", "103059.632000", "103101.633000", "103103.634000", "103105.632000", "103107.632000", "103109.633000", "103111.633000", "103113.632000", "103115.632000", "103117.632000", "103119.633000", "103121.632000", "103123.632000", "103125.632000", "103127.633000", "103129.632000", "103131.632000", "103133.633000", "103135.633000", "103137.633000", "103139.632000", "103141.632000", "103143.632000", "103145.632000", "103147.633000", "103149.633000", "103151.632000", "103153.633000", "103155.633000", "103157.448000"],
      "InstanceCreationTime": ["102416.636000", "102417.632000", "102419.633000", "102421.632000", "102423.632000", "102425.632000", "102427.632000", "102429.632000", "102431.632000", "102433.632000", "102435.632000", "102437.634000", "102439.632000", "102441.633000", "102443.632000", "102445.632000", "102447.632000", "102449.632000", "102451.632000", "102453.634000", "102455.634000", "102457.632000", "102459.632000", "102501.633000", "102503.632000", "102505.632000", "102507.633000", "102509.632000", "102511.633000", "102513.633000", "102515.633000", "102517.632000", "102519.632000", "102521.632000", "102523.632000", "102525.632000", "102527.632000", "102529.633000", "102532.132000", "102533.633000", "102535.632000", "102537.632000", "102539.632000", "102541.633000", "102543.632000", "102545.632000", "102547.634000", "102549.632000", "102551.633000", "102553.632000", "102555.633000", "102557.632000", "102559.632000", "102601.632000", "102603.633000", "102605.633000", "102607.632000", "102609.633000", "102611.632000", "102613.633000", "102615.632000", "102617.632000", "102619.632000", "102621.634000", "102623.633000", "102625.633000", "102627.632000", "102629.632000", "102631.632000", "102633.632000", "102635.632000", "102637.632000", "102639.633000", "102641.632000", "102643.632000", "102645.633000", "102647.632000", "102649.632000", "102651.632000", "102653.633000", "102655.632000", "102657.633000", "102659.633000", "102701.632000", "102703.632000", "102705.632000", "102707.633000", "102709.632000", "102711.632000", "102713.633000", "102715.633000", "102717.632000", "102719.633000", "102721.633000", "102723.632000", "102725.632000", "102727.632000", "102729.632000", "102731.633000", "102733.634000", "102735.652000", "102737.633000", "102739.632000", "102741.632000", "102743.633000", "102745.632000", "102747.632000", "102749.633000", "102751.632000", "102753.632000", "102755.633000", "102757.633000", "102759.633000", "102801.632000", "102803.633000", "102805.632000", "102807.633000", "102809.632000", "102811.633000", "102813.633000", "102815.632000", "102817.633000", "102819.633000", "102821.632000", "102823.633000", "102825.633000", "102827.632000", "102829.632000", "102831.632000", "102833.632000", "102835.632000", "102837.632000", "102839.632000", "102841.633000", "102843.633000", "102845.633000", "102847.632000", "102849.632000", "102851.632000", "102853.632000", "102855.633000", "102857.632000", "102859.633000", "102901.632000", "102903.633000", "102905.632000", "102907.632000", "102909.632000", "102911.632000", "102913.632000", "102915.632000", "102917.633000", "102919.632000", "102921.632000", "102923.632000", "102925.632000", "102927.633000", "102929.632000", "102931.632000", "102933.633000", "102935.633000", "102937.632000", "102939.632000", "102941.633000", "102943.632000", "102945.633000", "102947.632000", "102950.132000", "102951.633000", "102953.633000", "102955.633000", "102957.633000", "102959.632000", "103001.632000", "103003.632000", "103005.633000", "103007.632000", "103010.134000", "103011.633000", "103013.633000", "103015.632000", "103017.632000", "103019.632000", "103021.633000", "103023.633000", "103025.633000", "103027.634000", "103029.633000", "103031.632000", "103033.633000", "103035.633000", "103037.632000", "103039.632000", "103041.632000", "103043.633000", "103045.633000", "103047.632000", "103049.632000", "103051.632000", "103053.632000", "103055.633000", "103057.633000", "103059.632000", "103101.633000", "103103.634000", "103105.632000", "103107.632000", "103109.633000", "103111.633000", "103113.632000", "103115.632000", "103117.632000", "103119.633000", "103121.632000", "103123.632000", "103125.632000", "103127.633000", "103129.632000", "103131.632000", "103133.633000", "103135.633000", "103137.633000", "103139.632000", "103141.632000", "103143.632000", "103145.632000", "103147.633000", "103149.633000", "103151.632000", "103153.633000", "103155.633000", "103157.448000"],
      "InstanceNumber": [1, 2, 3, 4, 5, 6, 7, 8, 9, 10, 11, 12, 13, 14, 15, 16, 17, 18, 19, 20, 21, 22, 23, 24, 25, 26, 27, 28, 29, 30, 31, 32, 33, 34, 35, 36, 37, 38, 39, 40, 41, 42, 43, 44, 45, 46, 47, 48, 49, 50, 51, 52, 53, 54, 55, 56, 57, 58, 59, 60, 61, 62, 63, 64, 65, 66, 67, 68, 69, 70, 71, 72, 73, 74, 75, 76, 77, 78, 79, 80, 81, 82, 83, 84, 85, 86, 87, 88, 89, 90, 91, 92, 93, 94, 95, 96, 97, 98, 99, 100, 101, 102, 103, 104, 105, 106, 107, 108, 109, 110, 111, 112, 113, 114, 115, 116, 117, 118, 119, 120, 121, 122, 123, 124, 125, 126, 127, 128, 129, 130, 131, 132, 133, 134, 135, 136, 137, 138, 139, 140, 141, 142, 143, 144, 145, 146, 147, 148, 149, 150, 151, 152, 153, 154, 155, 156, 157, 158, 159, 160, 161, 162, 163, 164, 165, 166, 167, 168, 169, 170, 171, 172, 173, 174, 175, 176, 177, 178, 179, 180, 181, 182, 183, 184, 185, 186, 187, 188, 189, 190, 191, 192, 193, 194, 195, 196, 197, 198, 199, 200, 201, 202, 203, 204, 205, 206, 207, 208, 209, 210, 211, 212, 213, 214, 215, 216, 217, 218, 219, 220, 221, 222, 223, 224, 225, 226, 227, 228, 229, 230, 231, 232],
      "WindowCenter": [845.0, 844.0, 843.0, 843.0, 842.0, 842.0, 842.0, 842.0, 842.0, 843.0, 844.0, 844.0, 844.0, 844.0, 844.0, 844.0, 844.0, 844.0, 844.0, 844.0, 844.0, 843.0, 844.0, 844.0, 844.0, 844.0, 844.0, 844.0, 843.0, 843.0, 843.0, 842.0, 843.0, 844.0, 844.0, 844.0, 843.0, 842.0, 842.0, 843.0, 843.0, 844.0, 844.0, 844.0, 843.0, 844.0, 844.0, 844.0, 844.0, 843.0, 844.0, 842.0, 841.0, 841.0, 843.0, 843.0, 843.0, 843.0, 843.0, 843.0, 843.0, 842.0, 842.0, 842.0, 842.0, 842.0, 843.0, 843.0, 843.0, 843.0, 843.0, 844.0, 844.0, 844.0, 844.0, 844.0, 844.0, 843.0, 843.0, 844.0, 844.0, 845.0, 846.0, 846.0, 846.0, 846.0, 846.0, 846.0, 846.0, 845.0, 846.0, 845.0, 845.0, 845.0, 844.0, 843.0, 843.0, 843.0, 845.0, 843.0, 842.0, 843.0, 843.0, 843.0, 844.0, 844.0, 844.0, 844.0, 844.0, 843.0, 843.0, 843.0, 843.0, 844.0, 842.0, 841.0, 840.0, 840.0, 840.0, 840.0, 839.0, 839.0, 841.0, 841.0, 841.0, 841.0, 841.0, 842.0, 842.0, 843.0, 843.0, 843.0, 842.0, 842.0, 842.0, 842.0, 842.0, 841.0, 842.0, 841.0, 841.0, 841.0, 842.0, 842.0, 842.0, 843.0, 843.0, 844.0, 843.0, 843.0, 842.0, 842.0, 843.0, 843.0, 843.0, 843.0, 843.0, 843.0, 844.0, 844.0, 844.0, 843.0, 844.0, 844.0, 844.0, 843.0, 843.0, 843.0, 842.0, 843.0, 843.0, 842.0, 840.0, 840.0, 840.0, 841.0, 841.0, 842.0, 842.0, 842.0, 842.0, 842.0, 842.0, 843.0, 843.0, 843.0, 843.0, 843.0, 843.0, 843.0, 843.0, 842.0, 842.0, 842.0, 842.0, 842.0, 842.0, 842.0, 842.0, 842.0, 842.0, 843.0, 843.0, 843.0, 842.0, 842.0, 842.0, 842.0, 843.0, 843.0, 842.0, 842.0, 842.0, 842.0, 842.0, 842.0, 842.0, 842.0, 843.0, 842.0, 842.0, 842.0, 841.0, 841.0, 842.0, 843.0, 844.0, 843.0, 842.0, 841.0, 841.0, 840.0],
      "WindowWidth": [1911.0, 1906.0, 1904.0, 1902.0, 1902.0, 1901.0, 1900.0, 1899.0, 1901.0, 1904.0, 1907.0, 1906.0, 1906.0, 1906.0, 1906.0, 1906.0, 1905.0, 1907.0, 1907.0, 1908.0, 1906.0, 1905.0, 1907.0, 1907.0, 1907.0, 1907.0, 1908.0, 1907.0, 1905.0, 1904.0, 1903.0, 1901.0, 1903.0, 1905.0, 1908.0, 1907.0, 1902.0, 1900.0, 1901.0, 1902.0, 1904.0, 1906.0, 1907.0, 1906.0, 1904.0, 1906.0, 1907.0, 1907.0, 1905.0, 1904.0, 1905.0, 1899.0, 1896.0, 1898.0, 1902.0, 1904.0, 1905.0, 1905.0, 1905.0, 1901.0, 1902.0, 1901.0, 1899.0, 1899.0, 1899.0, 1900.0, 1903.0, 1902.0, 1903.0, 1903.0, 1904.0, 1905.0, 1905.0, 1906.0, 1906.0, 1906.0, 1907.0, 1904.0, 1904.0, 1907.0, 1907.0, 1908.0, 1912.0, 1914.0, 1913.0, 1914.0, 1914.0, 1912.0, 1912.0, 1911.0, 1912.0, 1911.0, 1909.0, 1910.0, 1908.0, 1905.0, 1903.0, 1906.0, 1911.0, 1906.0, 1902.0, 1903.0, 1904.0, 1905.0, 1907.0, 1907.0, 1908.0, 1908.0, 1907.0, 1905.0, 1904.0, 1905.0, 1905.0, 1906.0, 1900.0, 1897.0, 1893.0, 1895.0, 1896.0, 1893.0, 1891.0, 1892.0, 1896.0, 1897.0, 1897.0, 1895.0, 1897.0, 1900.0, 1900.0, 1904.0, 1905.0, 1904.0, 1901.0, 1901.0, 1901.0, 1902.0, 1902.0, 1897.0, 1900.0, 1898.0, 1896.0, 1899.0, 1901.0, 1902.0, 1901.0, 1903.0, 1904.0, 1907.0, 1904.0, 1902.0, 1901.0, 1902.0, 1903.0, 1904.0, 1904.0, 1902.0, 1903.0, 1903.0, 1907.0, 1908.0, 1906.0, 1906.0, 1908.0, 1909.0, 1907.0, 1905.0, 1905.0, 1904.0, 1901.0, 1903.0, 1904.0, 1899.0, 1895.0, 1894.0, 1894.0, 1896.0, 1895.0, 1898.0, 1899.0, 1900.0, 1898.0, 1898.0, 1900.0, 1903.0, 1902.0, 1901.0, 1904.0, 1903.0, 1903.0, 1902.0, 1902.0, 1901.0, 1900.0, 1900.0, 1901.0, 1901.0, 1901.0, 1900.0, 1900.0, 1902.0, 1901.0, 1902.0, 1903.0, 1903.0, 1900.0, 1898.0, 1899.0, 1901.0, 1902.0, 1903.0, 1901.0, 1899.0, 1900.0, 1899.0, 1900.0, 1900.0, 1899.0, 1901.0, 1903.0, 1901.0, 1900.0, 1897.0, 1895.0, 1895.0, 1898.0, 1903.0, 1906.0, 1902.0, 1898.0, 1897.0, 1895.0, 1894.0]
    },
    "slices": {}
  }
}