{
  "AcquisitionMatrixPE": 100,
  "AcquisitionNumber": 1,
  "AcquisitionTime": "10:32:49.702500",
  "BandwidthPerPixelPhaseEncode": 18.519,
  "BaseResolution": 100,
  "BodyPartExamined": "BRAIN",
  "ConsistencyInfo": "N4_VE11C_LATEST_20160120",
  "ConversionSoftware": "dcm2niix",
  "ConversionSoftwareVersion": "v1.0.20180622 GCC4.9.2",
  "DerivedVendorReportedEchoSpacing": 0.000539986,
  "DeviceSerialNumber": "166078",
  "DwellTime": 2.1e-06,
  "EchoTime": 0.034,
  "EchoTrainLength": 100,
  "EffectiveEchoSpacing": 0.000539986,
  "FlipAngle": 90,
  "ImageOrientationPatientDICOM": [0.999784, 0.00310587, 0.0205322, -1.57831e-08, 0.988752, -0.149566],
  "ImageType": [
    "ORIGINAL",
    "PRIMARY",
    "M",
    "ND",
    "MOSAIC"
],
  "InPlanePhaseEncodingDirectionDICOM": "COL",
  "InstitutionAddress": "Street_StreetNo_Bei_Jing_District_CN_ZIP",
  "InstitutionName": "BeiJing_Normal_University",
  "InstitutionalDepartmentName": "Department",
  "MRAcquisitionType": "2D",
  "MagneticFieldStrength": 3,
  "Manufacturer": "Siemens",
  "ManufacturersModelName": "Prisma",
  "Modality": "MR",
  "MultibandAccelerationFactor": 3,
  "PartialFourier": 1,
  "PatientPosition": "HFS",
  "PercentPhaseFOV": 100,
  "PhaseEncodingDirection": "j-",
  "PhaseEncodingSteps": 100,
  "PhaseResolution": 1,
  "PixelBandwidth": 2380,
  "ProcedureStepDescription": "BNU_P2018_64CH_Liu.Jia",
  "ProtocolName": "bold_100x100_s3_2x2x2_232",
  "PulseSequenceDetails": "%SiemensSeq%_ep2d_bold",
  "ReceiveCoilActiveElements": "HC1-7;NC1",
  "ReceiveCoilName": "HeadNeck_64",
  "ReconMatrixPE": 100,
  "RepetitionTime": 2,
  "SAR": 0.0762384,
  "ScanOptions": "FS",
  "ScanningSequence": "EP",
  "SequenceName": "_epfid2d1_100",
  "SequenceVariant": "SK",
  "SeriesDescription": "bold_100x100_s3_2x2x2_232",
  "SeriesNumber": 5,
  "ShimSetting": [-5455, -11487, -1246, 352, -15, -113, -193, 87],
  "SliceThickness": 2,
  "SliceTiming": [1.485, 0, 0.99, 0.0825, 1.0725, 0.165, 1.155, 0.2475, 1.2375, 0.33, 1.32, 0.4125, 1.4025, 0.5775, 1.5675, 0.66, 1.65, 0.7425, 1.7325, 0.825, 1.815, 0.9075, 1.8975, 0.495, 1.485, 0, 0.99, 0.0825, 1.0725, 0.165, 1.155, 0.2475, 1.2375, 0.33, 1.32, 0.4125, 1.4025, 0.5775, 1.5675, 0.66, 1.65, 0.7425, 1.7325, 0.825, 1.815, 0.9075, 1.8975, 0.495, 1.485, 0, 0.99, 0.0825, 1.0725, 0.165, 1.155, 0.2475, 1.2375, 0.33, 1.32, 0.4125, 1.4025, 0.5775, 1.5675, 0.66, 1.65, 0.7425, 1.7325, 0.825, 1.815, 0.9075, 1.8975, 0.495],
  "SoftwareVersions": "syngo_MR_E11",
  "SpacingBetweenSlices": 2,
  "StationName": "AWP166078",
  "TaskName": "motor",
  "TotalReadoutTime": 0.0534586,
  "TxRefAmp": 209.348,
  "dcmmeta_affine": [
    [-1.9995687007904053, -3.1566177227659864e-08, 0.041531629860401154, 99.93097686767578],
    [-0.006211732514202595, 1.9775036573410034, -0.29906657338142395, -86.86141204833984],
    [0.04106447100639343, 0.2991310954093933, 1.9770771265029907, -73.86609649658203],
    [0.0, 0.0, 0.0, 1.0]
],
  "dcmmeta_reorient_transform": [
    [0.0, -1.0, 0.0, 99.0],
    [1.0, 0.0, 0.0, 0.0],
    [0.0, 0.0, 1.0, 0.0],
    [0.0, 0.0, 0.0, 1.0]
],
  "dcmmeta_shape": [100, 100, 72, 232],
  "dcmmeta_slice_dim": 2,
  "dcmmeta_version": 0.6,
  "global": {
    "const": {
      "AcquisitionMatrix": [100, 0, 0, 100],
      "AngioFlag": "N",
      "BitsAllocated": 16,
      "BitsStored": 12,
      "BodyPartExamined": "BRAIN",
      "Columns": 900,
      "EchoNumbers": 1,
      "EchoTime": 34.0,
      "EchoTrainLength": 100,
      "FlipAngle": 90.0,
      "HighBit": 11,
      "ImageOrientationPatient": [0.99978436719939, 0.00310586617396, 0.02053223560724, -1.5783088e-08, 0.98875181285974, -0.1495655460545],
      "ImagePositionPatient": [-899.75845702994, -902.39759148158, 58.974526674276],
      "ImageType": [
        "ORIGINAL",
        "PRIMARY",
        "M",
        "ND",
        "MOSAIC"
],
      "ImagedNucleus": "1H",
      "ImagingFrequency": 123.257839,
      "InPlanePhaseEncodingDirection": "COL",
      "LargestImagePixelValue": 4095,
      "MRAcquisitionType": "2D",
      "MagneticFieldStrength": 3.0,
      "Manufacturer": "SIEMENS",
      "ManufacturerModelName": "Prisma",
      "Modality": "MR",
      "NumberOfAverages": 1.0,
      "NumberOfPhaseEncodingSteps": 100,
      "PercentPhaseFieldOfView": 100.0,
      "PercentSampling": 100.0,
      "PerformedProcedureStepStartTime": "101229.817000",
      "PhotometricInterpretation": "MONOCHROME2",
      "PixelBandwidth": 2380.0,
      "PixelRepresentation": 0,
      "PixelSpacing": [2.0, 2.0],
      "ProtocolName": "bold_100x100_s3_2x2x2_232",
      "RepetitionTime": 2000.0,
      "Rows": 900,
      "SAR": 0.07623838279172,
      "SamplesPerPixel": 1,
      "ScanOptions": "FS",
      "ScanningSequence": "EP",
      "SequenceName": "*epfid2d1_100",
      "SequenceVariant": "SK",
      "SeriesDescription": "bold_100x100_s3_2x2x2_232",
      "SeriesNumber": 5,
      "SeriesTime": "103252.160000",
      "SliceLocation": -57.955670095695,
      "SliceThickness": 2.0,
      "SmallestImagePixelValue": 0,
      "SoftwareVersions": "syngo MR E11",
      "SpacingBetweenSlices": 1.999999950325,
      "SpecificCharacterSet": "ISO_IR 100",
      "StudyID": "1",
      "StudyTime": "101229.741000",
      "TransmitCoilName": "Body",
      "VariableFlipAngleFlag": "N",
      "WindowCenterWidthExplanation": "Algo1",
      "dBdt": 0.0},
    "slices": {}
  },
  "time": {
    "samples": {
      "AcquisitionNumber": [1, 2, 3, 4, 5, 6, 7, 8, 9, 10, 11, 12, 13, 14, 15, 16, 17, 18, 19, 20, 21, 22, 23, 24, 25, 26, 27, 28, 29, 30, 31, 32, 33, 34, 35, 36, 37, 38, 39, 40, 41, 42, 43, 44, 45, 46, 47, 48, 49, 50, 51, 52, 53, 54, 55, 56, 57, 58, 59, 60, 61, 62, 63, 64, 65, 66, 67, 68, 69, 70, 71, 72, 73, 74, 75, 76, 77, 78, 79, 80, 81, 82, 83, 84, 85, 86, 87, 88, 89, 90, 91, 92, 93, 94, 95, 96, 97, 98, 99, 100, 101, 102, 103, 104, 105, 106, 107, 108, 109, 110, 111, 112, 113, 114, 115, 116, 117, 118, 119, 120, 121, 122, 123, 124, 125, 126, 127, 128, 129, 130, 131, 132, 133, 134, 135, 136, 137, 138, 139, 140, 141, 142, 143, 144, 145, 146, 147, 148, 149, 150, 151, 152, 153, 154, 155, 156, 157, 158, 159, 160, 161, 162, 163, 164, 165, 166, 167, 168, 169, 170, 171, 172, 173, 174, 175, 176, 177, 178, 179, 180, 181, 182, 183, 184, 185, 186, 187, 188, 189, 190, 191, 192, 193, 194, 195, 196, 197, 198, 199, 200, 201, 202, 203, 204, 205, 206, 207, 208, 209, 210, 211, 212, 213, 214, 215, 216, 217, 218, 219, 220, 221, 222, 223, 224, 225, 226, 227, 228, 229, 230, 231, 232],
      "AcquisitionTime": ["103249.702500", "103251.702500", "103253.702500", "103255.702500", "103257.702500", "103259.702500", "103301.702500", "103303.702500", "103305.702500", "103307.702500", "103309.702500", "103311.702500", "103313.702500", "103315.702500", "103317.702500", "103319.702500", "103321.702500", "103323.702500", "103325.702500", "103327.702500", "103329.702500", "103331.702500", "103333.702500", "103335.702500", "103337.702500", "103339.702500", "103341.702500", "103343.702500", "103345.702500", "103347.702500", "103349.702500", "103351.702500", "103353.702500", "103355.702500", "103357.702500", "103359.702500", "103401.702500", "103403.702500", "103405.702500", "103407.702500", "103409.702500", "103411.702500", "103413.702500", "103415.702500", "103417.702500", "103419.702500", "103421.702500", "103423.702500", "103425.702500", "103427.702500", "103429.702500", "103431.702500", "103433.702500", "103435.702500", "103437.702500", "103439.702500", "103441.702500", "103443.702500", "103445.702500", "103447.702500", "103449.702500", "103451.702500", "103453.702500", "103455.702500", "103457.702500", "103459.702500", "103501.702500", "103503.702500", "103505.702500", "103507.702500", "103509.702500", "103511.702500", "103513.702500", "103515.702500", "103517.702500", "103519.702500", "103521.702500", "103523.702500", "103525.702500", "103527.702500", "103529.702500", "103531.702500", "103533.702500", "103535.702500", "103537.702500", "103539.702500", "103541.702500", "103543.702500", "103545.702500", "103547.702500", "103549.702500", "103551.702500", "103553.702500", "103555.702500", "103557.702500", "103559.702500", "103601.702500", "103603.702500", "103605.702500", "103607.702500", "103609.702500", "103611.702500", "103613.702500", "103615.702500", "103617.702500", "103619.702500", "103621.702500", "103623.702500", "103625.702500", "103627.702500", "103629.702500", "103631.702500", "103633.702500", "103635.702500", "103637.702500", "103639.702500", "103641.702500", "103643.702500", "103645.702500", "103647.702500", "103649.702500", "103651.702500", "103653.702500", "103655.702500", "103657.702500", "103659.702500", "103701.702500", "103703.702500", "103705.702500", "103707.702500", "103709.702500", "103711.702500", "103713.702500", "103715.702500", "103717.702500", "103719.702500", "103721.702500", "103723.702500", "103725.702500", "103727.702500", "103729.702500", "103731.702500", "103733.702500", "103735.702500", "103737.702500", "103739.702500", "103741.702500", "103743.702500", "103745.702500", "103747.702500", "103749.702500", "103751.702500", "103753.702500", "103755.702500", "103757.702500", "103759.702500", "103801.702500", "103803.702500", "103805.702500", "103807.702500", "103809.702500", "103811.702500", "103813.702500", "103815.702500", "103817.702500", "103819.702500", "103821.702500", "103823.702500", "103825.702500", "103827.702500", "103829.702500", "103831.702500", "103833.702500", "103835.702500", "103837.702500", "103839.702500", "103841.702500", "103843.702500", "103845.702500", "103847.702500", "103849.702500", "103851.702500", "103853.702500", "103855.702500", "103857.702500", "103859.702500", "103901.702500", "103903.702500", "103905.702500", "103907.702500", "103909.702500", "103911.702500", "103913.702500", "103915.702500", "103917.702500", "103919.702500", "103921.702500", "103923.702500", "103925.702500", "103927.702500", "103929.702500", "103931.702500", "103933.702500", "103935.702500", "103937.702500", "103939.702500", "103941.702500", "103943.702500", "103945.702500", "103947.702500", "103949.702500", "103951.702500", "103953.702500", "103955.702500", "103957.702500", "103959.702500", "104001.702500", "104003.702500", "104005.702500", "104007.702500", "104009.702500", "104011.702500", "104013.702500", "104015.702500", "104017.702500", "104019.702500", "104021.702500", "104023.702500", "104025.702500", "104027.702500", "104029.702500", "104031.702500"],
      "ContentTime": ["103252.163000", "103253.657000", "103255.657000", "103257.657000", "103259.658000", "103301.658000", "103303.659000", "103305.659000", "103307.658000", "103309.658000", "103311.658000", "103313.657000", "103315.658000", "103317.657000", "103319.657000", "103321.658000", "103323.658000", "103325.658000", "103327.658000", "103329.657000", "103331.658000", "103333.657000", "103335.658000", "103337.658000", "103339.658000", "103341.658000", "103343.658000", "103345.657000", "103347.657000", "103349.658000", "103351.658000", "103353.657000", "103355.658000", "103357.658000", "103359.658000", "103401.658000", "103403.658000", "103405.657000", "103407.657000", "103409.657000", "103411.658000", "103413.659000", "103415.658000", "103417.658000", "103419.657000", "103421.657000", "103423.658000", "103425.657000", "103427.657000", "103429.657000", "103431.658000", "103433.658000", "103435.659000", "103437.657000", "103439.657000", "103441.657000", "103443.657000", "103445.657000", "103447.658000", "103449.658000", "103451.658000", "103453.659000", "103455.657000", "103457.657000", "103459.658000", "103501.657000", "103503.658000", "103505.659000", "103507.658000", "103509.659000", "103511.659000", "103513.657000", "103515.657000", "103517.657000", "103519.657000", "103521.658000", "103523.658000", "103525.658000", "103527.658000", "103529.658000", "103531.658000", "103533.657000", "103535.657000", "103537.658000", "103539.658000", "103541.659000", "103543.658000", "103545.659000", "103547.657000", "103549.657000", "103551.657000", "103553.657000", "103555.657000", "103557.657000", "103559.659000", "103601.658000", "103603.659000", "103605.657000", "103607.657000", "103609.657000", "103611.657000", "103613.657000", "103615.659000", "103617.658000", "103619.658000", "103621.659000", "103623.657000", "103625.658000", "103627.658000", "103629.659000", "103631.657000", "103633.659000", "103635.659000", "103637.658000", "103639.658000", "103641.657000", "103643.657000", "103645.658000", "103647.657000", "103649.657000", "103651.658000", "103653.659000", "103655.658000", "103657.658000", "103659.657000", "103701.658000", "103703.658000", "103705.657000", "103707.658000", "103709.658000", "103711.658000", "103713.658000", "103715.657000", "103717.657000", "103719.657000", "103721.657000", "103723.658000", "103725.659000", "103727.658000", "103729.658000", "103731.659000", "103733.657000", "103735.658000", "103737.657000", "103739.657000", "103741.657000", "103743.659000", "103745.658000", "103747.658000", "103749.657000", "103751.658000", "103753.658000", "103755.658000", "103757.657000", "103759.657000", "103801.658000", "103803.659000", "103805.658000", "103807.657000", "103809.658000", "103811.657000", "103813.658000", "103815.657000", "103817.658000", "103819.659000", "103821.659000", "103823.659000", "103825.658000", "103827.657000", "103829.657000", "103831.657000", "103833.677000", "103835.659000", "103837.658000", "103839.659000", "103841.659000", "103843.658000", "103845.657000", "103847.657000", "103849.657000", "103851.657000", "103853.658000", "103855.659000", "103857.658000", "103859.658000", "103901.658000", "103903.658000", "103905.657000", "103907.658000", "103909.658000", "103911.658000", "103913.659000", "103915.659000", "103917.657000", "103919.657000", "103921.658000", "103923.658000", "103925.657000", "103927.658000", "103929.659000", "103931.658000", "103933.659000", "103935.657000", "103937.657000", "103939.658000", "103941.657000", "103943.658000", "103945.658000", "103947.658000", "103949.670000", "103951.658000", "103953.658000", "103955.657000", "103957.657000", "103959.657000", "104001.657000", "104003.659000", "104005.658000", "104007.659000", "104009.658000", "104011.657000", "104013.658000", "104015.657000", "104017.657000", "104019.658000", "104021.658000", "104023.659000", "104025.659000", "104027.658000", "104029.657000", "104031.658000", "104033.333000"],
      "InstanceCreationTime": ["103252.163000", "103253.657000", "103255.657000", "103257.657000", "103259.658000", "103301.658000", "103303.659000", "103305.659000", "103307.658000", "103309.658000", "103311.658000", "103313.657000", "103315.658000", "103317.657000", "103319.657000", "103321.658000", "103323.658000", "103325.658000", "103327.658000", "103329.657000", "103331.658000", "103333.657000", "103335.658000", "103337.658000", "103339.658000", "103341.658000", "103343.658000", "103345.657000", "103347.657000", "103349.658000", "103351.658000", "103353.657000", "103355.658000", "103357.658000", "103359.658000", "103401.658000", "103403.658000", "103405.657000", "103407.657000", "103409.657000", "103411.658000", "103413.659000", "103415.658000", "103417.658000", "103419.657000", "103421.657000", "103423.658000", "103425.657000", "103427.657000", "103429.657000", "103431.658000", "103433.658000", "103435.659000", "103437.657000", "103439.657000", "103441.657000", "103443.657000", "103445.657000", "103447.658000", "103449.658000", "103451.658000", "103453.659000", "103455.657000", "103457.657000", "103459.658000", "103501.657000", "103503.658000", "103505.659000", "103507.658000", "103509.659000", "103511.659000", "103513.657000", "103515.657000", "103517.657000", "103519.657000", "103521.658000", "103523.658000", "103525.658000", "103527.658000", "103529.658000", "103531.658000", "103533.657000", "103535.657000", "103537.658000", "103539.658000", "103541.659000", "103543.658000", "103545.659000", "103547.657000", "103549.657000", "103551.657000", "103553.657000", "103555.657000", "103557.657000", "103559.659000", "103601.658000", "103603.659000", "103605.657000", "103607.657000", "103609.657000", "103611.657000", "103613.657000", "103615.659000", "103617.658000", "103619.658000", "103621.659000", "103623.657000", "103625.658000", "103627.658000", "103629.659000", "103631.657000", "103633.659000", "103635.659000", "103637.658000", "103639.658000", "103641.657000", "103643.657000", "103645.658000", "103647.657000", "103649.657000", "103651.658000", "103653.659000", "103655.658000", "103657.658000", "103659.657000", "103701.658000", "103703.658000", "103705.657000", "103707.658000", "103709.658000", "103711.658000", "103713.658000", "103715.657000", "103717.657000", "103719.657000", "103721.657000", "103723.658000", "103725.659000", "103727.658000", "103729.658000", "103731.659000", "103733.657000", "103735.658000", "103737.657000", "103739.657000", "103741.657000", "103743.659000", "103745.658000", "103747.658000", "103749.657000", "103751.658000", "103753.658000", "103755.658000", "103757.657000", "103759.657000", "103801.658000", "103803.659000", "103805.658000", "103807.657000", "103809.658000", "103811.657000", "103813.658000", "103815.657000", "103817.658000", "103819.659000", "103821.659000", "103823.659000", "103825.658000", "103827.657000", "103829.657000", "103831.657000", "103833.677000", "103835.659000", "103837.658000", "103839.659000", "103841.659000", "103843.658000", "103845.657000", "103847.657000", "103849.657000", "103851.657000", "103853.658000", "103855.659000", "103857.658000", "103859.658000", "103901.658000", "103903.658000", "103905.657000", "103907.658000", "103909.658000", "103911.658000", "103913.659000", "103915.659000", "103917.657000", "103919.657000", "103921.658000", "103923.658000", "103925.657000", "103927.658000", "103929.659000", "103931.658000", "103933.659000", "103935.657000", "103937.657000", "103939.658000", "103941.657000", "103943.658000", "103945.658000", "103947.658000", "103949.670000", "103951.658000", "103953.658000", "103955.657000", "103957.657000", "103959.657000", "104001.657000", "104003.659000", "104005.658000", "104007.659000", "104009.658000", "104011.657000", "104013.658000", "104015.657000", "104017.657000", "104019.658000", "104021.658000", "104023.659000", "104025.659000", "104027.658000", "104029.657000", "104031.658000", "104033.333000"],
      "InstanceNumber": [1, 2, 3, 4, 5, 6, 7, 8, 9, 10, 11, 12, 13, 14, 15, 16, 17, 18, 19, 20, 21, 22, 23, 24, 25, 26, 27, 28, 29, 30, 31, 32, 33, 34, 35, 36, 37, 38, 39, 40, 41, 42, 43, 44, 45, 46, 47, 48, 49, 50, 51, 52, 53, 54, 55, 56, 57, 58, 59, 60, 61, 62, 63, 64, 65, 66, 67, 68, 69, 70, 71, 72, 73, 74, 75, 76, 77, 78, 79, 80, 81, 82, 83, 84, 85, 86, 87, 88, 89, 90, 91, 92, 93, 94, 95, 96, 97, 98, 99, 100, 101, 102, 103, 104, 105, 106, 107, 108, 109, 110, 111, 112, 113, 114, 115, 116, 117, 118, 119, 120, 121, 122, 123, 124, 125, 126, 127, 128, 129, 130, 131, 132, 133, 134, 135, 136, 137, 138, 139, 140, 141, 142, 143, 144, 145, 146, 147, 148, 149, 150, 151, 152, 153, 154, 155, 156, 157, 158, 159, 160, 161, 162, 163, 164, 165, 166, 167, 168, 169, 170, 171, 172, 173, 174, 175, 176, 177, 178, 179, 180, 181, 182, 183, 184, 185, 186, 187, 188, 189, 190, 191, 192, 193, 194, 195, 196, 197, 198, 199, 200, 201, 202, 203, 204, 205, 206, 207, 208, 209, 210, 211, 212, 213, 214, 215, 216, 217, 218, 219, 220, 221, 222, 223, 224, 225, 226, 227, 228, 229, 230, 231, 232],
      "WindowCenter": [843.0, 841.0, 840.0, 840.0, 840.0, 840.0, 841.0, 841.0, 842.0, 842.0, 842.0, 841.0, 841.0, 841.0, 842.0, 842.0, 842.0, 843.0, 842.0, 842.0, 841.0, 840.0, 841.0, 842.0, 842.0, 842.0, 841.0, 841.0, 840.0, 840.0, 840.0, 840.0, 840.0, 840.0, 840.0, 840.0, 840.0, 840.0, 840.0, 840.0, 841.0, 841.0, 842.0, 842.0, 842.0, 841.0, 841.0, 842.0, 842.0, 842.0, 842.0, 843.0, 842.0, 842.0, 842.0, 842.0, 842.0, 842.0, 842.0, 841.0, 840.0, 839.0, 839.0, 839.0, 839.0, 839.0, 839.0, 840.0, 840.0, 841.0, 840.0, 840.0, 840.0, 841.0, 843.0, 843.0, 842.0, 841.0, 840.0, 841.0, 841.0, 841.0, 842.0, 842.0, 843.0, 843.0, 843.0, 842.0, 842.0, 842.0, 842.0, 842.0, 841.0, 841.0, 841.0, 841.0, 840.0, 841.0, 841.0, 840.0, 840.0, 840.0, 840.0, 840.0, 839.0, 841.0, 840.0, 838.0, 839.0, 840.0, 841.0, 841.0, 842.0, 842.0, 842.0, 842.0, 841.0, 841.0, 840.0, 839.0, 839.0, 840.0, 841.0, 841.0, 842.0, 841.0, 840.0, 841.0, 841.0, 841.0, 842.0, 843.0, 842.0, 841.0, 841.0, 841.0, 841.0, 841.0, 841.0, 841.0, 841.0, 841.0, 841.0, 841.0, 841.0, 841.0, 841.0, 841.0, 841.0, 841.0, 841.0, 840.0, 840.0, 840.0, 840.0, 840.0, 839.0, 839.0, 839.0, 840.0, 840.0, 841.0, 840.0, 841.0, 842.0, 841.0, 839.0, 839.0, 838.0, 840.0, 841.0, 840.0, 839.0, 839.0, 839.0, 840.0, 840.0, 840.0, 840.0, 840.0, 840.0, 840.0, 840.0, 840.0, 840.0, 840.0, 840.0, 840.0, 839.0, 839.0, 840.0, 840.0, 840.0, 840.0, 841.0, 841.0, 841.0, 841.0, 840.0, 840.0, 840.0, 841.0, 841.0, 840.0, 840.0, 839.0, 839.0, 839.0, 839.0, 839.0, 839.0, 839.0, 838.0, 839.0, 839.0, 839.0, 839.0, 840.0, 839.0, 839.0, 839.0, 839.0, 840.0, 840.0, 840.0, 840.0, 841.0, 840.0, 839.0, 839.0, 838.0, 838.0],
      "WindowWidth": [1903.0, 1895.0, 1893.0, 1893.0, 1893.0, 1894.0, 1895.0, 1897.0, 1898.0, 1899.0, 1899.0, 1897.0, 1896.0, 1897.0, 1899.0, 1898.0, 1899.0, 1903.0, 1900.0, 1898.0, 1896.0, 1894.0, 1896.0, 1898.0, 1898.0, 1898.0, 1897.0, 1895.0, 1893.0, 1892.0, 1895.0, 1895.0, 1893.0, 1893.0, 1893.0, 1894.0, 1894.0, 1894.0, 1894.0, 1894.0, 1896.0, 1896.0, 1900.0, 1900.0, 1898.0, 1896.0, 1897.0, 1898.0, 1898.0, 1898.0, 1901.0, 1902.0, 1900.0, 1899.0, 1899.0, 1899.0, 1900.0, 1900.0, 1899.0, 1895.0, 1893.0, 1891.0, 1888.0, 1890.0, 1888.0, 1890.0, 1890.0, 1892.0, 1894.0, 1895.0, 1893.0, 1893.0, 1892.0, 1896.0, 1901.0, 1901.0, 1899.0, 1895.0, 1894.0, 1897.0, 1898.0, 1897.0, 1900.0, 1901.0, 1902.0, 1902.0, 1902.0, 1900.0, 1900.0, 1899.0, 1900.0, 1898.0, 1897.0, 1898.0, 1896.0, 1896.0, 1892.0, 1895.0, 1894.0, 1891.0, 1892.0, 1892.0, 1892.0, 1892.0, 1891.0, 1894.0, 1893.0, 1886.0, 1890.0, 1891.0, 1895.0, 1897.0, 1899.0, 1899.0, 1900.0, 1898.0, 1897.0, 1896.0, 1894.0, 1890.0, 1891.0, 1892.0, 1895.0, 1897.0, 1897.0, 1896.0, 1894.0, 1897.0, 1895.0, 1896.0, 1901.0, 1902.0, 1899.0, 1898.0, 1897.0, 1896.0, 1896.0, 1896.0, 1897.0, 1897.0, 1896.0, 1896.0, 1895.0, 1895.0, 1896.0, 1897.0, 1897.0, 1896.0, 1896.0, 1895.0, 1894.0, 1894.0, 1892.0, 1891.0, 1893.0, 1892.0, 1889.0, 1889.0, 1890.0, 1893.0, 1893.0, 1894.0, 1894.0, 1897.0, 1898.0, 1896.0, 1891.0, 1889.0, 1887.0, 1894.0, 1896.0, 1890.0, 1889.0, 1888.0, 1890.0, 1892.0, 1892.0, 1892.0, 1893.0, 1893.0, 1892.0, 1892.0, 1891.0, 1891.0, 1893.0, 1894.0, 1892.0, 1891.0, 1890.0, 1890.0, 1892.0, 1892.0, 1893.0, 1893.0, 1894.0, 1894.0, 1896.0, 1896.0, 1893.0, 1892.0, 1893.0, 1894.0, 1895.0, 1893.0, 1892.0, 1890.0, 1889.0, 1890.0, 1889.0, 1888.0, 1889.0, 1889.0, 1888.0, 1887.0, 1888.0, 1888.0, 1889.0, 1890.0, 1889.0, 1888.0, 1888.0, 1889.0, 1891.0, 1892.0, 1892.0, 1893.0, 1895.0, 1891.0, 1889.0, 1887.0, 1886.0, 1884.0]
    },
    "slices": {}
  }
}