{
  "AcquisitionMatrixPE": 100,
  "AcquisitionNumber": 1,
  "AcquisitionTime": "10:15:43.717500",
  "BandwidthPerPixelPhaseEncode": 18.519,
  "BaseResolution": 100,
  "BodyPartExamined": "BRAIN",
  "ConsistencyInfo": "N4_VE11C_LATEST_20160120",
  "ConversionSoftware": "dcm2niix",
  "ConversionSoftwareVersion": "v1.0.20180622 GCC4.9.2",
  "DerivedVendorReportedEchoSpacing": 0.000539986,
  "DeviceSerialNumber": "166078",
  "DwellTime": 2.1e-06,
  "EchoTime": 0.034,
  "EchoTrainLength": 100,
  "EffectiveEchoSpacing": 0.000539986,
  "FlipAngle": 90,
  "ImageOrientationPatientDICOM": [0.999784, 0.00310587, 0.0205322, -1.57831e-08, 0.988752, -0.149566],
  "ImageType": [
    "ORIGINAL",
    "PRIMARY",
    "M",
    "ND",
    "MOSAIC"
],
  "InPlanePhaseEncodingDirectionDICOM": "COL",
  "InstitutionAddress": "Street_StreetNo_Bei_Jing_District_CN_ZIP",
  "InstitutionName": "BeiJing_Normal_University",
  "InstitutionalDepartmentName": "Department",
  "MRAcquisitionType": "2D",
  "MagneticFieldStrength": 3,
  "Manufacturer": "Siemens",
  "ManufacturersModelName": "Prisma",
  "Modality": "MR",
  "MultibandAccelerationFactor": 3,
  "PartialFourier": 1,
  "PatientPosition": "HFS",
  "PercentPhaseFOV": 100,
  "PhaseEncodingDirection": "j-",
  "PhaseEncodingSteps": 100,
  "PhaseResolution": 1,
  "PixelBandwidth": 2380,
  "ProcedureStepDescription": "BNU_P2018_64CH_Liu.Jia",
  "ProtocolName": "bold_100x100_s3_2x2x2_232",
  "PulseSequenceDetails": "%SiemensSeq%_ep2d_bold",
  "ReceiveCoilActiveElements": "HC1-7;NC1",
  "ReceiveCoilName": "HeadNeck_64",
  "ReconMatrixPE": 100,
  "RepetitionTime": 2,
  "SAR": 0.0762384,
  "ScanOptions": "FS",
  "ScanningSequence": "EP",
  "SequenceName": "_epfid2d1_100",
  "SequenceVariant": "SK",
  "SeriesDescription": "bold_100x100_s3_2x2x2_232",
  "SeriesNumber": 3,
  "ShimSetting": [-5455, -11487, -1246, 352, -15, -113, -193, 87],
  "SliceThickness": 2,
  "SliceTiming": [1.485, 0, 0.99, 0.0825, 1.0725, 0.165, 1.155, 0.2475, 1.2375, 0.33, 1.32, 0.4125, 1.4025, 0.5775, 1.5675, 0.66, 1.65, 0.7425, 1.7325, 0.825, 1.815, 0.9075, 1.8975, 0.495, 1.485, 0, 0.99, 0.0825, 1.0725, 0.165, 1.155, 0.2475, 1.2375, 0.33, 1.32, 0.4125, 1.4025, 0.5775, 1.5675, 0.66, 1.65, 0.7425, 1.7325, 0.825, 1.815, 0.9075, 1.8975, 0.495, 1.485, 0, 0.99, 0.0825, 1.0725, 0.165, 1.155, 0.2475, 1.2375, 0.33, 1.32, 0.4125, 1.4025, 0.5775, 1.5675, 0.66, 1.65, 0.7425, 1.7325, 0.825, 1.815, 0.9075, 1.8975, 0.495],
  "SoftwareVersions": "syngo_MR_E11",
  "SpacingBetweenSlices": 2,
  "StationName": "AWP166078",
  "TaskName": "motor",
  "TotalReadoutTime": 0.0534586,
  "TxRefAmp": 209.348,
  "dcmmeta_affine": [
    [-1.9995687007904053, -3.1566177227659864e-08, 0.041531629860401154, 99.93097686767578],
    [-0.006211732514202595, 1.9775036573410034, -0.29906657338142395, -86.86141204833984],
    [0.04106447100639343, 0.2991310954093933, 1.9770771265029907, -73.86609649658203],
    [0.0, 0.0, 0.0, 1.0]
],
  "dcmmeta_reorient_transform": [
    [0.0, -1.0, 0.0, 99.0],
    [1.0, 0.0, 0.0, 0.0],
    [0.0, 0.0, 1.0, 0.0],
    [0.0, 0.0, 0.0, 1.0]
],
  "dcmmeta_shape": [100, 100, 72, 232],
  "dcmmeta_slice_dim": 2,
  "dcmmeta_version": 0.6,
  "global": {
    "const": {
      "AcquisitionMatrix": [100, 0, 0, 100],
      "AngioFlag": "N",
      "BitsAllocated": 16,
      "BitsStored": 12,
      "BodyPartExamined": "BRAIN",
      "Columns": 900,
      "EchoNumbers": 1,
      "EchoTime": 34.0,
      "EchoTrainLength": 100,
      "FlipAngle": 90.0,
      "HighBit": 11,
      "ImageOrientationPatient": [0.99978436719939, 0.00310586617396, 0.02053223560724, -1.5783088e-08, 0.98875181285974, -0.1495655460545],
      "ImagePositionPatient": [-899.75845702994, -902.39759148158, 58.974526674276],
      "ImageType": [
        "ORIGINAL",
        "PRIMARY",
        "M",
        "ND",
        "MOSAIC"
],
      "ImagedNucleus": "1H",
      "ImagingFrequency": 123.257829,
      "InPlanePhaseEncodingDirection": "COL",
      "LargestImagePixelValue": 4095,
      "MRAcquisitionType": "2D",
      "MagneticFieldStrength": 3.0,
      "Manufacturer": "SIEMENS",
      "ManufacturerModelName": "Prisma",
      "Modality": "MR",
      "NumberOfAverages": 1.0,
      "NumberOfPhaseEncodingSteps": 100,
      "PercentPhaseFieldOfView": 100.0,
      "PercentSampling": 100.0,
      "PerformedProcedureStepStartTime": "101229.817000",
      "PhotometricInterpretation": "MONOCHROME2",
      "PixelBandwidth": 2380.0,
      "PixelRepresentation": 0,
      "PixelSpacing": [2.0, 2.0],
      "ProtocolName": "bold_100x100_s3_2x2x2_232",
      "RepetitionTime": 2000.0,
      "Rows": 900,
      "SAR": 0.07623838279172,
      "SamplesPerPixel": 1,
      "ScanOptions": "FS",
      "ScanningSequence": "EP",
      "SequenceName": "*epfid2d1_100",
      "SequenceVariant": "SK",
      "SeriesDescription": "bold_100x100_s3_2x2x2_232",
      "SeriesNumber": 3,
      "SeriesTime": "101545.899000",
      "SliceLocation": -57.955670095695,
      "SliceThickness": 2.0,
      "SmallestImagePixelValue": 0,
      "SoftwareVersions": "syngo MR E11",
      "SpacingBetweenSlices": 1.999999950325,
      "SpecificCharacterSet": "ISO_IR 100",
      "StudyID": "1",
      "StudyTime": "101229.741000",
      "TransmitCoilName": "Body",
      "VariableFlipAngleFlag": "N",
      "WindowCenterWidthExplanation": "Algo1",
      "dBdt": 0.0},
    "slices": {}
  },
  "time": {
    "samples": {
      "AcquisitionNumber": [1, 2, 3, 4, 5, 6, 7, 8, 9, 10, 11, 12, 13, 14, 15, 16, 17, 18, 19, 20, 21, 22, 23, 24, 25, 26, 27, 28, 29, 30, 31, 32, 33, 34, 35, 36, 37, 38, 39, 40, 41, 42, 43, 44, 45, 46, 47, 48, 49, 50, 51, 52, 53, 54, 55, 56, 57, 58, 59, 60, 61, 62, 63, 64, 65, 66, 67, 68, 69, 70, 71, 72, 73, 74, 75, 76, 77, 78, 79, 80, 81, 82, 83, 84, 85, 86, 87, 88, 89, 90, 91, 92, 93, 94, 95, 96, 97, 98, 99, 100, 101, 102, 103, 104, 105, 106, 107, 108, 109, 110, 111, 112, 113, 114, 115, 116, 117, 118, 119, 120, 121, 122, 123, 124, 125, 126, 127, 128, 129, 130, 131, 132, 133, 134, 135, 136, 137, 138, 139, 140, 141, 142, 143, 144, 145, 146, 147, 148, 149, 150, 151, 152, 153, 154, 155, 156, 157, 158, 159, 160, 161, 162, 163, 164, 165, 166, 167, 168, 169, 170, 171, 172, 173, 174, 175, 176, 177, 178, 179, 180, 181, 182, 183, 184, 185, 186, 187, 188, 189, 190, 191, 192, 193, 194, 195, 196, 197, 198, 199, 200, 201, 202, 203, 204, 205, 206, 207, 208, 209, 210, 211, 212, 213, 214, 215, 216, 217, 218, 219, 220, 221, 222, 223, 224, 225, 226, 227, 228, 229, 230, 231, 232],
      "AcquisitionTime": ["101543.717500", "101545.717500", "101547.717500", "101549.717500", "101551.717500", "101553.717500", "101555.717500", "101557.717500", "101559.717500", "101601.717500", "101603.717500", "101605.717500", "101607.717500", "101609.717500", "101611.717500", "101613.717500", "101615.717500", "101617.717500", "101619.717500", "101621.717500", "101623.717500", "101625.717500", "101627.717500", "101629.717500", "101631.717500", "101633.717500", "101635.717500", "101637.717500", "101639.717500", "101641.717500", "101643.717500", "101645.717500", "101647.717500", "101649.717500", "101651.717500", "101653.717500", "101655.717500", "101657.717500", "101659.717500", "101701.717500", "101703.717500", "101705.717500", "101707.717500", "101709.717500", "101711.717500", "101713.717500", "101715.717500", "101717.717500", "101719.717500", "101721.717500", "101723.717500", "101725.717500", "101727.717500", "101729.717500", "101731.717500", "101733.717500", "101735.717500", "101737.717500", "101739.717500", "101741.717500", "101743.717500", "101745.717500", "101747.717500", "101749.717500", "101751.717500", "101753.717500", "101755.717500", "101757.717500", "101759.717500", "101801.717500", "101803.717500", "101805.717500", "101807.717500", "101809.717500", "101811.717500", "101813.717500", "101815.717500", "101817.717500", "101819.717500", "101821.717500", "101823.717500", "101825.717500", "101827.717500", "101829.717500", "101831.717500", "101833.717500", "101835.717500", "101837.717500", "101839.717500", "101841.717500", "101843.717500", "101845.717500", "101847.717500", "101849.717500", "101851.717500", "101853.717500", "101855.717500", "101857.717500", "101859.717500", "101901.717500", "101903.717500", "101905.717500", "101907.717500", "101909.717500", "101911.717500", "101913.717500", "101915.717500", "101917.717500", "101919.717500", "101921.717500", "101923.717500", "101925.717500", "101927.717500", "101929.717500", "101931.717500", "101933.717500", "101935.717500", "101937.717500", "101939.717500", "101941.717500", "101943.717500", "101945.717500", "101947.717500", "101949.717500", "101951.717500", "101953.717500", "101955.717500", "101957.717500", "101959.717500", "102001.717500", "102003.717500", "102005.717500", "102007.717500", "102009.717500", "102011.717500", "102013.717500", "102015.717500", "102017.717500", "102019.717500", "102021.717500", "102023.717500", "102025.717500", "102027.717500", "102029.717500", "102031.717500", "102033.717500", "102035.717500", "102037.717500", "102039.717500", "102041.717500", "102043.717500", "102045.717500", "102047.717500", "102049.717500", "102051.717500", "102053.717500", "102055.717500", "102057.717500", "102059.717500", "102101.717500", "102103.717500", "102105.717500", "102107.717500", "102109.717500", "102111.717500", "102113.717500", "102115.717500", "102117.717500", "102119.717500", "102121.717500", "102123.717500", "102125.717500", "102127.717500", "102129.717500", "102131.717500", "102133.717500", "102135.717500", "102137.717500", "102139.717500", "102141.717500", "102143.717500", "102145.717500", "102147.717500", "102149.717500", "102151.717500", "102153.717500", "102155.717500", "102157.717500", "102159.717500", "102201.717500", "102203.717500", "102205.717500", "102207.717500", "102209.717500", "102211.717500", "102213.717500", "102215.717500", "102217.717500", "102219.717500", "102221.717500", "102223.717500", "102225.717500", "102227.717500", "102229.717500", "102231.717500", "102233.717500", "102235.717500", "102237.717500", "102239.717500", "102241.717500", "102243.717500", "102245.717500", "102247.717500", "102249.717500", "102251.717500", "102253.717500", "102255.717500", "102257.717500", "102259.717500", "102301.717500", "102303.717500", "102305.717500", "102307.717500", "102309.717500", "102311.717500", "102313.717500", "102315.717500", "102317.717500", "102319.717500", "102321.717500", "102323.717500", "102325.717500"],
      "ContentTime": ["101545.903000", "101547.393000", "101549.392000", "101551.392000", "101553.393000", "101555.393000", "101557.394000", "101559.393000", "101601.393000", "101603.394000", "101605.393000", "101607.392000", "101609.393000", "101611.393000", "101613.393000", "101615.393000", "101617.394000", "101619.393000", "101621.393000", "101623.392000", "101625.392000", "101627.393000", "101629.393000", "101631.393000", "101633.393000", "101635.394000", "101637.393000", "101639.393000", "101641.392000", "101643.392000", "101645.393000", "101647.393000", "101649.393000", "101651.394000", "101653.394000", "101655.393000", "101657.393000", "101659.392000", "101701.392000", "101703.393000", "101705.393000", "101707.393000", "101709.393000", "101711.393000", "101713.393000", "101715.393000", "101717.392000", "101719.393000", "101721.393000", "101723.393000", "101725.394000", "101727.393000", "101729.393000", "101731.393000", "101733.392000", "101735.393000", "101737.393000", "101739.393000", "101741.394000", "101743.393000", "101745.393000", "101747.393000", "101749.393000", "101751.392000", "101753.392000", "101755.393000", "101757.393000", "101759.394000", "101801.393000", "101803.394000", "101805.393000", "101807.393000", "101809.392000", "101811.392000", "101813.394000", "101815.393000", "101817.393000", "101819.394000", "101821.393000", "101823.394000", "101825.393000", "101827.393000", "101829.393000", "101831.393000", "101833.394000", "101835.394000", "101837.393000", "101839.393000", "101841.393000", "101843.393000", "101845.392000", "101847.393000", "101849.394000", "101851.393000", "101853.393000", "101855.394000", "101857.393000", "101859.394000", "101901.393000", "101903.392000", "101905.393000", "101907.393000", "101909.394000", "101911.393000", "101913.393000", "101915.393000", "101917.393000", "101919.392000", "101921.393000", "101923.393000", "101925.394000", "101927.394000", "101929.393000", "101931.393000", "101933.393000", "101935.393000", "101937.392000", "101939.393000", "101941.393000", "101943.393000", "101945.393000", "101947.394000", "101949.394000", "101951.393000", "101953.392000", "101955.392000", "101957.393000", "101959.393000", "102001.393000", "102003.393000", "102005.394000", "102007.393000", "102009.393000", "102011.392000", "102013.392000", "102015.393000", "102017.393000", "102019.394000", "102021.393000", "102023.394000", "102025.393000", "102027.393000", "102029.392000", "102031.393000", "102033.394000", "102035.394000", "102037.394000", "102039.393000", "102041.394000", "102043.394000", "102045.394000", "102047.393000", "102049.393000", "102051.393000", "102053.412000", "102055.394000", "102057.393000", "102059.393000", "102101.394000", "102103.392000", "102105.393000", "102107.394000", "102109.393000", "102111.393000", "102113.394000", "102115.393000", "102117.393000", "102119.393000", "102121.392000", "102123.393000", "102125.394000", "102127.393000", "102129.393000", "102131.394000", "102133.393000", "102135.393000", "102137.394000", "102139.392000", "102141.393000", "102143.393000", "102145.393000", "102147.393000", "102149.394000", "102151.393000", "102153.393000", "102155.393000", "102157.392000", "102159.393000", "102201.393000", "102203.394000", "102205.393000", "102207.393000", "102209.393000", "102211.394000", "102213.392000", "102215.392000", "102217.393000", "102219.393000", "102221.394000", "102223.393000", "102225.393000", "102227.393000", "102229.393000", "102231.392000", "102233.392000", "102235.394000", "102237.394000", "102239.393000", "102241.394000", "102243.394000", "102245.393000", "102247.393000", "102249.392000", "102251.394000", "102253.393000", "102255.393000", "102257.393000", "102259.393000", "102301.393000", "102303.393000", "102305.393000", "102307.392000", "102309.393000", "102311.394000", "102313.393000", "102315.394000", "102317.393000", "102319.393000", "102321.393000", "102323.393000", "102325.393000", "102326.986000"],
      "InstanceCreationTime": ["101545.903000", "101547.393000", "101549.392000", "101551.392000", "101553.393000", "101555.393000", "101557.394000", "101559.393000", "101601.393000", "101603.394000", "101605.393000", "101607.392000", "101609.393000", "101611.393000", "101613.393000", "101615.393000", "101617.394000", "101619.393000", "101621.393000", "101623.392000", "101625.392000", "101627.393000", "101629.393000", "101631.393000", "101633.393000", "101635.394000", "101637.393000", "101639.393000", "101641.392000", "101643.392000", "101645.393000", "101647.393000", "101649.393000", "101651.394000", "101653.394000", "101655.393000", "101657.393000", "101659.392000", "101701.392000", "101703.393000", "101705.393000", "101707.393000", "101709.393000", "101711.393000", "101713.393000", "101715.393000", "101717.392000", "101719.393000", "101721.393000", "101723.393000", "101725.394000", "101727.393000", "101729.393000", "101731.393000", "101733.392000", "101735.393000", "101737.393000", "101739.393000", "101741.394000", "101743.393000", "101745.393000", "101747.393000", "101749.393000", "101751.392000", "101753.392000", "101755.393000", "101757.393000", "101759.394000", "101801.393000", "101803.394000", "101805.393000", "101807.393000", "101809.392000", "101811.392000", "101813.394000", "101815.393000", "101817.393000", "101819.394000", "101821.393000", "101823.394000", "101825.393000", "101827.393000", "101829.393000", "101831.393000", "101833.394000", "101835.394000", "101837.393000", "101839.393000", "101841.393000", "101843.393000", "101845.392000", "101847.393000", "101849.394000", "101851.393000", "101853.393000", "101855.394000", "101857.393000", "101859.394000", "101901.393000", "101903.392000", "101905.393000", "101907.393000", "101909.394000", "101911.393000", "101913.393000", "101915.393000", "101917.393000", "101919.392000", "101921.393000", "101923.393000", "101925.394000", "101927.394000", "101929.393000", "101931.393000", "101933.393000", "101935.393000", "101937.392000", "101939.393000", "101941.393000", "101943.393000", "101945.393000", "101947.394000", "101949.394000", "101951.393000", "101953.392000", "101955.392000", "101957.393000", "101959.393000", "102001.393000", "102003.393000", "102005.394000", "102007.393000", "102009.393000", "102011.392000", "102013.392000", "102015.393000", "102017.393000", "102019.394000", "102021.393000", "102023.394000", "102025.393000", "102027.393000", "102029.392000", "102031.393000", "102033.394000", "102035.394000", "102037.394000", "102039.393000", "102041.394000", "102043.394000", "102045.394000", "102047.393000", "102049.393000", "102051.393000", "102053.412000", "102055.394000", "102057.393000", "102059.393000", "102101.394000", "102103.392000", "102105.393000", "102107.394000", "102109.393000", "102111.393000", "102113.394000", "102115.393000", "102117.393000", "102119.393000", "102121.392000", "102123.393000", "102125.394000", "102127.393000", "102129.393000", "102131.394000", "102133.393000", "102135.393000", "102137.394000", "102139.392000", "102141.393000", "102143.393000", "102145.393000", "102147.393000", "102149.394000", "102151.393000", "102153.393000", "102155.393000", "102157.392000", "102159.393000", "102201.393000", "102203.394000", "102205.393000", "102207.393000", "102209.393000", "102211.394000", "102213.392000", "102215.392000", "102217.393000", "102219.393000", "102221.394000", "102223.393000", "102225.393000", "102227.393000", "102229.393000", "102231.392000", "102233.392000", "102235.394000", "102237.394000", "102239.393000", "102241.394000", "102243.394000", "102245.393000", "102247.393000", "102249.392000", "102251.394000", "102253.393000", "102255.393000", "102257.393000", "102259.393000", "102301.393000", "102303.393000", "102305.393000", "102307.392000", "102309.393000", "102311.394000", "102313.393000", "102315.394000", "102317.393000", "102319.393000", "102321.393000", "102323.393000", "102325.393000", "102326.986000"],
      "InstanceNumber": [1, 2, 3, 4, 5, 6, 7, 8, 9, 10, 11, 12, 13, 14, 15, 16, 17, 18, 19, 20, 21, 22, 23, 24, 25, 26, 27, 28, 29, 30, 31, 32, 33, 34, 35, 36, 37, 38, 39, 40, 41, 42, 43, 44, 45, 46, 47, 48, 49, 50, 51, 52, 53, 54, 55, 56, 57, 58, 59, 60, 61, 62, 63, 64, 65, 66, 67, 68, 69, 70, 71, 72, 73, 74, 75, 76, 77, 78, 79, 80, 81, 82, 83, 84, 85, 86, 87, 88, 89, 90, 91, 92, 93, 94, 95, 96, 97, 98, 99, 100, 101, 102, 103, 104, 105, 106, 107, 108, 109, 110, 111, 112, 113, 114, 115, 116, 117, 118, 119, 120, 121, 122, 123, 124, 125, 126, 127, 128, 129, 130, 131, 132, 133, 134, 135, 136, 137, 138, 139, 140, 141, 142, 143, 144, 145, 146, 147, 148, 149, 150, 151, 152, 153, 154, 155, 156, 157, 158, 159, 160, 161, 162, 163, 164, 165, 166, 167, 168, 169, 170, 171, 172, 173, 174, 175, 176, 177, 178, 179, 180, 181, 182, 183, 184, 185, 186, 187, 188, 189, 190, 191, 192, 193, 194, 195, 196, 197, 198, 199, 200, 201, 202, 203, 204, 205, 206, 207, 208, 209, 210, 211, 212, 213, 214, 215, 216, 217, 218, 219, 220, 221, 222, 223, 224, 225, 226, 227, 228, 229, 230, 231, 232],
      "WindowCenter": [849.0, 847.0, 846.0, 846.0, 846.0, 846.0, 846.0, 847.0, 847.0, 848.0, 849.0, 848.0, 847.0, 847.0, 847.0, 848.0, 848.0, 848.0, 849.0, 848.0, 847.0, 847.0, 848.0, 849.0, 849.0, 849.0, 850.0, 849.0, 848.0, 847.0, 846.0, 847.0, 847.0, 848.0, 850.0, 849.0, 847.0, 846.0, 846.0, 846.0, 847.0, 848.0, 848.0, 847.0, 846.0, 845.0, 845.0, 846.0, 847.0, 847.0, 850.0, 849.0, 848.0, 847.0, 847.0, 848.0, 848.0, 849.0, 850.0, 850.0, 848.0, 847.0, 846.0, 847.0, 848.0, 847.0, 848.0, 848.0, 847.0, 847.0, 846.0, 846.0, 847.0, 847.0, 848.0, 848.0, 848.0, 848.0, 848.0, 848.0, 848.0, 848.0, 849.0, 848.0, 848.0, 847.0, 847.0, 848.0, 848.0, 848.0, 849.0, 849.0, 848.0, 848.0, 847.0, 848.0, 848.0, 848.0, 846.0, 847.0, 846.0, 846.0, 847.0, 848.0, 847.0, 847.0, 848.0, 849.0, 847.0, 847.0, 846.0, 846.0, 845.0, 846.0, 848.0, 848.0, 847.0, 845.0, 843.0, 843.0, 843.0, 843.0, 845.0, 845.0, 844.0, 845.0, 846.0, 846.0, 846.0, 846.0, 846.0, 846.0, 846.0, 847.0, 848.0, 848.0, 847.0, 848.0, 849.0, 848.0, 848.0, 848.0, 847.0, 847.0, 847.0, 847.0, 847.0, 846.0, 845.0, 845.0, 845.0, 845.0, 845.0, 845.0, 846.0, 846.0, 846.0, 846.0, 845.0, 845.0, 845.0, 846.0, 847.0, 846.0, 845.0, 844.0, 845.0, 846.0, 846.0, 847.0, 847.0, 847.0, 846.0, 845.0, 844.0, 844.0, 844.0, 844.0, 845.0, 845.0, 844.0, 843.0, 843.0, 844.0, 845.0, 844.0, 845.0, 845.0, 845.0, 845.0, 846.0, 846.0, 846.0, 845.0, 846.0, 847.0, 847.0, 846.0, 845.0, 845.0, 845.0, 845.0, 845.0, 844.0, 844.0, 844.0, 844.0, 843.0, 843.0, 844.0, 844.0, 845.0, 845.0, 844.0, 844.0, 844.0, 844.0, 846.0, 846.0, 846.0, 845.0, 845.0, 846.0, 845.0, 844.0, 844.0, 845.0, 845.0, 843.0, 843.0, 842.0, 843.0],
      "WindowWidth": [1926.0, 1920.0, 1917.0, 1915.0, 1915.0, 1915.0, 1917.0, 1919.0, 1920.0, 1923.0, 1925.0, 1922.0, 1919.0, 1918.0, 1920.0, 1922.0, 1923.0, 1923.0, 1926.0, 1922.0, 1920.0, 1919.0, 1920.0, 1924.0, 1925.0, 1925.0, 1930.0, 1926.0, 1922.0, 1918.0, 1916.0, 1918.0, 1919.0, 1923.0, 1927.0, 1925.0, 1920.0, 1916.0, 1916.0, 1916.0, 1918.0, 1921.0, 1923.0, 1920.0, 1914.0, 1913.0, 1913.0, 1915.0, 1917.0, 1920.0, 1926.0, 1926.0, 1921.0, 1917.0, 1918.0, 1921.0, 1923.0, 1925.0, 1927.0, 1927.0, 1921.0, 1917.0, 1915.0, 1917.0, 1919.0, 1918.0, 1920.0, 1921.0, 1918.0, 1916.0, 1914.0, 1914.0, 1916.0, 1918.0, 1919.0, 1919.0, 1919.0, 1920.0, 1920.0, 1920.0, 1921.0, 1922.0, 1924.0, 1921.0, 1919.0, 1917.0, 1918.0, 1919.0, 1919.0, 1921.0, 1922.0, 1922.0, 1919.0, 1918.0, 1917.0, 1919.0, 1920.0, 1920.0, 1912.0, 1914.0, 1912.0, 1912.0, 1915.0, 1918.0, 1917.0, 1917.0, 1920.0, 1920.0, 1917.0, 1914.0, 1913.0, 1912.0, 1909.0, 1912.0, 1918.0, 1917.0, 1914.0, 1910.0, 1902.0, 1901.0, 1901.0, 1904.0, 1907.0, 1908.0, 1906.0, 1909.0, 1912.0, 1910.0, 1911.0, 1911.0, 1911.0, 1913.0, 1913.0, 1915.0, 1918.0, 1918.0, 1915.0, 1917.0, 1919.0, 1919.0, 1918.0, 1916.0, 1915.0, 1914.0, 1914.0, 1915.0, 1915.0, 1912.0, 1909.0, 1907.0, 1907.0, 1908.0, 1908.0, 1908.0, 1911.0, 1910.0, 1911.0, 1909.0, 1909.0, 1909.0, 1909.0, 1911.0, 1915.0, 1910.0, 1905.0, 1905.0, 1907.0, 1911.0, 1911.0, 1912.0, 1915.0, 1913.0, 1910.0, 1905.0, 1903.0, 1903.0, 1903.0, 1902.0, 1905.0, 1906.0, 1903.0, 1901.0, 1902.0, 1904.0, 1908.0, 1904.0, 1907.0, 1907.0, 1907.0, 1908.0, 1911.0, 1910.0, 1910.0, 1907.0, 1910.0, 1914.0, 1912.0, 1909.0, 1908.0, 1908.0, 1908.0, 1906.0, 1906.0, 1906.0, 1904.0, 1904.0, 1905.0, 1901.0, 1901.0, 1902.0, 1905.0, 1908.0, 1906.0, 1903.0, 1903.0, 1904.0, 1905.0, 1910.0, 1911.0, 1911.0, 1908.0, 1909.0, 1909.0, 1909.0, 1905.0, 1906.0, 1909.0, 1907.0, 1902.0, 1899.0, 1899.0, 1899.0]
    },
    "slices": {}
  }
}