{
  "AcquisitionMatrixPE": 100,
  "AcquisitionNumber": 1,
  "AcquisitionTime": "10:44:23.517500",
  "BandwidthPerPixelPhaseEncode": 18.519,
  "BaseResolution": 100,
  "BodyPartExamined": "BRAIN",
  "ConsistencyInfo": "N4_VE11C_LATEST_20160120",
  "ConversionSoftware": "dcm2niix",
  "ConversionSoftwareVersion": "v1.0.20180622 GCC4.9.2",
  "DerivedVendorReportedEchoSpacing": 0.000539986,
  "DeviceSerialNumber": "166078",
  "DwellTime": 2.1e-06,
  "EchoTime": 0.034,
  "EchoTrainLength": 100,
  "EffectiveEchoSpacing": 0.000539986,
  "FlipAngle": 90,
  "ImageOrientationPatientDICOM": [0.999784, 0.00310587, 0.0205322, -1.57831e-08, 0.988752, -0.149566],
  "ImageType": [
    "ORIGINAL",
    "PRIMARY",
    "M",
    "ND",
    "MOSAIC"
],
  "InPlanePhaseEncodingDirectionDICOM": "COL",
  "InstitutionAddress": "Street_StreetNo_Bei_Jing_District_CN_ZIP",
  "InstitutionName": "BeiJing_Normal_University",
  "InstitutionalDepartmentName": "Department",
  "MRAcquisitionType": "2D",
  "MagneticFieldStrength": 3,
  "Manufacturer": "Siemens",
  "ManufacturersModelName": "Prisma",
  "Modality": "MR",
  "MultibandAccelerationFactor": 3,
  "PartialFourier": 1,
  "PatientPosition": "HFS",
  "PercentPhaseFOV": 100,
  "PhaseEncodingDirection": "j-",
  "PhaseEncodingSteps": 100,
  "PhaseResolution": 1,
  "PixelBandwidth": 2380,
  "ProcedureStepDescription": "BNU_P2018_64CH_Liu.Jia",
  "ProtocolName": "bold_100x100_s3_2x2x2_232",
  "PulseSequenceDetails": "%SiemensSeq%_ep2d_bold",
  "ReceiveCoilActiveElements": "HC1-7;NC1",
  "ReceiveCoilName": "HeadNeck_64",
  "ReconMatrixPE": 100,
  "RepetitionTime": 2,
  "SAR": 0.0762384,
  "ScanOptions": "FS",
  "ScanningSequence": "EP",
  "SequenceName": "_epfid2d1_100",
  "SequenceVariant": "SK",
  "SeriesDescription": "bold_100x100_s3_2x2x2_232",
  "SeriesNumber": 8,
  "ShimSetting": [-5455, -11487, -1246, 352, -15, -113, -193, 87],
  "SliceThickness": 2,
  "SliceTiming": [1.485, 0, 0.99, 0.0825, 1.0725, 0.165, 1.155, 0.2475, 1.2375, 0.33, 1.32, 0.4125, 1.4025, 0.5775, 1.5675, 0.66, 1.65, 0.7425, 1.7325, 0.825, 1.815, 0.9075, 1.8975, 0.495, 1.485, 0, 0.99, 0.0825, 1.0725, 0.165, 1.155, 0.2475, 1.2375, 0.33, 1.32, 0.4125, 1.4025, 0.5775, 1.5675, 0.66, 1.65, 0.7425, 1.7325, 0.825, 1.815, 0.9075, 1.8975, 0.495, 1.485, 0, 0.99, 0.0825, 1.0725, 0.165, 1.155, 0.2475, 1.2375, 0.33, 1.32, 0.4125, 1.4025, 0.5775, 1.5675, 0.66, 1.65, 0.7425, 1.7325, 0.825, 1.815, 0.9075, 1.8975, 0.495],
  "SoftwareVersions": "syngo_MR_E11",
  "SpacingBetweenSlices": 2,
  "StationName": "AWP166078",
  "TaskName": "motor",
  "TotalReadoutTime": 0.0534586,
  "TxRefAmp": 209.348,
  "dcmmeta_affine": [
    [-1.9995687007904053, -3.1566177227659864e-08, 0.041531629860401154, 99.93097686767578],
    [-0.006211732514202595, 1.9775036573410034, -0.29906657338142395, -86.86141204833984],
    [0.04106447100639343, 0.2991310954093933, 1.9770771265029907, -73.86609649658203],
    [0.0, 0.0, 0.0, 1.0]
],
  "dcmmeta_reorient_transform": [
    [0.0, -1.0, 0.0, 99.0],
    [1.0, 0.0, 0.0, 0.0],
    [0.0, 0.0, 1.0, 0.0],
    [0.0, 0.0, 0.0, 1.0]
],
  "dcmmeta_shape": [100, 100, 72, 232],
  "dcmmeta_slice_dim": 2,
  "dcmmeta_version": 0.6,
  "global": {
    "const": {
      "AcquisitionMatrix": [100, 0, 0, 100],
      "AngioFlag": "N",
      "BitsAllocated": 16,
      "BitsStored": 12,
      "BodyPartExamined": "BRAIN",
      "Columns": 900,
      "EchoNumbers": 1,
      "EchoTime": 34.0,
      "EchoTrainLength": 100,
      "FlipAngle": 90.0,
      "HighBit": 11,
      "ImageOrientationPatient": [0.99978436719939, 0.00310586617396, 0.02053223560724, -1.5783088e-08, 0.98875181285974, -0.1495655460545],
      "ImagePositionPatient": [-899.75845702994, -902.39759148158, 58.974526674276],
      "ImageType": [
        "ORIGINAL",
        "PRIMARY",
        "M",
        "ND",
        "MOSAIC"
],
      "ImagedNucleus": "1H",
      "ImagingFrequency": 123.257838,
      "InPlanePhaseEncodingDirection": "COL",
      "LargestImagePixelValue": 4095,
      "MRAcquisitionType": "2D",
      "MagneticFieldStrength": 3.0,
      "Manufacturer": "SIEMENS",
      "ManufacturerModelName": "Prisma",
      "Modality": "MR",
      "NumberOfAverages": 1.0,
      "NumberOfPhaseEncodingSteps": 100,
      "PercentPhaseFieldOfView": 100.0,
      "PercentSampling": 100.0,
      "PerformedProcedureStepStartTime": "101229.817000",
      "PhotometricInterpretation": "MONOCHROME2",
      "PixelBandwidth": 2380.0,
      "PixelRepresentation": 0,
      "PixelSpacing": [2.0, 2.0],
      "ProtocolName": "bold_100x100_s3_2x2x2_232",
      "RepetitionTime": 2000.0,
      "Rows": 900,
      "SAR": 0.07623838279172,
      "SamplesPerPixel": 1,
      "ScanOptions": "FS",
      "ScanningSequence": "EP",
      "SequenceName": "*epfid2d1_100",
      "SequenceVariant": "SK",
      "SeriesDescription": "bold_100x100_s3_2x2x2_232",
      "SeriesNumber": 8,
      "SeriesTime": "104426.564000",
      "SliceLocation": -57.955670095695,
      "SliceThickness": 2.0,
      "SmallestImagePixelValue": 0,
      "SoftwareVersions": "syngo MR E11",
      "SpacingBetweenSlices": 1.999999950325,
      "SpecificCharacterSet": "ISO_IR 100",
      "StudyID": "1",
      "StudyTime": "101229.741000",
      "TransmitCoilName": "Body",
      "VariableFlipAngleFlag": "N",
      "WindowCenterWidthExplanation": "Algo1",
      "dBdt": 0.0},
    "slices": {}
  },
  "time": {
    "samples": {
      "AcquisitionNumber": [1, 2, 3, 4, 5, 6, 7, 8, 9, 10, 11, 12, 13, 14, 15, 16, 17, 18, 19, 20, 21, 22, 23, 24, 25, 26, 27, 28, 29, 30, 31, 32, 33, 34, 35, 36, 37, 38, 39, 40, 41, 42, 43, 44, 45, 46, 47, 48, 49, 50, 51, 52, 53, 54, 55, 56, 57, 58, 59, 60, 61, 62, 63, 64, 65, 66, 67, 68, 69, 70, 71, 72, 73, 74, 75, 76, 77, 78, 79, 80, 81, 82, 83, 84, 85, 86, 87, 88, 89, 90, 91, 92, 93, 94, 95, 96, 97, 98, 99, 100, 101, 102, 103, 104, 105, 106, 107, 108, 109, 110, 111, 112, 113, 114, 115, 116, 117, 118, 119, 120, 121, 122, 123, 124, 125, 126, 127, 128, 129, 130, 131, 132, 133, 134, 135, 136, 137, 138, 139, 140, 141, 142, 143, 144, 145, 146, 147, 148, 149, 150, 151, 152, 153, 154, 155, 156, 157, 158, 159, 160, 161, 162, 163, 164, 165, 166, 167, 168, 169, 170, 171, 172, 173, 174, 175, 176, 177, 178, 179, 180, 181, 182, 183, 184, 185, 186, 187, 188, 189, 190, 191, 192, 193, 194, 195, 196, 197, 198, 199, 200, 201, 202, 203, 204, 205, 206, 207, 208, 209, 210, 211, 212, 213, 214, 215, 216, 217, 218, 219, 220, 221, 222, 223, 224, 225, 226, 227, 228, 229, 230, 231, 232],
      "AcquisitionTime": ["104423.517500", "104425.517500", "104427.517500", "104429.517500", "104431.517500", "104433.517500", "104435.517500", "104437.517500", "104439.517500", "104441.517500", "104443.517500", "104445.517500", "104447.517500", "104449.517500", "104451.517500", "104453.517500", "104455.517500", "104457.517500", "104459.517500", "104501.517500", "104503.517500", "104505.517500", "104507.517500", "104509.517500", "104511.517500", "104513.517500", "104515.517500", "104517.517500", "104519.517500", "104521.517500", "104523.517500", "104525.517500", "104527.517500", "104529.517500", "104531.517500", "104533.517500", "104535.517500", "104537.517500", "104539.517500", "104541.517500", "104543.517500", "104545.517500", "104547.517500", "104549.517500", "104551.517500", "104553.517500", "104555.517500", "104557.517500", "104559.517500", "104601.517500", "104603.517500", "104605.517500", "104607.517500", "104609.517500", "104611.517500", "104613.517500", "104615.517500", "104617.517500", "104619.517500", "104621.517500", "104623.517500", "104625.517500", "104627.517500", "104629.517500", "104631.517500", "104633.517500", "104635.517500", "104637.517500", "104639.517500", "104641.517500", "104643.517500", "104645.517500", "104647.517500", "104649.517500", "104651.517500", "104653.517500", "104655.517500", "104657.517500", "104659.517500", "104701.517500", "104703.517500", "104705.517500", "104707.517500", "104709.517500", "104711.517500", "104713.517500", "104715.517500", "104717.517500", "104719.517500", "104721.517500", "104723.517500", "104725.517500", "104727.517500", "104729.517500", "104731.517500", "104733.517500", "104735.517500", "104737.517500", "104739.517500", "104741.517500", "104743.517500", "104745.517500", "104747.517500", "104749.517500", "104751.517500", "104753.517500", "104755.517500", "104757.517500", "104759.517500", "104801.517500", "104803.517500", "104805.517500", "104807.517500", "104809.517500", "104811.517500", "104813.517500", "104815.517500", "104817.517500", "104819.517500", "104821.517500", "104823.517500", "104825.517500", "104827.517500", "104829.517500", "104831.517500", "104833.517500", "104835.517500", "104837.517500", "104839.517500", "104841.517500", "104843.517500", "104845.517500", "104847.517500", "104849.517500", "104851.517500", "104853.517500", "104855.517500", "104857.517500", "104859.517500", "104901.517500", "104903.517500", "104905.517500", "104907.517500", "104909.517500", "104911.517500", "104913.517500", "104915.517500", "104917.517500", "104919.517500", "104921.517500", "104923.517500", "104925.517500", "104927.517500", "104929.517500", "104931.517500", "104933.517500", "104935.517500", "104937.517500", "104939.517500", "104941.517500", "104943.517500", "104945.517500", "104947.517500", "104949.517500", "104951.517500", "104953.517500", "104955.517500", "104957.517500", "104959.517500", "105001.517500", "105003.517500", "105005.517500", "105007.517500", "105009.517500", "105011.517500", "105013.517500", "105015.517500", "105017.517500", "105019.517500", "105021.517500", "105023.517500", "105025.517500", "105027.517500", "105029.517500", "105031.517500", "105033.517500", "105035.517500", "105037.517500", "105039.517500", "105041.517500", "105043.517500", "105045.517500", "105047.517500", "105049.517500", "105051.517500", "105053.517500", "105055.517500", "105057.517500", "105059.517500", "105101.517500", "105103.517500", "105105.517500", "105107.517500", "105109.517500", "105111.517500", "105113.517500", "105115.517500", "105117.517500", "105119.517500", "105121.517500", "105123.517500", "105125.517500", "105127.517500", "105129.517500", "105131.517500", "105133.517500", "105135.517500", "105137.517500", "105139.517500", "105141.517500", "105143.517500", "105145.517500", "105147.517500", "105149.517500", "105151.517500", "105153.517500", "105155.517500", "105157.517500", "105159.517500", "105201.517500", "105203.517500", "105205.517500"],
      "ContentTime": ["104426.568000", "104428.063000", "104430.063000", "104432.063000", "104434.064000", "104435.563000", "104437.563000", "104440.063000", "104442.064000", "104444.064000", "104446.063000", "104448.063000", "104450.063000", "104452.063000", "104454.063000", "104455.563000", "104458.063000", "104459.563000", "104501.563000", "104504.063000", "104506.064000", "104508.064000", "104510.063000", "104512.063000", "104513.563000", "104515.563000", "104518.065000", "104520.063000", "104521.563000", "104523.563000", "104526.063000", "104528.064000", "104530.063000", "104532.064000", "104534.063000", "104535.564000", "104538.063000", "104540.064000", "104541.563000", "104544.064000", "104546.064000", "104548.063000", "104550.064000", "104552.063000", "104554.064000", "104555.563000", "104558.063000", "104559.563000", "104602.063000", "104604.064000", "104605.563000", "104608.064000", "104610.064000", "104612.063000", "104613.563000", "104615.563000", "104617.563000", "104619.563000", "104621.563000", "104623.563000", "104626.063000", "104628.064000", "104630.063000", "104632.063000", "104633.563000", "104635.563000", "104638.063000", "104640.063000", "104641.564000", "104644.064000", "104646.064000", "104648.063000", "104650.063000", "104652.064000", "104654.063000", "104655.563000", "104658.064000", "104700.063000", "104702.064000", "104703.564000", "104706.063000", "104708.064000", "104709.563000", "104712.063000", "104714.063000", "104715.563000", "104718.063000", "104720.065000", "104722.064000", "104724.064000", "104725.564000", "104728.063000", "104729.563000", "104732.064000", "104734.063000", "104736.063000", "104738.064000", "104740.064000", "104741.563000", "104744.064000", "104746.063000", "104748.063000", "104750.064000", "104751.564000", "104754.064000", "104756.064000", "104757.563000", "104800.064000", "104802.063000", "104803.564000", "104805.563000", "104808.063000", "104810.064000", "104812.063000", "104813.564000", "104816.063000", "104818.064000", "104820.064000", "104822.063000", "104824.064000", "104826.063000", "104828.063000", "104829.563000", "104832.063000", "104834.063000", "104836.064000", "104837.564000", "104840.063000", "104841.563000", "104843.563000", "104846.064000", "104848.064000", "104850.077000", "104852.063000", "104854.064000", "104855.563000", "104858.064000", "104900.064000", "104902.064000", "104904.063000", "104906.064000", "104908.063000", "104910.063000", "104911.564000", "104914.063000", "104916.063000", "104918.064000", "104920.063000", "104921.563000", "104923.564000", "104926.063000", "104928.064000", "104930.063000", "104931.564000", "104934.063000", "104935.564000", "104938.064000", "104940.065000", "104942.064000", "104944.064000", "104946.063000", "104948.063000", "104949.563000", "104952.064000", "104954.064000", "104956.064000", "104958.064000", "105000.064000", "105002.064000", "105004.064000", "105006.064000", "105008.064000", "105010.064000", "105012.064000", "105014.063000", "105016.064000", "105018.064000", "105019.564000", "105022.063000", "105024.063000", "105026.063000", "105028.064000", "105030.063000", "105031.563000", "105033.564000", "105036.064000", "105037.583000", "105040.063000", "105041.563000", "105044.064000", "105046.063000", "105048.063000", "105050.065000", "105051.563000", "105054.063000", "105056.064000", "105058.063000", "105100.063000", "105102.064000", "105104.063000", "105106.064000", "105108.064000", "105109.564000", "105112.063000", "105114.064000", "105116.064000", "105118.064000", "105119.563000", "105122.063000", "105123.563000", "105126.064000", "105128.064000", "105129.563000", "105132.064000", "105134.063000", "105136.064000", "105138.064000", "105139.564000", "105142.064000", "105144.063000", "105146.063000", "105148.063000", "105150.063000", "105152.064000", "105154.063000", "105156.064000", "105158.064000", "105200.065000", "105201.563000", "105204.063000", "105206.063000", "105207.542000"],
      "InstanceCreationTime": ["104426.568000", "104428.063000", "104430.063000", "104432.063000", "104434.064000", "104435.563000", "104437.563000", "104440.063000", "104442.064000", "104444.064000", "104446.063000", "104448.063000", "104450.063000", "104452.063000", "104454.063000", "104455.563000", "104458.063000", "104459.563000", "104501.563000", "104504.063000", "104506.064000", "104508.064000", "104510.063000", "104512.063000", "104513.563000", "104515.563000", "104518.065000", "104520.063000", "104521.563000", "104523.563000", "104526.063000", "104528.064000", "104530.063000", "104532.064000", "104534.063000", "104535.564000", "104538.063000", "104540.064000", "104541.563000", "104544.064000", "104546.064000", "104548.063000", "104550.064000", "104552.063000", "104554.064000", "104555.563000", "104558.063000", "104559.563000", "104602.063000", "104604.064000", "104605.563000", "104608.064000", "104610.064000", "104612.063000", "104613.563000", "104615.563000", "104617.563000", "104619.563000", "104621.563000", "104623.563000", "104626.063000", "104628.064000", "104630.063000", "104632.063000", "104633.563000", "104635.563000", "104638.063000", "104640.063000", "104641.564000", "104644.064000", "104646.064000", "104648.063000", "104650.063000", "104652.064000", "104654.063000", "104655.563000", "104658.064000", "104700.063000", "104702.064000", "104703.564000", "104706.063000", "104708.064000", "104709.563000", "104712.063000", "104714.063000", "104715.563000", "104718.063000", "104720.065000", "104722.064000", "104724.064000", "104725.564000", "104728.063000", "104729.563000", "104732.064000", "104734.063000", "104736.063000", "104738.064000", "104740.064000", "104741.563000", "104744.064000", "104746.063000", "104748.063000", "104750.064000", "104751.564000", "104754.064000", "104756.064000", "104757.563000", "104800.064000", "104802.063000", "104803.564000", "104805.563000", "104808.063000", "104810.064000", "104812.063000", "104813.564000", "104816.063000", "104818.064000", "104820.064000", "104822.063000", "104824.064000", "104826.063000", "104828.063000", "104829.563000", "104832.063000", "104834.063000", "104836.064000", "104837.564000", "104840.063000", "104841.563000", "104843.563000", "104846.064000", "104848.064000", "104850.077000", "104852.063000", "104854.064000", "104855.563000", "104858.064000", "104900.064000", "104902.064000", "104904.063000", "104906.064000", "104908.063000", "104910.063000", "104911.564000", "104914.063000", "104916.063000", "104918.064000", "104920.063000", "104921.563000", "104923.564000", "104926.063000", "104928.064000", "104930.063000", "104931.564000", "104934.063000", "104935.564000", "104938.064000", "104940.065000", "104942.064000", "104944.064000", "104946.063000", "104948.063000", "104949.563000", "104952.064000", "104954.064000", "104956.064000", "104958.064000", "105000.064000", "105002.064000", "105004.064000", "105006.064000", "105008.064000", "105010.064000", "105012.064000", "105014.063000", "105016.064000", "105018.064000", "105019.564000", "105022.063000", "105024.063000", "105026.063000", "105028.064000", "105030.063000", "105031.563000", "105033.564000", "105036.064000", "105037.583000", "105040.063000", "105041.563000", "105044.064000", "105046.063000", "105048.063000", "105050.065000", "105051.563000", "105054.063000", "105056.064000", "105058.063000", "105100.063000", "105102.064000", "105104.063000", "105106.064000", "105108.064000", "105109.564000", "105112.063000", "105114.064000", "105116.064000", "105118.064000", "105119.563000", "105122.063000", "105123.563000", "105126.064000", "105128.064000", "105129.563000", "105132.064000", "105134.063000", "105136.064000", "105138.064000", "105139.564000", "105142.064000", "105144.063000", "105146.063000", "105148.063000", "105150.063000", "105152.064000", "105154.063000", "105156.064000", "105158.064000", "105200.065000", "105201.563000", "105204.063000", "105206.063000", "105207.542000"],
      "InstanceNumber": [1, 2, 3, 4, 5, 6, 7, 8, 9, 10, 11, 12, 13, 14, 15, 16, 17, 18, 19, 20, 21, 22, 23, 24, 25, 26, 27, 28, 29, 30, 31, 32, 33, 34, 35, 36, 37, 38, 39, 40, 41, 42, 43, 44, 45, 46, 47, 48, 49, 50, 51, 52, 53, 54, 55, 56, 57, 58, 59, 60, 61, 62, 63, 64, 65, 66, 67, 68, 69, 70, 71, 72, 73, 74, 75, 76, 77, 78, 79, 80, 81, 82, 83, 84, 85, 86, 87, 88, 89, 90, 91, 92, 93, 94, 95, 96, 97, 98, 99, 100, 101, 102, 103, 104, 105, 106, 107, 108, 109, 110, 111, 112, 113, 114, 115, 116, 117, 118, 119, 120, 121, 122, 123, 124, 125, 126, 127, 128, 129, 130, 131, 132, 133, 134, 135, 136, 137, 138, 139, 140, 141, 142, 143, 144, 145, 146, 147, 148, 149, 150, 151, 152, 153, 154, 155, 156, 157, 158, 159, 160, 161, 162, 163, 164, 165, 166, 167, 168, 169, 170, 171, 172, 173, 174, 175, 176, 177, 178, 179, 180, 181, 182, 183, 184, 185, 186, 187, 188, 189, 190, 191, 192, 193, 194, 195, 196, 197, 198, 199, 200, 201, 202, 203, 204, 205, 206, 207, 208, 209, 210, 211, 212, 213, 214, 215, 216, 217, 218, 219, 220, 221, 222, 223, 224, 225, 226, 227, 228, 229, 230, 231, 232],
      "WindowCenter": [841.0, 839.0, 839.0, 838.0, 839.0, 838.0, 838.0, 838.0, 838.0, 838.0, 838.0, 838.0, 838.0, 838.0, 839.0, 839.0, 839.0, 839.0, 839.0, 838.0, 838.0, 838.0, 838.0, 838.0, 838.0, 838.0, 838.0, 838.0, 838.0, 837.0, 837.0, 837.0, 836.0, 837.0, 838.0, 838.0, 838.0, 838.0, 838.0, 838.0, 839.0, 838.0, 838.0, 838.0, 838.0, 837.0, 838.0, 838.0, 837.0, 837.0, 838.0, 838.0, 838.0, 838.0, 838.0, 838.0, 838.0, 838.0, 838.0, 837.0, 837.0, 837.0, 836.0, 836.0, 836.0, 837.0, 837.0, 837.0, 837.0, 837.0, 836.0, 836.0, 836.0, 837.0, 838.0, 838.0, 838.0, 839.0, 839.0, 838.0, 838.0, 838.0, 838.0, 838.0, 838.0, 838.0, 838.0, 838.0, 839.0, 838.0, 838.0, 839.0, 839.0, 840.0, 840.0, 839.0, 839.0, 839.0, 840.0, 840.0, 840.0, 839.0, 839.0, 839.0, 839.0, 839.0, 839.0, 838.0, 837.0, 837.0, 837.0, 837.0, 836.0, 837.0, 838.0, 838.0, 838.0, 836.0, 834.0, 834.0, 835.0, 836.0, 836.0, 836.0, 836.0, 836.0, 836.0, 836.0, 836.0, 838.0, 839.0, 839.0, 838.0, 838.0, 837.0, 838.0, 838.0, 839.0, 839.0, 839.0, 839.0, 839.0, 839.0, 839.0, 839.0, 838.0, 839.0, 840.0, 840.0, 839.0, 839.0, 839.0, 839.0, 839.0, 840.0, 841.0, 841.0, 840.0, 839.0, 838.0, 838.0, 838.0, 838.0, 838.0, 838.0, 838.0, 838.0, 838.0, 838.0, 839.0, 840.0, 839.0, 838.0, 837.0, 836.0, 838.0, 838.0, 838.0, 838.0, 839.0, 839.0, 839.0, 839.0, 839.0, 838.0, 838.0, 838.0, 837.0, 836.0, 836.0, 835.0, 837.0, 837.0, 837.0, 837.0, 838.0, 838.0, 838.0, 837.0, 837.0, 837.0, 838.0, 838.0, 838.0, 838.0, 838.0, 838.0, 838.0, 839.0, 839.0, 839.0, 838.0, 837.0, 836.0, 836.0, 836.0, 837.0, 837.0, 837.0, 837.0, 837.0, 837.0, 838.0, 838.0, 838.0, 838.0, 838.0, 838.0, 838.0, 837.0, 837.0, 837.0],
      "WindowWidth": [1896.0, 1890.0, 1887.0, 1886.0, 1887.0, 1885.0, 1885.0, 1885.0, 1884.0, 1885.0, 1885.0, 1884.0, 1885.0, 1885.0, 1887.0, 1888.0, 1888.0, 1888.0, 1887.0, 1884.0, 1885.0, 1885.0, 1885.0, 1885.0, 1885.0, 1884.0, 1886.0, 1886.0, 1884.0, 1881.0, 1881.0, 1880.0, 1880.0, 1882.0, 1884.0, 1885.0, 1885.0, 1884.0, 1884.0, 1884.0, 1886.0, 1884.0, 1885.0, 1884.0, 1883.0, 1883.0, 1883.0, 1885.0, 1883.0, 1883.0, 1885.0, 1885.0, 1885.0, 1886.0, 1885.0, 1884.0, 1884.0, 1885.0, 1883.0, 1880.0, 1880.0, 1880.0, 1877.0, 1876.0, 1879.0, 1882.0, 1881.0, 1879.0, 1880.0, 1880.0, 1879.0, 1876.0, 1877.0, 1881.0, 1885.0, 1886.0, 1886.0, 1886.0, 1887.0, 1885.0, 1884.0, 1882.0, 1883.0, 1884.0, 1885.0, 1885.0, 1883.0, 1884.0, 1887.0, 1885.0, 1885.0, 1887.0, 1889.0, 1890.0, 1890.0, 1888.0, 1888.0, 1889.0, 1891.0, 1891.0, 1890.0, 1889.0, 1890.0, 1890.0, 1889.0, 1890.0, 1888.0, 1885.0, 1883.0, 1883.0, 1883.0, 1881.0, 1878.0, 1881.0, 1885.0, 1884.0, 1885.0, 1877.0, 1871.0, 1873.0, 1876.0, 1879.0, 1880.0, 1878.0, 1878.0, 1878.0, 1877.0, 1878.0, 1879.0, 1884.0, 1888.0, 1887.0, 1885.0, 1883.0, 1883.0, 1884.0, 1885.0, 1889.0, 1890.0, 1889.0, 1887.0, 1887.0, 1887.0, 1888.0, 1887.0, 1887.0, 1889.0, 1890.0, 1890.0, 1888.0, 1889.0, 1888.0, 1888.0, 1890.0, 1892.0, 1895.0, 1896.0, 1893.0, 1888.0, 1887.0, 1885.0, 1885.0, 1884.0, 1884.0, 1886.0, 1886.0, 1886.0, 1886.0, 1885.0, 1888.0, 1891.0, 1888.0, 1885.0, 1881.0, 1879.0, 1883.0, 1883.0, 1884.0, 1885.0, 1887.0, 1888.0, 1887.0, 1886.0, 1886.0, 1885.0, 1885.0, 1885.0, 1882.0, 1879.0, 1877.0, 1876.0, 1880.0, 1881.0, 1880.0, 1882.0, 1884.0, 1885.0, 1885.0, 1883.0, 1883.0, 1882.0, 1884.0, 1885.0, 1886.0, 1886.0, 1886.0, 1883.0, 1885.0, 1888.0, 1889.0, 1888.0, 1883.0, 1882.0, 1879.0, 1878.0, 1879.0, 1881.0, 1882.0, 1881.0, 1881.0, 1881.0, 1882.0, 1884.0, 1885.0, 1883.0, 1883.0, 1885.0, 1885.0, 1884.0, 1882.0, 1881.0, 1881.0]
    },
    "slices": {}
  }
}