{
  "AcquisitionMatrixPE": 100,
  "AcquisitionNumber": 1,
  "AcquisitionTime": "09:48:8.647500",
  "BandwidthPerPixelPhaseEncode": 18.519,
  "BaseResolution": 100,
  "BodyPartExamined": "BRAIN",
  "ConsistencyInfo": "N4_VE11C_LATEST_20160120",
  "ConversionSoftware": "dcm2niix",
  "ConversionSoftwareVersion": "v1.0.20180622 GCC4.9.2",
  "DerivedVendorReportedEchoSpacing": 0.000539986,
  "DeviceSerialNumber": "166078",
  "DwellTime": 2.1e-06,
  "EchoTime": 0.034,
  "EchoTrainLength": 100,
  "EffectiveEchoSpacing": 0.000539986,
  "FlipAngle": 90,
  "ImageOrientationPatientDICOM": [0.999816, 0.000402034, 0.019189, -6.79705e-09, 0.999781, -0.0209463],
  "ImageType": [
    "ORIGINAL",
    "PRIMARY",
    "M",
    "ND",
    "MOSAIC"
],
  "InPlanePhaseEncodingDirectionDICOM": "COL",
  "InstitutionAddress": "Street_StreetNo_Bei_Jing_District_CN_ZIP",
  "InstitutionName": "BeiJing_Normal_University",
  "InstitutionalDepartmentName": "Department",
  "MRAcquisitionType": "2D",
  "MagneticFieldStrength": 3,
  "Manufacturer": "Siemens",
  "ManufacturersModelName": "Prisma",
  "Modality": "MR",
  "MultibandAccelerationFactor": 3,
  "PartialFourier": 1,
  "PatientPosition": "HFS",
  "PercentPhaseFOV": 100,
  "PhaseEncodingDirection": "j-",
  "PhaseEncodingSteps": 100,
  "PhaseResolution": 1,
  "PixelBandwidth": 2380,
  "ProcedureStepDescription": "BNU_P2018_64CH_Liu.Jia",
  "ProtocolName": "bold_100x100_s3_2x2x2_232",
  "PulseSequenceDetails": "%SiemensSeq%_ep2d_bold",
  "ReceiveCoilActiveElements": "HC1-7;NC1",
  "ReceiveCoilName": "HeadNeck_64",
  "ReconMatrixPE": 100,
  "RepetitionTime": 2,
  "SAR": 0.0820001,
  "ScanOptions": "FS",
  "ScanningSequence": "EP",
  "SequenceName": "_epfid2d1_100",
  "SequenceVariant": "SK",
  "SeriesDescription": "bold_100x100_s3_2x2x2_232",
  "SeriesNumber": 10,
  "ShimSetting": [-5462, -11519, -1256, 282, 7, -178, -159, 28],
  "SliceThickness": 2,
  "SliceTiming": [1.485, 0, 0.99, 0.0825, 1.0725, 0.165, 1.155, 0.2475, 1.2375, 0.33, 1.32, 0.4125, 1.4025, 0.5775, 1.5675, 0.66, 1.65, 0.7425, 1.7325, 0.825, 1.815, 0.9075, 1.8975, 0.495, 1.485, 0, 0.99, 0.0825, 1.0725, 0.165, 1.155, 0.2475, 1.2375, 0.33, 1.32, 0.4125, 1.4025, 0.5775, 1.5675, 0.66, 1.65, 0.7425, 1.7325, 0.825, 1.815, 0.9075, 1.8975, 0.495, 1.485, 0, 0.99, 0.0825, 1.0725, 0.165, 1.155, 0.2475, 1.2375, 0.33, 1.32, 0.4125, 1.4025, 0.5775, 1.5675, 0.66, 1.65, 0.7425, 1.7325, 0.825, 1.815, 0.9075, 1.8975, 0.495],
  "SoftwareVersions": "syngo_MR_E11",
  "SpacingBetweenSlices": 2,
  "StationName": "AWP166078",
  "TaskName": "motor",
  "TotalReadoutTime": 0.0534586,
  "TxRefAmp": 215.029,
  "dcmmeta_affine": [
    [-1.999631643295288, -1.3594108061454335e-08, 0.03838646411895752, 98.61762237548828],
    [-0.0008040671236813068, 1.9995611906051636, -0.04188483953475952, -89.53572082519531],
    [0.0383780412375927, 0.041892554610967636, 1.9991929531097412, -58.86586380004883],
    [0.0, 0.0, 0.0, 1.0]
],
  "dcmmeta_reorient_transform": [
    [0.0, -1.0, 0.0, 99.0],
    [1.0, 0.0, 0.0, 0.0],
    [0.0, 0.0, 1.0, 0.0],
    [0.0, 0.0, 0.0, 1.0]
],
  "dcmmeta_shape": [100, 100, 72, 232],
  "dcmmeta_slice_dim": 2,
  "dcmmeta_version": 0.6,
  "global": {
    "const": {
      "AcquisitionMatrix": [100, 0, 0, 100],
      "AngioFlag": "N",
      "BitsAllocated": 16,
      "BitsStored": 12,
      "BodyPartExamined": "BRAIN",
      "Columns": 900,
      "EchoNumbers": 1,
      "EchoTime": 34.0,
      "EchoTrainLength": 100,
      "FlipAngle": 90.0,
      "HighBit": 11,
      "ImageOrientationPatient": [0.99981579296389, 0.00040203355662, 0.01918902053286, -6.797054e-09, 0.99978060265455, -0.0209462778484],
      "ImagePositionPatient": [-898.47024776088, -908.56694712924, -53.312694490203],
      "ImageType": [
        "ORIGINAL",
        "PRIMARY",
        "M",
        "ND",
        "MOSAIC"
],
      "ImagedNucleus": "1H",
      "ImagingFrequency": 123.257802,
      "InPlanePhaseEncodingDirection": "COL",
      "MRAcquisitionType": "2D",
      "MagneticFieldStrength": 3.0,
      "Manufacturer": "SIEMENS",
      "ManufacturerModelName": "Prisma",
      "Modality": "MR",
      "NumberOfAverages": 1.0,
      "NumberOfPhaseEncodingSteps": 100,
      "PercentPhaseFieldOfView": 100.0,
      "PercentSampling": 100.0,
      "PerformedProcedureStepStartTime": "090424.111000",
      "PhotometricInterpretation": "MONOCHROME2",
      "PixelBandwidth": 2380.0,
      "PixelRepresentation": 0,
      "PixelSpacing": [2.0, 2.0],
      "ProtocolName": "bold_100x100_s3_2x2x2_232",
      "RepetitionTime": 2000.0,
      "Rows": 900,
      "SAR": 0.08200012963868,
      "SamplesPerPixel": 1,
      "ScanOptions": "FS",
      "ScanningSequence": "EP",
      "SequenceName": "*epfid2d1_100",
      "SequenceVariant": "SK",
      "SeriesDescription": "bold_100x100_s3_2x2x2_232",
      "SeriesNumber": 10,
      "SeriesTime": "094811.329000",
      "SliceLocation": -55.074221777798,
      "SliceThickness": 2.0,
      "SmallestImagePixelValue": 0,
      "SoftwareVersions": "syngo MR E11",
      "SpacingBetweenSlices": 2.0000000239628,
      "SpecificCharacterSet": "ISO_IR 100",
      "StudyID": "1",
      "StudyTime": "090423.971000",
      "TransmitCoilName": "Body",
      "VariableFlipAngleFlag": "N",
      "WindowCenterWidthExplanation": "Algo1",
      "dBdt": 0.0},
    "slices": {}
  },
  "time": {
    "samples": {
      "AcquisitionNumber": [1, 2, 3, 4, 5, 6, 7, 8, 9, 10, 11, 12, 13, 14, 15, 16, 17, 18, 19, 20, 21, 22, 23, 24, 25, 26, 27, 28, 29, 30, 31, 32, 33, 34, 35, 36, 37, 38, 39, 40, 41, 42, 43, 44, 45, 46, 47, 48, 49, 50, 51, 52, 53, 54, 55, 56, 57, 58, 59, 60, 61, 62, 63, 64, 65, 66, 67, 68, 69, 70, 71, 72, 73, 74, 75, 76, 77, 78, 79, 80, 81, 82, 83, 84, 85, 86, 87, 88, 89, 90, 91, 92, 93, 94, 95, 96, 97, 98, 99, 100, 101, 102, 103, 104, 105, 106, 107, 108, 109, 110, 111, 112, 113, 114, 115, 116, 117, 118, 119, 120, 121, 122, 123, 124, 125, 126, 127, 128, 129, 130, 131, 132, 133, 134, 135, 136, 137, 138, 139, 140, 141, 142, 143, 144, 145, 146, 147, 148, 149, 150, 151, 152, 153, 154, 155, 156, 157, 158, 159, 160, 161, 162, 163, 164, 165, 166, 167, 168, 169, 170, 171, 172, 173, 174, 175, 176, 177, 178, 179, 180, 181, 182, 183, 184, 185, 186, 187, 188, 189, 190, 191, 192, 193, 194, 195, 196, 197, 198, 199, 200, 201, 202, 203, 204, 205, 206, 207, 208, 209, 210, 211, 212, 213, 214, 215, 216, 217, 218, 219, 220, 221, 222, 223, 224, 225, 226, 227, 228, 229, 230, 231, 232],
      "AcquisitionTime": ["094808.647500", "094810.647500", "094812.647500", "094814.647500", "094816.647500", "094818.647500", "094820.647500", "094822.647500", "094824.647500", "094826.647500", "094828.647500", "094830.647500", "094832.647500", "094834.647500", "094836.647500", "094838.647500", "094840.647500", "094842.647500", "094844.647500", "094846.647500", "094848.647500", "094850.647500", "094852.647500", "094854.647500", "094856.647500", "094858.647500", "094900.647500", "094902.647500", "094904.647500", "094906.647500", "094908.647500", "094910.647500", "094912.647500", "094914.647500", "094916.647500", "094918.647500", "094920.647500", "094922.647500", "094924.647500", "094926.647500", "094928.647500", "094930.647500", "094932.647500", "094934.647500", "094936.647500", "094938.647500", "094940.647500", "094942.647500", "094944.647500", "094946.647500", "094948.647500", "094950.647500", "094952.647500", "094954.647500", "094956.647500", "094958.647500", "095000.647500", "095002.647500", "095004.647500", "095006.647500", "095008.647500", "095010.647500", "095012.647500", "095014.647500", "095016.647500", "095018.647500", "095020.647500", "095022.647500", "095024.647500", "095026.647500", "095028.647500", "095030.647500", "095032.647500", "095034.647500", "095036.647500", "095038.647500", "095040.647500", "095042.647500", "095044.647500", "095046.647500", "095048.647500", "095050.647500", "095052.647500", "095054.647500", "095056.647500", "095058.647500", "095100.647500", "095102.647500", "095104.647500", "095106.647500", "095108.647500", "095110.647500", "095112.647500", "095114.647500", "095116.647500", "095118.647500", "095120.647500", "095122.647500", "095124.647500", "095126.647500", "095128.647500", "095130.647500", "095132.647500", "095134.647500", "095136.647500", "095138.647500", "095140.647500", "095142.647500", "095144.647500", "095146.647500", "095148.647500", "095150.647500", "095152.647500", "095154.647500", "095156.647500", "095158.647500", "095200.647500", "095202.647500", "095204.647500", "095206.647500", "095208.647500", "095210.647500", "095212.647500", "095214.647500", "095216.647500", "095218.647500", "095220.647500", "095222.647500", "095224.647500", "095226.647500", "095228.647500", "095230.647500", "095232.647500", "095234.647500", "095236.647500", "095238.647500", "095240.647500", "095242.647500", "095244.647500", "095246.647500", "095248.647500", "095250.647500", "095252.647500", "095254.647500", "095256.647500", "095258.647500", "095300.647500", "095302.647500", "095304.647500", "095306.647500", "095308.647500", "095310.647500", "095312.647500", "095314.647500", "095316.647500", "095318.647500", "095320.647500", "095322.647500", "095324.647500", "095326.647500", "095328.647500", "095330.647500", "095332.647500", "095334.647500", "095336.647500", "095338.647500", "095340.647500", "095342.647500", "095344.647500", "095346.647500", "095348.647500", "095350.647500", "095352.647500", "095354.647500", "095356.647500", "095358.647500", "095400.647500", "095402.647500", "095404.647500", "095406.647500", "095408.647500", "095410.647500", "095412.647500", "095414.647500", "095416.647500", "095418.647500", "095420.647500", "095422.647500", "095424.647500", "095426.647500", "095428.647500", "095430.647500", "095432.647500", "095434.647500", "095436.647500", "095438.647500", "095440.647500", "095442.647500", "095444.647500", "095446.647500", "095448.647500", "095450.647500", "095452.647500", "095454.647500", "095456.647500", "095458.647500", "095500.647500", "095502.647500", "095504.647500", "095506.647500", "095508.647500", "095510.647500", "095512.647500", "095514.647500", "095516.647500", "095518.647500", "095520.647500", "095522.647500", "095524.647500", "095526.647500", "095528.647500", "095530.647500", "095532.647500", "095534.647500", "095536.647500", "095538.647500", "095540.647500", "095542.647500", "095544.647500", "095546.647500", "095548.647500", "095550.647500"],
      "ContentTime": ["094811.332000", "094812.821000", "094814.820000", "094816.820000", "094818.820000", "094820.821000", "094822.820000", "094824.820000", "094826.819000", "094828.820000", "094830.820000", "094832.821000", "094834.820000", "094836.821000", "094838.820000", "094840.819000", "094842.819000", "094844.819000", "094846.819000", "094848.820000", "094850.820000", "094852.820000", "094854.820000", "094856.819000", "094858.819000", "094900.820000", "094902.819000", "094904.819000", "094906.820000", "094908.820000", "094910.820000", "094912.820000", "094914.819000", "094916.819000", "094918.819000", "094920.819000", "094922.821000", "094924.820000", "094926.821000", "094928.820000", "094930.820000", "094932.824000", "094934.819000", "094936.819000", "094938.839000", "094940.821000", "094942.821000", "094944.820000", "094946.820000", "094948.820000", "094950.819000", "094952.819000", "094954.819000", "094956.820000", "094958.820000", "095000.821000", "095002.821000", "095004.821000", "095006.820000", "095008.819000", "095010.819000", "095012.819000", "095014.819000", "095016.821000", "095018.821000", "095020.820000", "095022.820000", "095024.820000", "095026.820000", "095028.820000", "095030.819000", "095032.820000", "095034.821000", "095036.820000", "095038.821000", "095040.820000", "095042.819000", "095044.819000", "095046.819000", "095048.819000", "095050.820000", "095052.820000", "095054.820000", "095056.820000", "095058.821000", "095100.820000", "095102.819000", "095104.820000", "095106.819000", "095108.820000", "095110.821000", "095112.820000", "095114.821000", "095116.819000", "095118.819000", "095120.819000", "095122.820000", "095124.819000", "095126.820000", "095128.820000", "095130.821000", "095132.820000", "095134.819000", "095136.819000", "095138.819000", "095140.820000", "095142.820000", "095144.820000", "095146.821000", "095148.820000", "095150.820000", "095152.819000", "095154.819000", "095156.820000", "095158.819000", "095200.820000", "095202.820000", "095204.820000", "095206.821000", "095208.821000", "095210.819000", "095212.820000", "095214.819000", "095216.819000", "095218.821000", "095220.820000", "095222.821000", "095224.821000", "095226.819000", "095228.819000", "095230.819000", "095232.820000", "095234.819000", "095236.820000", "095238.820000", "095240.820000", "095242.821000", "095244.819000", "095246.819000", "095248.820000", "095250.819000", "095252.820000", "095254.821000", "095256.820000", "095258.820000", "095300.820000", "095302.819000", "095304.820000", "095306.819000", "095308.819000", "095310.820000", "095312.820000", "095314.820000", "095316.821000", "095318.830000", "095320.819000", "095322.820000", "095324.819000", "095326.819000", "095328.820000", "095330.841000", "095332.820000", "095334.820000", "095336.819000", "095338.819000", "095340.819000", "095342.819000", "095344.819000", "095346.820000", "095348.820000", "095350.820000", "095352.821000", "095354.820000", "095356.819000", "095358.819000", "095400.820000", "095402.820000", "095404.821000", "095406.820000", "095408.820000", "095410.820000", "095412.820000", "095414.819000", "095416.820000", "095418.819000", "095420.820000", "095422.820000", "095424.820000", "095426.821000", "095428.821000", "095430.820000", "095432.819000", "095434.820000", "095436.819000", "095438.821000", "095440.821000", "095442.821000", "095444.820000", "095446.819000", "095448.820000", "095450.819000", "095452.819000", "095454.819000", "095456.821000", "095458.821000", "095500.820000", "095502.821000", "095504.819000", "095506.820000", "095508.819000", "095510.819000", "095512.820000", "095514.820000", "095516.820000", "095518.821000", "095520.820000", "095522.820000", "095524.819000", "095526.819000", "095528.819000", "095530.821000", "095532.821000", "095534.821000", "095536.820000", "095538.839000", "095540.820000", "095542.820000", "095544.820000", "095546.820000", "095548.820000", "095550.820000", "095552.375000"],
      "InstanceCreationTime": ["094811.332000", "094812.821000", "094814.820000", "094816.820000", "094818.820000", "094820.821000", "094822.820000", "094824.820000", "094826.819000", "094828.820000", "094830.820000", "094832.821000", "094834.820000", "094836.821000", "094838.820000", "094840.819000", "094842.819000", "094844.819000", "094846.819000", "094848.820000", "094850.820000", "094852.820000", "094854.820000", "094856.819000", "094858.819000", "094900.820000", "094902.819000", "094904.819000", "094906.820000", "094908.820000", "094910.820000", "094912.820000", "094914.819000", "094916.819000", "094918.819000", "094920.819000", "094922.821000", "094924.820000", "094926.821000", "094928.820000", "094930.820000", "094932.824000", "094934.819000", "094936.819000", "094938.839000", "094940.821000", "094942.821000", "094944.820000", "094946.820000", "094948.820000", "094950.819000", "094952.819000", "094954.819000", "094956.820000", "094958.820000", "095000.821000", "095002.821000", "095004.821000", "095006.820000", "095008.819000", "095010.819000", "095012.819000", "095014.819000", "095016.821000", "095018.821000", "095020.820000", "095022.820000", "095024.820000", "095026.820000", "095028.820000", "095030.819000", "095032.820000", "095034.821000", "095036.820000", "095038.821000", "095040.820000", "095042.819000", "095044.819000", "095046.819000", "095048.819000", "095050.820000", "095052.820000", "095054.820000", "095056.820000", "095058.821000", "095100.820000", "095102.819000", "095104.820000", "095106.819000", "095108.820000", "095110.821000", "095112.820000", "095114.821000", "095116.819000", "095118.819000", "095120.819000", "095122.820000", "095124.819000", "095126.820000", "095128.820000", "095130.821000", "095132.820000", "095134.819000", "095136.819000", "095138.819000", "095140.820000", "095142.820000", "095144.820000", "095146.821000", "095148.820000", "095150.820000", "095152.819000", "095154.819000", "095156.820000", "095158.819000", "095200.820000", "095202.820000", "095204.820000", "095206.821000", "095208.821000", "095210.819000", "095212.820000", "095214.819000", "095216.819000", "095218.821000", "095220.820000", "095222.821000", "095224.821000", "095226.819000", "095228.819000", "095230.819000", "095232.820000", "095234.819000", "095236.820000", "095238.820000", "095240.820000", "095242.821000", "095244.819000", "095246.819000", "095248.820000", "095250.819000", "095252.820000", "095254.821000", "095256.820000", "095258.820000", "095300.820000", "095302.819000", "095304.820000", "095306.819000", "095308.819000", "095310.820000", "095312.820000", "095314.820000", "095316.821000", "095318.830000", "095320.819000", "095322.820000", "095324.819000", "095326.819000", "095328.820000", "095330.841000", "095332.820000", "095334.820000", "095336.819000", "095338.819000", "095340.819000", "095342.819000", "095344.819000", "095346.820000", "095348.820000", "095350.820000", "095352.821000", "095354.820000", "095356.819000", "095358.819000", "095400.820000", "095402.820000", "095404.821000", "095406.820000", "095408.820000", "095410.820000", "095412.820000", "095414.819000", "095416.820000", "095418.819000", "095420.820000", "095422.820000", "095424.820000", "095426.821000", "095428.821000", "095430.820000", "095432.819000", "095434.820000", "095436.819000", "095438.821000", "095440.821000", "095442.821000", "095444.820000", "095446.819000", "095448.820000", "095450.819000", "095452.819000", "095454.819000", "095456.821000", "095458.821000", "095500.820000", "095502.821000", "095504.819000", "095506.820000", "095508.819000", "095510.819000", "095512.820000", "095514.820000", "095516.820000", "095518.821000", "095520.820000", "095522.820000", "095524.819000", "095526.819000", "095528.819000", "095530.821000", "095532.821000", "095534.821000", "095536.820000", "095538.839000", "095540.820000", "095542.820000", "095544.820000", "095546.820000", "095548.820000", "095550.820000", "095552.375000"],
      "InstanceNumber": [1, 2, 3, 4, 5, 6, 7, 8, 9, 10, 11, 12, 13, 14, 15, 16, 17, 18, 19, 20, 21, 22, 23, 24, 25, 26, 27, 28, 29, 30, 31, 32, 33, 34, 35, 36, 37, 38, 39, 40, 41, 42, 43, 44, 45, 46, 47, 48, 49, 50, 51, 52, 53, 54, 55, 56, 57, 58, 59, 60, 61, 62, 63, 64, 65, 66, 67, 68, 69, 70, 71, 72, 73, 74, 75, 76, 77, 78, 79, 80, 81, 82, 83, 84, 85, 86, 87, 88, 89, 90, 91, 92, 93, 94, 95, 96, 97, 98, 99, 100, 101, 102, 103, 104, 105, 106, 107, 108, 109, 110, 111, 112, 113, 114, 115, 116, 117, 118, 119, 120, 121, 122, 123, 124, 125, 126, 127, 128, 129, 130, 131, 132, 133, 134, 135, 136, 137, 138, 139, 140, 141, 142, 143, 144, 145, 146, 147, 148, 149, 150, 151, 152, 153, 154, 155, 156, 157, 158, 159, 160, 161, 162, 163, 164, 165, 166, 167, 168, 169, 170, 171, 172, 173, 174, 175, 176, 177, 178, 179, 180, 181, 182, 183, 184, 185, 186, 187, 188, 189, 190, 191, 192, 193, 194, 195, 196, 197, 198, 199, 200, 201, 202, 203, 204, 205, 206, 207, 208, 209, 210, 211, 212, 213, 214, 215, 216, 217, 218, 219, 220, 221, 222, 223, 224, 225, 226, 227, 228, 229, 230, 231, 232],
      "LargestImagePixelValue": [3489, 3383, 3348, 3375, 3349, 3328, 3368, 3358, 3354, 3343, 3330, 3349, 3337, 3352, 3362, 3339, 3327, 3325, 3363, 3339, 3360, 3321, 3325, 3297, 3296, 3296, 3326, 3318, 3314, 3320, 3301, 3343, 3319, 3326, 3321, 3310, 3322, 3317, 3337, 3339, 3315, 3329, 3324, 3305, 3324, 3347, 3335, 3347, 3340, 3345, 3351, 3310, 3328, 3327, 3326, 3351, 3355, 3331, 3369, 3313, 3316, 3325, 3305, 3326, 3336, 3314, 3343, 3331, 3326, 3332, 3336, 3330, 3348, 3349, 3373, 3356, 3355, 3348, 3349, 3357, 3355, 3411, 3380, 3350, 3339, 3354, 3371, 3382, 3348, 3355, 3334, 3329, 3306, 3334, 3353, 3332, 3358, 3368, 3332, 3311, 3365, 3322, 3352, 3354, 3338, 3319, 3342, 3397, 3368, 3377, 3346, 3331, 3366, 3358, 3361, 3369, 3356, 3383, 3342, 3351, 3359, 3355, 3350, 3339, 3326, 3341, 3373, 3363, 3367, 3373, 3355, 3390, 3353, 3344, 3356, 3359, 3359, 3362, 3337, 3355, 3349, 3362, 3371, 3359, 3399, 3349, 3358, 3397, 3385, 3383, 3374, 3368, 3357, 3344, 3311, 3384, 3373, 3361, 3371, 3365, 3380, 3364, 3377, 3362, 3391, 3366, 3368, 3370, 3367, 3419, 3389, 3355, 3388, 3363, 3373, 3392, 3352, 3382, 3368, 3371, 3383, 3364, 3354, 3365, 3355, 3366, 3384, 3444, 3430, 3417, 3408, 3424, 3442, 3454, 3489, 3419, 3385, 3383, 3383, 3376, 3365, 3357, 3402, 3399, 3378, 3388, 3374, 3381, 3386, 3364, 3368, 3365, 3356, 3363, 3379, 3376, 3377, 3387, 3377, 3384, 3407, 3401, 3409, 3392, 3403, 3379, 3419, 3415, 3410, 3390, 3424, 3428],
      "WindowCenter": [783.0, 781.0, 780.0, 780.0, 780.0, 780.0, 780.0, 780.0, 780.0, 780.0, 780.0, 781.0, 780.0, 780.0, 780.0, 779.0, 779.0, 779.0, 780.0, 780.0, 781.0, 781.0, 782.0, 782.0, 782.0, 781.0, 780.0, 780.0, 780.0, 780.0, 779.0, 780.0, 780.0, 781.0, 781.0, 781.0, 780.0, 780.0, 780.0, 780.0, 780.0, 780.0, 780.0, 780.0, 779.0, 779.0, 780.0, 781.0, 779.0, 778.0, 778.0, 779.0, 780.0, 778.0, 778.0, 778.0, 779.0, 779.0, 779.0, 779.0, 780.0, 780.0, 780.0, 779.0, 779.0, 779.0, 779.0, 780.0, 780.0, 780.0, 780.0, 779.0, 779.0, 778.0, 779.0, 779.0, 779.0, 778.0, 778.0, 779.0, 779.0, 778.0, 778.0, 779.0, 779.0, 778.0, 778.0, 779.0, 779.0, 778.0, 779.0, 779.0, 779.0, 778.0, 778.0, 779.0, 780.0, 780.0, 780.0, 780.0, 780.0, 780.0, 781.0, 782.0, 781.0, 779.0, 779.0, 779.0, 779.0, 779.0, 778.0, 778.0, 778.0, 778.0, 778.0, 779.0, 778.0, 778.0, 777.0, 778.0, 778.0, 778.0, 780.0, 780.0, 780.0, 779.0, 779.0, 779.0, 778.0, 779.0, 779.0, 779.0, 778.0, 778.0, 777.0, 778.0, 777.0, 778.0, 778.0, 777.0, 776.0, 777.0, 778.0, 778.0, 779.0, 779.0, 779.0, 780.0, 781.0, 781.0, 780.0, 780.0, 779.0, 779.0, 779.0, 781.0, 781.0, 780.0, 780.0, 780.0, 780.0, 779.0, 779.0, 779.0, 780.0, 780.0, 779.0, 779.0, 779.0, 779.0, 780.0, 780.0, 780.0, 780.0, 781.0, 781.0, 779.0, 779.0, 779.0, 779.0, 779.0, 778.0, 778.0, 779.0, 780.0, 780.0, 780.0, 781.0, 781.0, 781.0, 781.0, 781.0, 780.0, 780.0, 780.0, 780.0, 779.0, 779.0, 779.0, 779.0, 779.0, 778.0, 778.0, 778.0, 779.0, 779.0, 778.0, 777.0, 776.0, 776.0, 776.0, 777.0, 777.0, 778.0, 778.0, 778.0, 779.0, 779.0, 779.0, 779.0, 780.0, 780.0, 778.0, 778.0, 778.0, 778.0, 778.0, 779.0, 779.0, 779.0, 779.0, 779.0],
      "WindowWidth": [1709.0, 1701.0, 1698.0, 1698.0, 1698.0, 1698.0, 1699.0, 1699.0, 1699.0, 1699.0, 1699.0, 1700.0, 1699.0, 1698.0, 1697.0, 1696.0, 1696.0, 1696.0, 1698.0, 1699.0, 1701.0, 1701.0, 1705.0, 1705.0, 1703.0, 1702.0, 1699.0, 1699.0, 1699.0, 1698.0, 1695.0, 1697.0, 1699.0, 1700.0, 1701.0, 1702.0, 1700.0, 1698.0, 1698.0, 1698.0, 1699.0, 1699.0, 1698.0, 1698.0, 1696.0, 1695.0, 1699.0, 1700.0, 1695.0, 1692.0, 1694.0, 1696.0, 1697.0, 1694.0, 1693.0, 1693.0, 1695.0, 1696.0, 1695.0, 1696.0, 1698.0, 1699.0, 1698.0, 1697.0, 1697.0, 1696.0, 1697.0, 1697.0, 1698.0, 1698.0, 1698.0, 1697.0, 1696.0, 1694.0, 1694.0, 1695.0, 1695.0, 1693.0, 1694.0, 1695.0, 1694.0, 1692.0, 1694.0, 1696.0, 1695.0, 1693.0, 1693.0, 1694.0, 1694.0, 1692.0, 1695.0, 1696.0, 1694.0, 1693.0, 1694.0, 1695.0, 1697.0, 1698.0, 1699.0, 1698.0, 1699.0, 1698.0, 1701.0, 1703.0, 1700.0, 1696.0, 1695.0, 1697.0, 1697.0, 1696.0, 1694.0, 1692.0, 1692.0, 1693.0, 1694.0, 1694.0, 1694.0, 1692.0, 1691.0, 1692.0, 1692.0, 1694.0, 1697.0, 1699.0, 1698.0, 1697.0, 1696.0, 1696.0, 1694.0, 1696.0, 1695.0, 1694.0, 1692.0, 1692.0, 1691.0, 1692.0, 1691.0, 1692.0, 1692.0, 1690.0, 1688.0, 1691.0, 1693.0, 1692.0, 1695.0, 1695.0, 1695.0, 1699.0, 1701.0, 1701.0, 1699.0, 1698.0, 1696.0, 1696.0, 1696.0, 1700.0, 1701.0, 1700.0, 1698.0, 1697.0, 1697.0, 1696.0, 1696.0, 1696.0, 1697.0, 1698.0, 1697.0, 1696.0, 1694.0, 1697.0, 1697.0, 1698.0, 1699.0, 1699.0, 1700.0, 1699.0, 1697.0, 1694.0, 1695.0, 1695.0, 1694.0, 1692.0, 1693.0, 1696.0, 1697.0, 1697.0, 1698.0, 1701.0, 1700.0, 1700.0, 1700.0, 1699.0, 1699.0, 1698.0, 1699.0, 1698.0, 1696.0, 1695.0, 1695.0, 1694.0, 1694.0, 1693.0, 1693.0, 1693.0, 1696.0, 1696.0, 1692.0, 1689.0, 1687.0, 1688.0, 1688.0, 1689.0, 1690.0, 1692.0, 1694.0, 1693.0, 1694.0, 1694.0, 1694.0, 1695.0, 1698.0, 1696.0, 1693.0, 1692.0, 1692.0, 1691.0, 1692.0, 1694.0, 1695.0, 1695.0, 1694.0, 1694.0]
    },
    "slices": {}
  }
}