{
  "AcquisitionMatrixPE": 100,
  "AcquisitionNumber": 1,
  "AcquisitionTime": "09:08:7.705000",
  "BandwidthPerPixelPhaseEncode": 18.519,
  "BaseResolution": 100,
  "BodyPartExamined": "BRAIN",
  "ConsistencyInfo": "N4_VE11C_LATEST_20160120",
  "ConversionSoftware": "dcm2niix",
  "ConversionSoftwareVersion": "v1.0.20180622 GCC4.9.2",
  "DerivedVendorReportedEchoSpacing": 0.000539986,
  "DeviceSerialNumber": "166078",
  "DwellTime": 2.1e-06,
  "EchoTime": 0.034,
  "EchoTrainLength": 100,
  "EffectiveEchoSpacing": 0.000539986,
  "FlipAngle": 90,
  "ImageOrientationPatientDICOM": [0.999816, 0.000402034, 0.019189, -6.79705e-09, 0.999781, -0.0209463],
  "ImageType": [
    "ORIGINAL",
    "PRIMARY",
    "M",
    "ND",
    "MOSAIC"
],
  "InPlanePhaseEncodingDirectionDICOM": "COL",
  "InstitutionAddress": "Street_StreetNo_Bei_Jing_District_CN_ZIP",
  "InstitutionName": "BeiJing_Normal_University",
  "InstitutionalDepartmentName": "Department",
  "MRAcquisitionType": "2D",
  "MagneticFieldStrength": 3,
  "Manufacturer": "Siemens",
  "ManufacturersModelName": "Prisma",
  "Modality": "MR",
  "MultibandAccelerationFactor": 3,
  "PartialFourier": 1,
  "PatientPosition": "HFS",
  "PercentPhaseFOV": 100,
  "PhaseEncodingDirection": "j-",
  "PhaseEncodingSteps": 100,
  "PhaseResolution": 1,
  "PixelBandwidth": 2380,
  "ProcedureStepDescription": "BNU_P2018_64CH_Liu.Jia",
  "ProtocolName": "bold_100x100_s3_2x2x2_232",
  "PulseSequenceDetails": "%SiemensSeq%_ep2d_bold",
  "ReceiveCoilActiveElements": "HC1-7;NC1",
  "ReceiveCoilName": "HeadNeck_64",
  "ReconMatrixPE": 100,
  "RepetitionTime": 2,
  "SAR": 0.0820001,
  "ScanOptions": "FS",
  "ScanningSequence": "EP",
  "SequenceName": "_epfid2d1_100",
  "SequenceVariant": "SK",
  "SeriesDescription": "bold_100x100_s3_2x2x2_232",
  "SeriesNumber": 3,
  "ShimSetting": [-5462, -11519, -1256, 282, 7, -178, -159, 28],
  "SliceThickness": 2,
  "SliceTiming": [1.485, 0, 0.99, 0.0825, 1.0725, 0.165, 1.155, 0.2475, 1.2375, 0.33, 1.32, 0.4125, 1.4025, 0.5775, 1.5675, 0.66, 1.65, 0.7425, 1.7325, 0.825, 1.815, 0.9075, 1.8975, 0.495, 1.485, 0, 0.99, 0.0825, 1.0725, 0.165, 1.155, 0.2475, 1.2375, 0.33, 1.32, 0.4125, 1.4025, 0.5775, 1.5675, 0.66, 1.65, 0.7425, 1.7325, 0.825, 1.815, 0.9075, 1.8975, 0.495, 1.485, 0, 0.99, 0.0825, 1.0725, 0.165, 1.155, 0.2475, 1.2375, 0.33, 1.32, 0.4125, 1.4025, 0.5775, 1.5675, 0.66, 1.65, 0.7425, 1.7325, 0.825, 1.815, 0.9075, 1.8975, 0.495],
  "SoftwareVersions": "syngo_MR_E11",
  "SpacingBetweenSlices": 2,
  "StationName": "AWP166078",
  "TaskName": "motor",
  "TotalReadoutTime": 0.0534586,
  "TxRefAmp": 215.029,
  "dcmmeta_affine": [
    [-1.999631643295288, -1.3594108061454335e-08, 0.03838646411895752, 98.61762237548828],
    [-0.0008040671236813068, 1.9995611906051636, -0.04188483953475952, -89.53572082519531],
    [0.0383780412375927, 0.041892554610967636, 1.9991929531097412, -58.86586380004883],
    [0.0, 0.0, 0.0, 1.0]
],
  "dcmmeta_reorient_transform": [
    [0.0, -1.0, 0.0, 99.0],
    [1.0, 0.0, 0.0, 0.0],
    [0.0, 0.0, 1.0, 0.0],
    [0.0, 0.0, 0.0, 1.0]
],
  "dcmmeta_shape": [100, 100, 72, 232],
  "dcmmeta_slice_dim": 2,
  "dcmmeta_version": 0.6,
  "global": {
    "const": {
      "AcquisitionMatrix": [100, 0, 0, 100],
      "AngioFlag": "N",
      "BitsAllocated": 16,
      "BitsStored": 12,
      "BodyPartExamined": "BRAIN",
      "Columns": 900,
      "EchoNumbers": 1,
      "EchoTime": 34.0,
      "EchoTrainLength": 100,
      "FlipAngle": 90.0,
      "HighBit": 11,
      "ImageOrientationPatient": [0.99981579296389, 0.00040203355662, 0.01918902053286, -6.797054e-09, 0.99978060265455, -0.0209462778484],
      "ImagePositionPatient": [-898.47024776088, -908.56694712924, -53.312694490203],
      "ImageType": [
        "ORIGINAL",
        "PRIMARY",
        "M",
        "ND",
        "MOSAIC"
],
      "ImagedNucleus": "1H",
      "ImagingFrequency": 123.257779,
      "InPlanePhaseEncodingDirection": "COL",
      "MRAcquisitionType": "2D",
      "MagneticFieldStrength": 3.0,
      "Manufacturer": "SIEMENS",
      "ManufacturerModelName": "Prisma",
      "Modality": "MR",
      "NumberOfAverages": 1.0,
      "NumberOfPhaseEncodingSteps": 100,
      "PercentPhaseFieldOfView": 100.0,
      "PercentSampling": 100.0,
      "PerformedProcedureStepStartTime": "090424.111000",
      "PhotometricInterpretation": "MONOCHROME2",
      "PixelBandwidth": 2380.0,
      "PixelRepresentation": 0,
      "PixelSpacing": [2.0, 2.0],
      "ProtocolName": "bold_100x100_s3_2x2x2_232",
      "RepetitionTime": 2000.0,
      "Rows": 900,
      "SAR": 0.08200012963868,
      "SamplesPerPixel": 1,
      "ScanOptions": "FS",
      "ScanningSequence": "EP",
      "SequenceName": "*epfid2d1_100",
      "SequenceVariant": "SK",
      "SeriesDescription": "bold_100x100_s3_2x2x2_232",
      "SeriesNumber": 3,
      "SeriesTime": "090809.878000",
      "SliceLocation": -55.074221777798,
      "SliceThickness": 2.0,
      "SmallestImagePixelValue": 0,
      "SoftwareVersions": "syngo MR E11",
      "SpacingBetweenSlices": 2.0000000239628,
      "SpecificCharacterSet": "ISO_IR 100",
      "StudyID": "1",
      "StudyTime": "090423.971000",
      "TransmitCoilName": "Body",
      "VariableFlipAngleFlag": "N",
      "WindowCenterWidthExplanation": "Algo1",
      "dBdt": 0.0},
    "slices": {}
  },
  "time": {
    "samples": {
      "AcquisitionNumber": [1, 2, 3, 4, 5, 6, 7, 8, 9, 10, 11, 12, 13, 14, 15, 16, 17, 18, 19, 20, 21, 22, 23, 24, 25, 26, 27, 28, 29, 30, 31, 32, 33, 34, 35, 36, 37, 38, 39, 40, 41, 42, 43, 44, 45, 46, 47, 48, 49, 50, 51, 52, 53, 54, 55, 56, 57, 58, 59, 60, 61, 62, 63, 64, 65, 66, 67, 68, 69, 70, 71, 72, 73, 74, 75, 76, 77, 78, 79, 80, 81, 82, 83, 84, 85, 86, 87, 88, 89, 90, 91, 92, 93, 94, 95, 96, 97, 98, 99, 100, 101, 102, 103, 104, 105, 106, 107, 108, 109, 110, 111, 112, 113, 114, 115, 116, 117, 118, 119, 120, 121, 122, 123, 124, 125, 126, 127, 128, 129, 130, 131, 132, 133, 134, 135, 136, 137, 138, 139, 140, 141, 142, 143, 144, 145, 146, 147, 148, 149, 150, 151, 152, 153, 154, 155, 156, 157, 158, 159, 160, 161, 162, 163, 164, 165, 166, 167, 168, 169, 170, 171, 172, 173, 174, 175, 176, 177, 178, 179, 180, 181, 182, 183, 184, 185, 186, 187, 188, 189, 190, 191, 192, 193, 194, 195, 196, 197, 198, 199, 200, 201, 202, 203, 204, 205, 206, 207, 208, 209, 210, 211, 212, 213, 214, 215, 216, 217, 218, 219, 220, 221, 222, 223, 224, 225, 226, 227, 228, 229, 230, 231, 232],
      "AcquisitionTime": ["090807.705000", "090809.705000", "090811.705000", "090813.705000", "090815.705000", "090817.705000", "090819.705000", "090821.705000", "090823.705000", "090825.705000", "090827.705000", "090829.705000", "090831.705000", "090833.705000", "090835.705000", "090837.705000", "090839.705000", "090841.705000", "090843.705000", "090845.705000", "090847.705000", "090849.705000", "090851.705000", "090853.705000", "090855.705000", "090857.705000", "090859.705000", "090901.705000", "090903.705000", "090905.705000", "090907.705000", "090909.705000", "090911.705000", "090913.705000", "090915.705000", "090917.705000", "090919.705000", "090921.705000", "090923.705000", "090925.705000", "090927.705000", "090929.705000", "090931.705000", "090933.705000", "090935.705000", "090937.705000", "090939.705000", "090941.705000", "090943.705000", "090945.705000", "090947.705000", "090949.705000", "090951.705000", "090953.705000", "090955.705000", "090957.705000", "090959.705000", "091001.705000", "091003.705000", "091005.705000", "091007.705000", "091009.705000", "091011.705000", "091013.705000", "091015.705000", "091017.705000", "091019.705000", "091021.705000", "091023.705000", "091025.705000", "091027.705000", "091029.705000", "091031.705000", "091033.705000", "091035.705000", "091037.705000", "091039.705000", "091041.705000", "091043.705000", "091045.705000", "091047.705000", "091049.705000", "091051.705000", "091053.705000", "091055.705000", "091057.705000", "091059.705000", "091101.705000", "091103.705000", "091105.705000", "091107.705000", "091109.705000", "091111.705000", "091113.705000", "091115.705000", "091117.705000", "091119.705000", "091121.705000", "091123.705000", "091125.705000", "091127.705000", "091129.705000", "091131.705000", "091133.705000", "091135.705000", "091137.705000", "091139.705000", "091141.705000", "091143.705000", "091145.705000", "091147.705000", "091149.705000", "091151.705000", "091153.705000", "091155.705000", "091157.705000", "091159.705000", "091201.705000", "091203.705000", "091205.705000", "091207.705000", "091209.705000", "091211.705000", "091213.705000", "091215.705000", "091217.705000", "091219.705000", "091221.705000", "091223.705000", "091225.705000", "091227.705000", "091229.705000", "091231.705000", "091233.705000", "091235.705000", "091237.705000", "091239.705000", "091241.705000", "091243.705000", "091245.705000", "091247.705000", "091249.705000", "091251.705000", "091253.705000", "091255.705000", "091257.705000", "091259.705000", "091301.705000", "091303.705000", "091305.705000", "091307.705000", "091309.705000", "091311.705000", "091313.705000", "091315.705000", "091317.705000", "091319.705000", "091321.705000", "091323.705000", "091325.705000", "091327.705000", "091329.705000", "091331.705000", "091333.705000", "091335.705000", "091337.705000", "091339.705000", "091341.705000", "091343.705000", "091345.705000", "091347.705000", "091349.705000", "091351.705000", "091353.705000", "091355.705000", "091357.705000", "091359.705000", "091401.705000", "091403.705000", "091405.705000", "091407.705000", "091409.705000", "091411.705000", "091413.705000", "091415.705000", "091417.705000", "091419.705000", "091421.705000", "091423.705000", "091425.705000", "091427.705000", "091429.705000", "091431.705000", "091433.705000", "091435.705000", "091437.705000", "091439.705000", "091441.705000", "091443.705000", "091445.705000", "091447.705000", "091449.705000", "091451.705000", "091453.705000", "091455.705000", "091457.705000", "091459.705000", "091501.705000", "091503.705000", "091505.705000", "091507.705000", "091509.705000", "091511.705000", "091513.705000", "091515.705000", "091517.705000", "091519.705000", "091521.705000", "091523.705000", "091525.705000", "091527.705000", "091529.705000", "091531.705000", "091533.705000", "091535.705000", "091537.705000", "091539.705000", "091541.705000", "091543.705000", "091545.705000", "091547.705000", "091549.705000"],
      "ContentTime": ["090809.882000", "090811.377000", "090813.377000", "090815.378000", "090817.377000", "090819.378000", "090821.378000", "090823.378000", "090825.378000", "090827.377000", "090829.378000", "090831.377000", "090833.377000", "090835.379000", "090837.379000", "090839.378000", "090841.379000", "090843.378000", "090845.377000", "090847.377000", "090849.377000", "090851.378000", "090853.379000", "090855.378000", "090857.378000", "090859.379000", "090901.377000", "090903.377000", "090905.377000", "090907.377000", "090909.377000", "090911.378000", "090913.379000", "090915.378000", "090917.378000", "090919.377000", "090921.378000", "090923.378000", "090925.377000", "090927.378000", "090929.378000", "090931.378000", "090933.378000", "090935.378000", "090937.378000", "090939.377000", "090941.378000", "090943.377000", "090945.378000", "090947.378000", "090949.378000", "090951.378000", "090953.377000", "090955.377000", "090957.378000", "090959.378000", "091001.377000", "091003.378000", "091005.378000", "091007.378000", "091009.378000", "091011.377000", "091013.377000", "091015.377000", "091017.377000", "091019.377000", "091021.379000", "091023.379000", "091025.379000", "091027.378000", "091029.377000", "091031.378000", "091033.378000", "091035.377000", "091037.377000", "091039.378000", "091041.378000", "091043.378000", "091045.378000", "091047.377000", "091049.377000", "091051.377000", "091053.377000", "091055.379000", "091057.378000", "091059.378000", "091101.378000", "091103.377000", "091105.377000", "091107.378000", "091109.377000", "091111.378000", "091113.378000", "091115.378000", "091117.378000", "091119.378000", "091121.377000", "091123.378000", "091125.378000", "091127.377000", "091129.377000", "091131.378000", "091133.379000", "091135.379000", "091137.379000", "091139.377000", "091141.378000", "091143.378000", "091145.377000", "091147.378000", "091149.378000", "091151.378000", "091153.378000", "091155.379000", "091157.377000", "091159.377000", "091201.377000", "091203.377000", "091205.378000", "091207.379000", "091209.379000", "091211.379000", "091213.377000", "091215.377000", "091217.377000", "091219.378000", "091221.377000", "091223.378000", "091225.378000", "091227.378000", "091229.378000", "091231.377000", "091233.377000", "091235.377000", "091237.378000", "091239.378000", "091241.378000", "091243.378000", "091245.379000", "091247.379000", "091249.377000", "091251.378000", "091253.378000", "091255.378000", "091257.378000", "091259.379000", "091301.379000", "091303.378000", "091305.378000", "091307.377000", "091309.377000", "091311.377000", "091313.377000", "091315.378000", "091317.378000", "091319.378000", "091321.378000", "091323.377000", "091325.377000", "091327.377000", "091329.377000", "091331.377000", "091333.378000", "091335.378000", "091337.378000", "091339.378000", "091341.377000", "091343.377000", "091345.378000", "091347.378000", "091349.378000", "091351.378000", "091353.379000", "091355.379000", "091357.379000", "091359.377000", "091401.377000", "091403.377000", "091405.377000", "091407.378000", "091409.378000", "091411.379000", "091413.378000", "091415.379000", "091417.378000", "091419.377000", "091421.377000", "091423.377000", "091425.378000", "091427.378000", "091429.379000", "091431.378000", "091433.377000", "091435.377000", "091437.377000", "091439.377000", "091441.378000", "091443.378000", "091445.379000", "091447.378000", "091449.378000", "091451.378000", "091453.378000", "091455.377000", "091457.378000", "091459.377000", "091501.379000", "091503.379000", "091505.378000", "091507.378000", "091509.377000", "091511.378000", "091513.378000", "091515.377000", "091517.378000", "091519.379000", "091521.378000", "091523.378000", "091525.378000", "091527.377000", "091529.377000", "091531.378000", "091533.377000", "091535.378000", "091537.378000", "091539.378000", "091541.379000", "091543.377000", "091545.377000", "091547.377000", "091549.378000", "091551.054000"],
      "InstanceCreationTime": ["090809.882000", "090811.377000", "090813.377000", "090815.378000", "090817.377000", "090819.378000", "090821.378000", "090823.378000", "090825.378000", "090827.377000", "090829.378000", "090831.377000", "090833.377000", "090835.379000", "090837.379000", "090839.378000", "090841.379000", "090843.378000", "090845.377000", "090847.377000", "090849.377000", "090851.378000", "090853.379000", "090855.378000", "090857.378000", "090859.379000", "090901.377000", "090903.377000", "090905.377000", "090907.377000", "090909.377000", "090911.378000", "090913.379000", "090915.378000", "090917.378000", "090919.377000", "090921.378000", "090923.378000", "090925.377000", "090927.378000", "090929.378000", "090931.378000", "090933.378000", "090935.378000", "090937.378000", "090939.377000", "090941.378000", "090943.377000", "090945.378000", "090947.378000", "090949.378000", "090951.378000", "090953.377000", "090955.377000", "090957.378000", "090959.378000", "091001.377000", "091003.378000", "091005.378000", "091007.378000", "091009.378000", "091011.377000", "091013.377000", "091015.377000", "091017.377000", "091019.377000", "091021.379000", "091023.379000", "091025.379000", "091027.378000", "091029.377000", "091031.378000", "091033.378000", "091035.377000", "091037.377000", "091039.378000", "091041.378000", "091043.378000", "091045.378000", "091047.377000", "091049.377000", "091051.377000", "091053.377000", "091055.379000", "091057.378000", "091059.378000", "091101.378000", "091103.377000", "091105.377000", "091107.378000", "091109.377000", "091111.378000", "091113.378000", "091115.378000", "091117.378000", "091119.378000", "091121.377000", "091123.378000", "091125.378000", "091127.377000", "091129.377000", "091131.378000", "091133.379000", "091135.379000", "091137.379000", "091139.377000", "091141.378000", "091143.378000", "091145.377000", "091147.378000", "091149.378000", "091151.378000", "091153.378000", "091155.379000", "091157.377000", "091159.377000", "091201.377000", "091203.377000", "091205.378000", "091207.379000", "091209.379000", "091211.379000", "091213.377000", "091215.377000", "091217.377000", "091219.378000", "091221.377000", "091223.378000", "091225.378000", "091227.378000", "091229.378000", "091231.377000", "091233.377000", "091235.377000", "091237.378000", "091239.378000", "091241.378000", "091243.378000", "091245.379000", "091247.379000", "091249.377000", "091251.378000", "091253.378000", "091255.378000", "091257.378000", "091259.379000", "091301.379000", "091303.378000", "091305.378000", "091307.377000", "091309.377000", "091311.377000", "091313.377000", "091315.378000", "091317.378000", "091319.378000", "091321.378000", "091323.377000", "091325.377000", "091327.377000", "091329.377000", "091331.377000", "091333.378000", "091335.378000", "091337.378000", "091339.378000", "091341.377000", "091343.377000", "091345.378000", "091347.378000", "091349.378000", "091351.378000", "091353.379000", "091355.379000", "091357.379000", "091359.377000", "091401.377000", "091403.377000", "091405.377000", "091407.378000", "091409.378000", "091411.379000", "091413.378000", "091415.379000", "091417.378000", "091419.377000", "091421.377000", "091423.377000", "091425.378000", "091427.378000", "091429.379000", "091431.378000", "091433.377000", "091435.377000", "091437.377000", "091439.377000", "091441.378000", "091443.378000", "091445.379000", "091447.378000", "091449.378000", "091451.378000", "091453.378000", "091455.377000", "091457.378000", "091459.377000", "091501.379000", "091503.379000", "091505.378000", "091507.378000", "091509.377000", "091511.378000", "091513.378000", "091515.377000", "091517.378000", "091519.379000", "091521.378000", "091523.378000", "091525.378000", "091527.377000", "091529.377000", "091531.378000", "091533.377000", "091535.378000", "091537.378000", "091539.378000", "091541.379000", "091543.377000", "091545.377000", "091547.377000", "091549.378000", "091551.054000"],
      "InstanceNumber": [1, 2, 3, 4, 5, 6, 7, 8, 9, 10, 11, 12, 13, 14, 15, 16, 17, 18, 19, 20, 21, 22, 23, 24, 25, 26, 27, 28, 29, 30, 31, 32, 33, 34, 35, 36, 37, 38, 39, 40, 41, 42, 43, 44, 45, 46, 47, 48, 49, 50, 51, 52, 53, 54, 55, 56, 57, 58, 59, 60, 61, 62, 63, 64, 65, 66, 67, 68, 69, 70, 71, 72, 73, 74, 75, 76, 77, 78, 79, 80, 81, 82, 83, 84, 85, 86, 87, 88, 89, 90, 91, 92, 93, 94, 95, 96, 97, 98, 99, 100, 101, 102, 103, 104, 105, 106, 107, 108, 109, 110, 111, 112, 113, 114, 115, 116, 117, 118, 119, 120, 121, 122, 123, 124, 125, 126, 127, 128, 129, 130, 131, 132, 133, 134, 135, 136, 137, 138, 139, 140, 141, 142, 143, 144, 145, 146, 147, 148, 149, 150, 151, 152, 153, 154, 155, 156, 157, 158, 159, 160, 161, 162, 163, 164, 165, 166, 167, 168, 169, 170, 171, 172, 173, 174, 175, 176, 177, 178, 179, 180, 181, 182, 183, 184, 185, 186, 187, 188, 189, 190, 191, 192, 193, 194, 195, 196, 197, 198, 199, 200, 201, 202, 203, 204, 205, 206, 207, 208, 209, 210, 211, 212, 213, 214, 215, 216, 217, 218, 219, 220, 221, 222, 223, 224, 225, 226, 227, 228, 229, 230, 231, 232],
      "LargestImagePixelValue": [3433, 3353, 3307, 3302, 3312, 3304, 3316, 3338, 3322, 3299, 3243, 3255, 3272, 3275, 3264, 3295, 3290, 3257, 3263, 3317, 3282, 3268, 3290, 3234, 3272, 3270, 3290, 3309, 3273, 3261, 3305, 3322, 3274, 3284, 3371, 3356, 3370, 3357, 3360, 3355, 3414, 3375, 3378, 3328, 3363, 3341, 3356, 3365, 3340, 3354, 3357, 3346, 3348, 3320, 3344, 3377, 3364, 3346, 3351, 3352, 3336, 3340, 3328, 3345, 3368, 3336, 3360, 3344, 3374, 3326, 3356, 3381, 3344, 3329, 3369, 3382, 3399, 3415, 3395, 3371, 3399, 3429, 3339, 3342, 3353, 3355, 3374, 3361, 3358, 3317, 3250, 3260, 3288, 3271, 3295, 3257, 3266, 3260, 3251, 3251, 3287, 3275, 3289, 3311, 3293, 3288, 3305, 3315, 3323, 3321, 3314, 3318, 3324, 3332, 3352, 3339, 3337, 3338, 3344, 3339, 3301, 3330, 3356, 3314, 3326, 3342, 3350, 3350, 3346, 3367, 3346, 3326, 3319, 3320, 3323, 3337, 3371, 3320, 3318, 3312, 3336, 3327, 3337, 3330, 3298, 3314, 3344, 3305, 3309, 3308, 3350, 3335, 3347, 3330, 3431, 3313, 3350, 3419, 3400, 3408, 3378, 3397, 3343, 3320, 3323, 3350, 3333, 3330, 3325, 3346, 3382, 3350, 3338, 3339, 3356, 3345, 3344, 3342, 3359, 3340, 3348, 3347, 3362, 3344, 3342, 3338, 3347, 3333, 3315, 3341, 3362, 3381, 3376, 3374, 3333, 3311, 3325, 3320, 3352, 3342, 3332, 3341, 3331, 3351, 3326, 3345, 3330, 3347, 3368, 3394, 3342, 3333, 3329, 3356, 3340, 3326, 3355, 3350, 3337, 3321, 3324, 3329, 3324, 3362, 3353, 3315, 3333, 3353, 3351, 3355, 3347, 3341],
      "WindowCenter": [786.0, 784.0, 783.0, 783.0, 784.0, 784.0, 784.0, 784.0, 784.0, 784.0, 785.0, 785.0, 785.0, 783.0, 783.0, 783.0, 784.0, 784.0, 784.0, 785.0, 785.0, 786.0, 786.0, 785.0, 784.0, 784.0, 784.0, 785.0, 783.0, 783.0, 783.0, 784.0, 784.0, 785.0, 786.0, 786.0, 786.0, 785.0, 785.0, 785.0, 785.0, 784.0, 784.0, 785.0, 785.0, 784.0, 784.0, 784.0, 784.0, 784.0, 784.0, 785.0, 786.0, 785.0, 785.0, 785.0, 785.0, 785.0, 785.0, 786.0, 786.0, 785.0, 784.0, 784.0, 784.0, 784.0, 785.0, 785.0, 785.0, 783.0, 783.0, 784.0, 784.0, 783.0, 786.0, 786.0, 785.0, 784.0, 784.0, 785.0, 786.0, 785.0, 785.0, 785.0, 786.0, 785.0, 785.0, 785.0, 786.0, 786.0, 785.0, 784.0, 784.0, 784.0, 784.0, 784.0, 785.0, 785.0, 785.0, 784.0, 784.0, 783.0, 783.0, 783.0, 782.0, 782.0, 783.0, 784.0, 784.0, 783.0, 782.0, 782.0, 783.0, 783.0, 783.0, 783.0, 783.0, 783.0, 783.0, 783.0, 783.0, 783.0, 783.0, 783.0, 782.0, 782.0, 783.0, 783.0, 783.0, 783.0, 783.0, 782.0, 781.0, 781.0, 781.0, 782.0, 782.0, 782.0, 782.0, 782.0, 782.0, 782.0, 784.0, 784.0, 783.0, 783.0, 783.0, 784.0, 784.0, 783.0, 783.0, 783.0, 783.0, 781.0, 785.0, 783.0, 784.0, 784.0, 784.0, 785.0, 784.0, 784.0, 783.0, 783.0, 784.0, 784.0, 784.0, 783.0, 783.0, 782.0, 783.0, 784.0, 783.0, 782.0, 782.0, 782.0, 783.0, 784.0, 783.0, 783.0, 783.0, 784.0, 784.0, 783.0, 783.0, 783.0, 784.0, 784.0, 784.0, 784.0, 783.0, 783.0, 783.0, 783.0, 783.0, 783.0, 783.0, 782.0, 782.0, 782.0, 783.0, 782.0, 782.0, 782.0, 781.0, 781.0, 782.0, 782.0, 782.0, 783.0, 784.0, 784.0, 784.0, 784.0, 784.0, 783.0, 784.0, 783.0, 782.0, 782.0, 781.0, 781.0, 780.0, 781.0, 782.0, 782.0, 782.0, 783.0, 784.0, 783.0, 782.0, 782.0],
      "WindowWidth": [1719.0, 1711.0, 1709.0, 1709.0, 1711.0, 1710.0, 1711.0, 1711.0, 1711.0, 1711.0, 1712.0, 1713.0, 1712.0, 1708.0, 1708.0, 1709.0, 1712.0, 1711.0, 1711.0, 1714.0, 1715.0, 1715.0, 1715.0, 1713.0, 1712.0, 1710.0, 1712.0, 1712.0, 1709.0, 1708.0, 1709.0, 1710.0, 1710.0, 1712.0, 1715.0, 1715.0, 1716.0, 1713.0, 1712.0, 1712.0, 1713.0, 1712.0, 1711.0, 1713.0, 1713.0, 1711.0, 1711.0, 1711.0, 1711.0, 1710.0, 1712.0, 1714.0, 1715.0, 1713.0, 1712.0, 1712.0, 1712.0, 1712.0, 1714.0, 1715.0, 1714.0, 1713.0, 1711.0, 1711.0, 1710.0, 1709.0, 1713.0, 1714.0, 1713.0, 1707.0, 1708.0, 1710.0, 1711.0, 1708.0, 1715.0, 1715.0, 1713.0, 1711.0, 1710.0, 1712.0, 1715.0, 1714.0, 1712.0, 1713.0, 1715.0, 1713.0, 1714.0, 1713.0, 1715.0, 1714.0, 1711.0, 1709.0, 1710.0, 1709.0, 1709.0, 1709.0, 1712.0, 1713.0, 1712.0, 1711.0, 1709.0, 1707.0, 1705.0, 1707.0, 1705.0, 1703.0, 1706.0, 1710.0, 1708.0, 1705.0, 1703.0, 1704.0, 1705.0, 1705.0, 1705.0, 1705.0, 1705.0, 1705.0, 1706.0, 1707.0, 1706.0, 1706.0, 1707.0, 1706.0, 1704.0, 1705.0, 1706.0, 1707.0, 1706.0, 1706.0, 1706.0, 1704.0, 1701.0, 1702.0, 1701.0, 1703.0, 1704.0, 1704.0, 1704.0, 1703.0, 1704.0, 1704.0, 1708.0, 1709.0, 1706.0, 1705.0, 1706.0, 1707.0, 1708.0, 1706.0, 1707.0, 1705.0, 1705.0, 1701.0, 1712.0, 1705.0, 1708.0, 1710.0, 1709.0, 1711.0, 1709.0, 1709.0, 1705.0, 1707.0, 1710.0, 1710.0, 1708.0, 1706.0, 1705.0, 1705.0, 1706.0, 1708.0, 1707.0, 1704.0, 1703.0, 1704.0, 1706.0, 1708.0, 1707.0, 1706.0, 1706.0, 1708.0, 1708.0, 1707.0, 1707.0, 1706.0, 1708.0, 1710.0, 1709.0, 1708.0, 1707.0, 1706.0, 1705.0, 1705.0, 1706.0, 1707.0, 1706.0, 1704.0, 1704.0, 1704.0, 1705.0, 1704.0, 1702.0, 1702.0, 1701.0, 1700.0, 1702.0, 1703.0, 1704.0, 1707.0, 1709.0, 1710.0, 1710.0, 1709.0, 1707.0, 1706.0, 1707.0, 1706.0, 1704.0, 1703.0, 1701.0, 1699.0, 1698.0, 1701.0, 1702.0, 1704.0, 1702.0, 1705.0, 1708.0, 1707.0, 1703.0, 1703.0]
    },
    "slices": {}
  }
}