{
  "AcquisitionMatrixPE": 100,
  "AcquisitionNumber": 1,
  "AcquisitionTime": "09:16:45.157500",
  "BandwidthPerPixelPhaseEncode": 18.519,
  "BaseResolution": 100,
  "BodyPartExamined": "BRAIN",
  "ConsistencyInfo": "N4_VE11C_LATEST_20160120",
  "ConversionSoftware": "dcm2niix",
  "ConversionSoftwareVersion": "v1.0.20180622 GCC4.9.2",
  "DerivedVendorReportedEchoSpacing": 0.000539986,
  "DeviceSerialNumber": "166078",
  "DwellTime": 2.1e-06,
  "EchoTime": 0.034,
  "EchoTrainLength": 100,
  "EffectiveEchoSpacing": 0.000539986,
  "FlipAngle": 90,
  "ImageOrientationPatientDICOM": [0.999816, 0.000402034, 0.019189, -6.79705e-09, 0.999781, -0.0209463],
  "ImageType": [
    "ORIGINAL",
    "PRIMARY",
    "M",
    "ND",
    "MOSAIC"
],
  "InPlanePhaseEncodingDirectionDICOM": "COL",
  "InstitutionAddress": "Street_StreetNo_Bei_Jing_District_CN_ZIP",
  "InstitutionName": "BeiJing_Normal_University",
  "InstitutionalDepartmentName": "Department",
  "MRAcquisitionType": "2D",
  "MagneticFieldStrength": 3,
  "Manufacturer": "Siemens",
  "ManufacturersModelName": "Prisma",
  "Modality": "MR",
  "MultibandAccelerationFactor": 3,
  "PartialFourier": 1,
  "PatientPosition": "HFS",
  "PercentPhaseFOV": 100,
  "PhaseEncodingDirection": "j-",
  "PhaseEncodingSteps": 100,
  "PhaseResolution": 1,
  "PixelBandwidth": 2380,
  "ProcedureStepDescription": "BNU_P2018_64CH_Liu.Jia",
  "ProtocolName": "bold_100x100_s3_2x2x2_232",
  "PulseSequenceDetails": "%SiemensSeq%_ep2d_bold",
  "ReceiveCoilActiveElements": "HC1-7;NC1",
  "ReceiveCoilName": "HeadNeck_64",
  "ReconMatrixPE": 100,
  "RepetitionTime": 2,
  "SAR": 0.0820001,
  "ScanOptions": "FS",
  "ScanningSequence": "EP",
  "SequenceName": "_epfid2d1_100",
  "SequenceVariant": "SK",
  "SeriesDescription": "bold_100x100_s3_2x2x2_232",
  "SeriesNumber": 4,
  "ShimSetting": [-5462, -11519, -1256, 282, 7, -178, -159, 28],
  "SliceThickness": 2,
  "SliceTiming": [1.485, 0, 0.99, 0.0825, 1.0725, 0.165, 1.155, 0.2475, 1.2375, 0.33, 1.32, 0.4125, 1.4025, 0.5775, 1.5675, 0.66, 1.65, 0.7425, 1.7325, 0.825, 1.815, 0.9075, 1.8975, 0.495, 1.485, 0, 0.99, 0.0825, 1.0725, 0.165, 1.155, 0.2475, 1.2375, 0.33, 1.32, 0.4125, 1.4025, 0.5775, 1.5675, 0.66, 1.65, 0.7425, 1.7325, 0.825, 1.815, 0.9075, 1.8975, 0.495, 1.485, 0, 0.99, 0.0825, 1.0725, 0.165, 1.155, 0.2475, 1.2375, 0.33, 1.32, 0.4125, 1.4025, 0.5775, 1.5675, 0.66, 1.65, 0.7425, 1.7325, 0.825, 1.815, 0.9075, 1.8975, 0.495],
  "SoftwareVersions": "syngo_MR_E11",
  "SpacingBetweenSlices": 2,
  "StationName": "AWP166078",
  "TaskName": "motor",
  "TotalReadoutTime": 0.0534586,
  "TxRefAmp": 215.029,
  "dcmmeta_affine": [
    [-1.999631643295288, -1.3594108061454335e-08, 0.03838646411895752, 98.61762237548828],
    [-0.0008040671236813068, 1.9995611906051636, -0.04188483953475952, -89.53572082519531],
    [0.0383780412375927, 0.041892554610967636, 1.9991929531097412, -58.86586380004883],
    [0.0, 0.0, 0.0, 1.0]
],
  "dcmmeta_reorient_transform": [
    [0.0, -1.0, 0.0, 99.0],
    [1.0, 0.0, 0.0, 0.0],
    [0.0, 0.0, 1.0, 0.0],
    [0.0, 0.0, 0.0, 1.0]
],
  "dcmmeta_shape": [100, 100, 72, 232],
  "dcmmeta_slice_dim": 2,
  "dcmmeta_version": 0.6,
  "global": {
    "const": {
      "AcquisitionMatrix": [100, 0, 0, 100],
      "AngioFlag": "N",
      "BitsAllocated": 16,
      "BitsStored": 12,
      "BodyPartExamined": "BRAIN",
      "Columns": 900,
      "EchoNumbers": 1,
      "EchoTime": 34.0,
      "EchoTrainLength": 100,
      "FlipAngle": 90.0,
      "HighBit": 11,
      "ImageOrientationPatient": [0.99981579296389, 0.00040203355662, 0.01918902053286, -6.797054e-09, 0.99978060265455, -0.0209462778484],
      "ImagePositionPatient": [-898.47024776088, -908.56694712924, -53.312694490203],
      "ImageType": [
        "ORIGINAL",
        "PRIMARY",
        "M",
        "ND",
        "MOSAIC"
],
      "ImagedNucleus": "1H",
      "ImagingFrequency": 123.257789,
      "InPlanePhaseEncodingDirection": "COL",
      "MRAcquisitionType": "2D",
      "MagneticFieldStrength": 3.0,
      "Manufacturer": "SIEMENS",
      "ManufacturerModelName": "Prisma",
      "Modality": "MR",
      "NumberOfAverages": 1.0,
      "NumberOfPhaseEncodingSteps": 100,
      "PercentPhaseFieldOfView": 100.0,
      "PercentSampling": 100.0,
      "PerformedProcedureStepStartTime": "090424.111000",
      "PhotometricInterpretation": "MONOCHROME2",
      "PixelBandwidth": 2380.0,
      "PixelRepresentation": 0,
      "PixelSpacing": [2.0, 2.0],
      "ProtocolName": "bold_100x100_s3_2x2x2_232",
      "RepetitionTime": 2000.0,
      "Rows": 900,
      "SAR": 0.08200012963868,
      "SamplesPerPixel": 1,
      "ScanOptions": "FS",
      "ScanningSequence": "EP",
      "SequenceName": "*epfid2d1_100",
      "SequenceVariant": "SK",
      "SeriesDescription": "bold_100x100_s3_2x2x2_232",
      "SeriesNumber": 4,
      "SeriesTime": "091648.237000",
      "SliceLocation": -55.074221777798,
      "SliceThickness": 2.0,
      "SmallestImagePixelValue": 0,
      "SoftwareVersions": "syngo MR E11",
      "SpacingBetweenSlices": 2.0000000239628,
      "SpecificCharacterSet": "ISO_IR 100",
      "StudyID": "1",
      "StudyTime": "090423.971000",
      "TransmitCoilName": "Body",
      "VariableFlipAngleFlag": "N",
      "WindowCenterWidthExplanation": "Algo1",
      "dBdt": 0.0},
    "slices": {}
  },
  "time": {
    "samples": {
      "AcquisitionNumber": [1, 2, 3, 4, 5, 6, 7, 8, 9, 10, 11, 12, 13, 14, 15, 16, 17, 18, 19, 20, 21, 22, 23, 24, 25, 26, 27, 28, 29, 30, 31, 32, 33, 34, 35, 36, 37, 38, 39, 40, 41, 42, 43, 44, 45, 46, 47, 48, 49, 50, 51, 52, 53, 54, 55, 56, 57, 58, 59, 60, 61, 62, 63, 64, 65, 66, 67, 68, 69, 70, 71, 72, 73, 74, 75, 76, 77, 78, 79, 80, 81, 82, 83, 84, 85, 86, 87, 88, 89, 90, 91, 92, 93, 94, 95, 96, 97, 98, 99, 100, 101, 102, 103, 104, 105, 106, 107, 108, 109, 110, 111, 112, 113, 114, 115, 116, 117, 118, 119, 120, 121, 122, 123, 124, 125, 126, 127, 128, 129, 130, 131, 132, 133, 134, 135, 136, 137, 138, 139, 140, 141, 142, 143, 144, 145, 146, 147, 148, 149, 150, 151, 152, 153, 154, 155, 156, 157, 158, 159, 160, 161, 162, 163, 164, 165, 166, 167, 168, 169, 170, 171, 172, 173, 174, 175, 176, 177, 178, 179, 180, 181, 182, 183, 184, 185, 186, 187, 188, 189, 190, 191, 192, 193, 194, 195, 196, 197, 198, 199, 200, 201, 202, 203, 204, 205, 206, 207, 208, 209, 210, 211, 212, 213, 214, 215, 216, 217, 218, 219, 220, 221, 222, 223, 224, 225, 226, 227, 228, 229, 230, 231, 232],
      "AcquisitionTime": ["091645.157500", "091647.157500", "091649.157500", "091651.157500", "091653.157500", "091655.157500", "091657.157500", "091659.157500", "091701.157500", "091703.157500", "091705.157500", "091707.157500", "091709.157500", "091711.157500", "091713.157500", "091715.157500", "091717.157500", "091719.157500", "091721.157500", "091723.157500", "091725.157500", "091727.157500", "091729.157500", "091731.157500", "091733.157500", "091735.157500", "091737.157500", "091739.157500", "091741.157500", "091743.157500", "091745.157500", "091747.157500", "091749.157500", "091751.157500", "091753.157500", "091755.157500", "091757.157500", "091759.157500", "091801.157500", "091803.157500", "091805.157500", "091807.157500", "091809.157500", "091811.157500", "091813.157500", "091815.157500", "091817.157500", "091819.157500", "091821.157500", "091823.157500", "091825.157500", "091827.157500", "091829.157500", "091831.157500", "091833.157500", "091835.157500", "091837.157500", "091839.157500", "091841.157500", "091843.157500", "091845.157500", "091847.157500", "091849.157500", "091851.157500", "091853.157500", "091855.157500", "091857.157500", "091859.157500", "091901.157500", "091903.157500", "091905.157500", "091907.157500", "091909.157500", "091911.157500", "091913.157500", "091915.157500", "091917.157500", "091919.157500", "091921.157500", "091923.157500", "091925.157500", "091927.157500", "091929.157500", "091931.157500", "091933.157500", "091935.157500", "091937.157500", "091939.157500", "091941.157500", "091943.157500", "091945.157500", "091947.157500", "091949.157500", "091951.157500", "091953.157500", "091955.157500", "091957.157500", "091959.157500", "092001.157500", "092003.157500", "092005.157500", "092007.157500", "092009.157500", "092011.157500", "092013.157500", "092015.157500", "092017.157500", "092019.157500", "092021.157500", "092023.157500", "092025.157500", "092027.157500", "092029.157500", "092031.157500", "092033.157500", "092035.157500", "092037.157500", "092039.157500", "092041.157500", "092043.157500", "092045.157500", "092047.157500", "092049.157500", "092051.157500", "092053.157500", "092055.157500", "092057.157500", "092059.157500", "092101.157500", "092103.157500", "092105.157500", "092107.157500", "092109.157500", "092111.157500", "092113.157500", "092115.157500", "092117.157500", "092119.157500", "092121.157500", "092123.157500", "092125.157500", "092127.157500", "092129.157500", "092131.157500", "092133.157500", "092135.157500", "092137.157500", "092139.157500", "092141.157500", "092143.157500", "092145.157500", "092147.157500", "092149.157500", "092151.157500", "092153.157500", "092155.157500", "092157.157500", "092159.157500", "092201.157500", "092203.157500", "092205.157500", "092207.157500", "092209.157500", "092211.157500", "092213.157500", "092215.157500", "092217.157500", "092219.157500", "092221.157500", "092223.157500", "092225.157500", "092227.157500", "092229.157500", "092231.157500", "092233.157500", "092235.157500", "092237.157500", "092239.157500", "092241.157500", "092243.157500", "092245.157500", "092247.157500", "092249.157500", "092251.157500", "092253.157500", "092255.157500", "092257.157500", "092259.157500", "092301.157500", "092303.157500", "092305.157500", "092307.157500", "092309.157500", "092311.157500", "092313.157500", "092315.157500", "092317.157500", "092319.157500", "092321.157500", "092323.157500", "092325.157500", "092327.157500", "092329.157500", "092331.157500", "092333.157500", "092335.157500", "092337.157500", "092339.157500", "092341.157500", "092343.157500", "092345.157500", "092347.157500", "092349.157500", "092351.157500", "092353.157500", "092355.157500", "092357.157500", "092359.157500", "092401.157500", "092403.157500", "092405.157500", "092407.157500", "092409.157500", "092411.157500", "092413.157500", "092415.157500", "092417.157500", "092419.157500", "092421.157500", "092423.157500", "092425.157500", "092427.157500"],
      "ContentTime": ["091648.240000", "091649.726000", "091651.726000", "091653.726000", "091655.727000", "091657.727000", "091659.726000", "091701.726000", "091703.727000", "091705.726000", "091707.726000", "091709.726000", "091711.727000", "091713.727000", "091715.726000", "091717.727000", "091719.726000", "091721.726000", "091723.726000", "091725.726000", "091727.726000", "091729.726000", "091731.727000", "091733.727000", "091735.726000", "091737.727000", "091739.726000", "091741.727000", "091743.726000", "091745.726000", "091747.727000", "091749.727000", "091751.727000", "091753.727000", "091755.726000", "091757.726000", "091759.726000", "091801.726000", "091803.727000", "091805.726000", "091807.726000", "091809.726000", "091811.726000", "091813.726000", "091815.726000", "091817.726000", "091819.726000", "091821.727000", "091823.727000", "091825.726000", "091827.726000", "091829.727000", "091831.726000", "091833.727000", "091835.726000", "091837.727000", "091839.726000", "091841.726000", "091843.726000", "091845.726000", "091847.727000", "091849.727000", "091851.726000", "091853.726000", "091855.726000", "091857.726000", "091859.726000", "091901.726000", "091903.726000", "091905.726000", "091907.726000", "091909.726000", "091911.727000", "091913.726000", "091915.726000", "091917.726000", "091919.726000", "091921.726000", "091923.726000", "091925.726000", "091927.726000", "091929.727000", "091931.727000", "091933.727000", "091935.726000", "091937.727000", "091939.726000", "091941.726000", "091943.726000", "091945.727000", "091947.726000", "091949.726000", "091951.726000", "091953.726000", "091955.726000", "091957.726000", "091959.727000", "092001.726000", "092003.726000", "092005.726000", "092007.726000", "092009.727000", "092011.726000", "092013.726000", "092015.726000", "092017.727000", "092019.726000", "092021.726000", "092023.727000", "092025.727000", "092027.726000", "092029.726000", "092031.727000", "092033.726000", "092035.726000", "092037.726000", "092039.726000", "092041.726000", "092043.726000", "092045.726000", "092047.727000", "092049.726000", "092051.726000", "092053.726000", "092055.726000", "092057.726000", "092059.726000", "092101.727000", "092103.727000", "092105.727000", "092107.726000", "092109.727000", "092111.726000", "092113.726000", "092115.726000", "092117.726000", "092119.726000", "092121.727000", "092123.726000", "092125.726000", "092127.727000", "092129.726000", "092131.727000", "092133.727000", "092135.726000", "092137.726000", "092139.727000", "092141.726000", "092143.727000", "092145.726000", "092147.727000", "092149.727000", "092151.726000", "092153.727000", "092155.726000", "092157.727000", "092159.726000", "092201.727000", "092203.726000", "092205.727000", "092207.727000", "092209.726000", "092211.727000", "092213.727000", "092215.726000", "092217.727000", "092219.727000", "092221.726000", "092223.726000", "092225.727000", "092227.726000", "092229.727000", "092231.726000", "092233.727000", "092235.726000", "092237.726000", "092239.739000", "092241.726000", "092243.726000", "092245.727000", "092247.727000", "092249.727000", "092251.727000", "092253.726000", "092255.726000", "092257.726000", "092259.727000", "092301.726000", "092303.727000", "092305.726000", "092307.727000", "092309.726000", "092311.726000", "092313.726000", "092315.726000", "092317.727000", "092319.727000", "092321.727000", "092323.726000", "092325.727000", "092327.726000", "092329.726000", "092331.727000", "092333.727000", "092335.727000", "092337.726000", "092339.726000", "092341.727000", "092343.727000", "092345.727000", "092347.726000", "092349.726000", "092351.726000", "092353.727000", "092355.726000", "092357.726000", "092359.726000", "092401.728000", "092403.726000", "092405.726000", "092407.727000", "092409.726000", "092411.726000", "092413.726000", "092415.727000", "092417.726000", "092419.726000", "092421.727000", "092423.726000", "092425.727000", "092427.726000", "092429.357000"],
      "InstanceCreationTime": ["091648.240000", "091649.726000", "091651.726000", "091653.726000", "091655.727000", "091657.727000", "091659.726000", "091701.726000", "091703.727000", "091705.726000", "091707.726000", "091709.726000", "091711.727000", "091713.727000", "091715.726000", "091717.727000", "091719.726000", "091721.726000", "091723.726000", "091725.726000", "091727.726000", "091729.726000", "091731.727000", "091733.727000", "091735.726000", "091737.727000", "091739.726000", "091741.727000", "091743.726000", "091745.726000", "091747.727000", "091749.727000", "091751.727000", "091753.727000", "091755.726000", "091757.726000", "091759.726000", "091801.726000", "091803.727000", "091805.726000", "091807.726000", "091809.726000", "091811.726000", "091813.726000", "091815.726000", "091817.726000", "091819.726000", "091821.727000", "091823.727000", "091825.726000", "091827.726000", "091829.727000", "091831.726000", "091833.727000", "091835.726000", "091837.727000", "091839.726000", "091841.726000", "091843.726000", "091845.726000", "091847.727000", "091849.727000", "091851.726000", "091853.726000", "091855.726000", "091857.726000", "091859.726000", "091901.726000", "091903.726000", "091905.726000", "091907.726000", "091909.726000", "091911.727000", "091913.726000", "091915.726000", "091917.726000", "091919.726000", "091921.726000", "091923.726000", "091925.726000", "091927.726000", "091929.727000", "091931.727000", "091933.727000", "091935.726000", "091937.727000", "091939.726000", "091941.726000", "091943.726000", "091945.727000", "091947.726000", "091949.726000", "091951.726000", "091953.726000", "091955.726000", "091957.726000", "091959.727000", "092001.726000", "092003.726000", "092005.726000", "092007.726000", "092009.727000", "092011.726000", "092013.726000", "092015.726000", "092017.727000", "092019.726000", "092021.726000", "092023.727000", "092025.727000", "092027.726000", "092029.726000", "092031.727000", "092033.726000", "092035.726000", "092037.726000", "092039.726000", "092041.726000", "092043.726000", "092045.726000", "092047.727000", "092049.726000", "092051.726000", "092053.726000", "092055.726000", "092057.726000", "092059.726000", "092101.727000", "092103.727000", "092105.727000", "092107.726000", "092109.727000", "092111.726000", "092113.726000", "092115.726000", "092117.726000", "092119.726000", "092121.727000", "092123.726000", "092125.726000", "092127.727000", "092129.726000", "092131.727000", "092133.727000", "092135.726000", "092137.726000", "092139.727000", "092141.726000", "092143.727000", "092145.726000", "092147.727000", "092149.727000", "092151.726000", "092153.727000", "092155.726000", "092157.727000", "092159.726000", "092201.727000", "092203.726000", "092205.727000", "092207.727000", "092209.726000", "092211.727000", "092213.727000", "092215.726000", "092217.727000", "092219.727000", "092221.726000", "092223.726000", "092225.727000", "092227.726000", "092229.727000", "092231.726000", "092233.727000", "092235.726000", "092237.726000", "092239.739000", "092241.726000", "092243.726000", "092245.727000", "092247.727000", "092249.727000", "092251.727000", "092253.726000", "092255.726000", "092257.726000", "092259.727000", "092301.726000", "092303.727000", "092305.726000", "092307.727000", "092309.726000", "092311.726000", "092313.726000", "092315.726000", "092317.727000", "092319.727000", "092321.727000", "092323.726000", "092325.727000", "092327.726000", "092329.726000", "092331.727000", "092333.727000", "092335.727000", "092337.726000", "092339.726000", "092341.727000", "092343.727000", "092345.727000", "092347.726000", "092349.726000", "092351.726000", "092353.727000", "092355.726000", "092357.726000", "092359.726000", "092401.728000", "092403.726000", "092405.726000", "092407.727000", "092409.726000", "092411.726000", "092413.726000", "092415.727000", "092417.726000", "092419.726000", "092421.727000", "092423.726000", "092425.727000", "092427.726000", "092429.357000"],
      "InstanceNumber": [1, 2, 3, 4, 5, 6, 7, 8, 9, 10, 11, 12, 13, 14, 15, 16, 17, 18, 19, 20, 21, 22, 23, 24, 25, 26, 27, 28, 29, 30, 31, 32, 33, 34, 35, 36, 37, 38, 39, 40, 41, 42, 43, 44, 45, 46, 47, 48, 49, 50, 51, 52, 53, 54, 55, 56, 57, 58, 59, 60, 61, 62, 63, 64, 65, 66, 67, 68, 69, 70, 71, 72, 73, 74, 75, 76, 77, 78, 79, 80, 81, 82, 83, 84, 85, 86, 87, 88, 89, 90, 91, 92, 93, 94, 95, 96, 97, 98, 99, 100, 101, 102, 103, 104, 105, 106, 107, 108, 109, 110, 111, 112, 113, 114, 115, 116, 117, 118, 119, 120, 121, 122, 123, 124, 125, 126, 127, 128, 129, 130, 131, 132, 133, 134, 135, 136, 137, 138, 139, 140, 141, 142, 143, 144, 145, 146, 147, 148, 149, 150, 151, 152, 153, 154, 155, 156, 157, 158, 159, 160, 161, 162, 163, 164, 165, 166, 167, 168, 169, 170, 171, 172, 173, 174, 175, 176, 177, 178, 179, 180, 181, 182, 183, 184, 185, 186, 187, 188, 189, 190, 191, 192, 193, 194, 195, 196, 197, 198, 199, 200, 201, 202, 203, 204, 205, 206, 207, 208, 209, 210, 211, 212, 213, 214, 215, 216, 217, 218, 219, 220, 221, 222, 223, 224, 225, 226, 227, 228, 229, 230, 231, 232],
      "LargestImagePixelValue": [3489, 3420, 3350, 3361, 3369, 3344, 3345, 3356, 3351, 3334, 3346, 3337, 3336, 3329, 3323, 3353, 3335, 3332, 3333, 3337, 3327, 3325, 3367, 3326, 3343, 3386, 3329, 3342, 3346, 3381, 3372, 3378, 3361, 3337, 3350, 3376, 3373, 3375, 3379, 3358, 3345, 3382, 3396, 3385, 3371, 3343, 3355, 3332, 3376, 3358, 3369, 3353, 3337, 3335, 3354, 3374, 3385, 3384, 3371, 3351, 3371, 3378, 3391, 3352, 3346, 3340, 3378, 3343, 3359, 3342, 3357, 3356, 3348, 3355, 3301, 3316, 3321, 3346, 3360, 3339, 3350, 3364, 3368, 3330, 3347, 3351, 3354, 3349, 3355, 3358, 3353, 3358, 3351, 3329, 3345, 3375, 3353, 3349, 3360, 3324, 3351, 3366, 3365, 3382, 3364, 3383, 3366, 3363, 3361, 3326, 3384, 3365, 3357, 3374, 3358, 3359, 3365, 3364, 3371, 3366, 3351, 3373, 3391, 3351, 3327, 3362, 3355, 3349, 3361, 3369, 3358, 3380, 3395, 3399, 3418, 3403, 3424, 3441, 3420, 3392, 3366, 3365, 3376, 3376, 3365, 3361, 3369, 3362, 3376, 3371, 3346, 3330, 3321, 3349, 3343, 3321, 3350, 3335, 3353, 3350, 3374, 3372, 3384, 3385, 3370, 3382, 3377, 3349, 3355, 3363, 3372, 3357, 3350, 3356, 3380, 3360, 3390, 3349, 3362, 3347, 3362, 3382, 3355, 3343, 3372, 3378, 3359, 3354, 3343, 3348, 3352, 3358, 3358, 3380, 3343, 3364, 3362, 3341, 3364, 3346, 3353, 3380, 3361, 3365, 3335, 3350, 3358, 3399, 3357, 3350, 3389, 3333, 3359, 3361, 3366, 3368, 3404, 3394, 3398, 3407, 3373, 3409, 3402, 3405, 3418, 3425, 3416, 3399, 3398, 3395, 3376, 3392],
      "WindowCenter": [786.0, 784.0, 782.0, 782.0, 782.0, 782.0, 783.0, 783.0, 784.0, 783.0, 784.0, 784.0, 784.0, 784.0, 783.0, 783.0, 783.0, 782.0, 783.0, 784.0, 784.0, 783.0, 783.0, 782.0, 783.0, 784.0, 784.0, 784.0, 783.0, 783.0, 783.0, 783.0, 784.0, 784.0, 785.0, 785.0, 785.0, 785.0, 785.0, 785.0, 785.0, 784.0, 784.0, 784.0, 784.0, 784.0, 784.0, 784.0, 784.0, 784.0, 784.0, 785.0, 785.0, 784.0, 784.0, 784.0, 784.0, 785.0, 785.0, 785.0, 784.0, 784.0, 784.0, 784.0, 784.0, 783.0, 783.0, 783.0, 782.0, 782.0, 782.0, 782.0, 782.0, 784.0, 785.0, 786.0, 785.0, 785.0, 784.0, 783.0, 783.0, 782.0, 782.0, 783.0, 783.0, 783.0, 782.0, 781.0, 782.0, 782.0, 783.0, 783.0, 784.0, 783.0, 783.0, 783.0, 783.0, 784.0, 784.0, 783.0, 783.0, 783.0, 783.0, 783.0, 784.0, 783.0, 783.0, 783.0, 783.0, 782.0, 783.0, 783.0, 783.0, 782.0, 782.0, 784.0, 784.0, 784.0, 784.0, 783.0, 783.0, 783.0, 783.0, 784.0, 783.0, 783.0, 783.0, 784.0, 784.0, 782.0, 784.0, 784.0, 784.0, 785.0, 784.0, 784.0, 784.0, 784.0, 783.0, 783.0, 782.0, 783.0, 783.0, 782.0, 782.0, 781.0, 782.0, 783.0, 784.0, 784.0, 783.0, 783.0, 783.0, 783.0, 783.0, 782.0, 782.0, 782.0, 783.0, 783.0, 782.0, 781.0, 781.0, 781.0, 781.0, 782.0, 782.0, 781.0, 780.0, 781.0, 781.0, 782.0, 783.0, 783.0, 783.0, 783.0, 783.0, 782.0, 782.0, 781.0, 781.0, 782.0, 782.0, 782.0, 784.0, 783.0, 783.0, 783.0, 782.0, 782.0, 782.0, 782.0, 782.0, 783.0, 783.0, 784.0, 784.0, 784.0, 783.0, 782.0, 781.0, 782.0, 782.0, 783.0, 782.0, 782.0, 780.0, 782.0, 782.0, 783.0, 782.0, 782.0, 783.0, 783.0, 783.0, 782.0, 782.0, 782.0, 783.0, 783.0, 783.0, 783.0, 783.0, 782.0, 782.0, 782.0, 782.0, 783.0, 783.0, 782.0, 782.0, 783.0],
      "WindowWidth": [1719.0, 1710.0, 1706.0, 1705.0, 1706.0, 1706.0, 1707.0, 1708.0, 1709.0, 1709.0, 1710.0, 1710.0, 1710.0, 1710.0, 1708.0, 1708.0, 1707.0, 1705.0, 1708.0, 1711.0, 1710.0, 1707.0, 1707.0, 1706.0, 1707.0, 1710.0, 1710.0, 1711.0, 1708.0, 1707.0, 1707.0, 1709.0, 1710.0, 1712.0, 1712.0, 1713.0, 1713.0, 1712.0, 1714.0, 1714.0, 1713.0, 1712.0, 1711.0, 1711.0, 1710.0, 1711.0, 1711.0, 1710.0, 1710.0, 1711.0, 1711.0, 1713.0, 1713.0, 1712.0, 1711.0, 1711.0, 1711.0, 1712.0, 1712.0, 1712.0, 1711.0, 1710.0, 1711.0, 1710.0, 1709.0, 1708.0, 1707.0, 1707.0, 1706.0, 1705.0, 1705.0, 1706.0, 1705.0, 1709.0, 1712.0, 1714.0, 1714.0, 1712.0, 1709.0, 1708.0, 1707.0, 1705.0, 1705.0, 1707.0, 1708.0, 1708.0, 1704.0, 1703.0, 1704.0, 1705.0, 1707.0, 1709.0, 1710.0, 1709.0, 1709.0, 1709.0, 1708.0, 1710.0, 1711.0, 1709.0, 1707.0, 1708.0, 1707.0, 1709.0, 1710.0, 1709.0, 1707.0, 1709.0, 1707.0, 1706.0, 1708.0, 1707.0, 1708.0, 1705.0, 1706.0, 1709.0, 1711.0, 1711.0, 1710.0, 1709.0, 1708.0, 1708.0, 1707.0, 1710.0, 1709.0, 1708.0, 1709.0, 1709.0, 1710.0, 1705.0, 1709.0, 1711.0, 1712.0, 1712.0, 1712.0, 1710.0, 1711.0, 1711.0, 1709.0, 1706.0, 1706.0, 1706.0, 1707.0, 1705.0, 1703.0, 1703.0, 1706.0, 1708.0, 1710.0, 1710.0, 1707.0, 1708.0, 1708.0, 1708.0, 1707.0, 1706.0, 1705.0, 1704.0, 1707.0, 1707.0, 1705.0, 1702.0, 1703.0, 1702.0, 1703.0, 1705.0, 1705.0, 1701.0, 1699.0, 1701.0, 1702.0, 1704.0, 1706.0, 1706.0, 1707.0, 1707.0, 1707.0, 1705.0, 1703.0, 1703.0, 1703.0, 1703.0, 1704.0, 1707.0, 1709.0, 1706.0, 1706.0, 1707.0, 1705.0, 1705.0, 1704.0, 1705.0, 1705.0, 1707.0, 1708.0, 1711.0, 1711.0, 1709.0, 1708.0, 1705.0, 1703.0, 1704.0, 1704.0, 1706.0, 1704.0, 1704.0, 1700.0, 1704.0, 1705.0, 1706.0, 1705.0, 1704.0, 1707.0, 1707.0, 1707.0, 1705.0, 1705.0, 1705.0, 1706.0, 1708.0, 1707.0, 1707.0, 1706.0, 1705.0, 1704.0, 1705.0, 1706.0, 1707.0, 1707.0, 1704.0, 1704.0, 1708.0]
    },
    "slices": {}
  }
}