{
  "AcquisitionMatrixPE": 100,
  "AcquisitionNumber": 1,
  "AcquisitionTime": "09:56:56.762500",
  "BandwidthPerPixelPhaseEncode": 18.519,
  "BaseResolution": 100,
  "BodyPartExamined": "BRAIN",
  "ConsistencyInfo": "N4_VE11C_LATEST_20160120",
  "ConversionSoftware": "dcm2niix",
  "ConversionSoftwareVersion": "v1.0.20180622 GCC4.9.2",
  "DerivedVendorReportedEchoSpacing": 0.000539986,
  "DeviceSerialNumber": "166078",
  "DwellTime": 2.1e-06,
  "EchoTime": 0.034,
  "EchoTrainLength": 100,
  "EffectiveEchoSpacing": 0.000539986,
  "FlipAngle": 90,
  "ImageOrientationPatientDICOM": [0.999816, 0.000402034, 0.019189, -6.79705e-09, 0.999781, -0.0209463],
  "ImageType": [
    "ORIGINAL",
    "PRIMARY",
    "M",
    "ND",
    "MOSAIC"
],
  "InPlanePhaseEncodingDirectionDICOM": "COL",
  "InstitutionAddress": "Street_StreetNo_Bei_Jing_District_CN_ZIP",
  "InstitutionName": "BeiJing_Normal_University",
  "InstitutionalDepartmentName": "Department",
  "MRAcquisitionType": "2D",
  "MagneticFieldStrength": 3,
  "Manufacturer": "Siemens",
  "ManufacturersModelName": "Prisma",
  "Modality": "MR",
  "MultibandAccelerationFactor": 3,
  "PartialFourier": 1,
  "PatientPosition": "HFS",
  "PercentPhaseFOV": 100,
  "PhaseEncodingDirection": "j-",
  "PhaseEncodingSteps": 100,
  "PhaseResolution": 1,
  "PixelBandwidth": 2380,
  "ProcedureStepDescription": "BNU_P2018_64CH_Liu.Jia",
  "ProtocolName": "bold_100x100_s3_2x2x2_232",
  "PulseSequenceDetails": "%SiemensSeq%_ep2d_bold",
  "ReceiveCoilActiveElements": "HC1-7;NC1",
  "ReceiveCoilName": "HeadNeck_64",
  "ReconMatrixPE": 100,
  "RepetitionTime": 2,
  "SAR": 0.0820001,
  "ScanOptions": "FS",
  "ScanningSequence": "EP",
  "SequenceName": "_epfid2d1_100",
  "SequenceVariant": "SK",
  "SeriesDescription": "bold_100x100_s3_2x2x2_232",
  "SeriesNumber": 11,
  "ShimSetting": [-5462, -11519, -1256, 282, 7, -178, -159, 28],
  "SliceThickness": 2,
  "SliceTiming": [1.485, 0, 0.99, 0.0825, 1.0725, 0.165, 1.155, 0.2475, 1.2375, 0.33, 1.32, 0.4125, 1.4025, 0.5775, 1.5675, 0.66, 1.65, 0.7425, 1.7325, 0.825, 1.815, 0.9075, 1.8975, 0.495, 1.485, 0, 0.99, 0.0825, 1.0725, 0.165, 1.155, 0.2475, 1.2375, 0.33, 1.32, 0.4125, 1.4025, 0.5775, 1.5675, 0.66, 1.65, 0.7425, 1.7325, 0.825, 1.815, 0.9075, 1.8975, 0.495, 1.485, 0, 0.99, 0.0825, 1.0725, 0.165, 1.155, 0.2475, 1.2375, 0.33, 1.32, 0.4125, 1.4025, 0.5775, 1.5675, 0.66, 1.65, 0.7425, 1.7325, 0.825, 1.815, 0.9075, 1.8975, 0.495],
  "SoftwareVersions": "syngo_MR_E11",
  "SpacingBetweenSlices": 2,
  "StationName": "AWP166078",
  "TaskName": "motor",
  "TotalReadoutTime": 0.0534586,
  "TxRefAmp": 215.029,
  "dcmmeta_affine": [
    [-1.999631643295288, -1.3594108061454335e-08, 0.03838646411895752, 98.61762237548828],
    [-0.0008040671236813068, 1.9995611906051636, -0.04188483953475952, -89.53572082519531],
    [0.0383780412375927, 0.041892554610967636, 1.9991929531097412, -58.86586380004883],
    [0.0, 0.0, 0.0, 1.0]
],
  "dcmmeta_reorient_transform": [
    [0.0, -1.0, 0.0, 99.0],
    [1.0, 0.0, 0.0, 0.0],
    [0.0, 0.0, 1.0, 0.0],
    [0.0, 0.0, 0.0, 1.0]
],
  "dcmmeta_shape": [100, 100, 72, 232],
  "dcmmeta_slice_dim": 2,
  "dcmmeta_version": 0.6,
  "global": {
    "const": {
      "AcquisitionMatrix": [100, 0, 0, 100],
      "AngioFlag": "N",
      "BitsAllocated": 16,
      "BitsStored": 12,
      "BodyPartExamined": "BRAIN",
      "Columns": 900,
      "EchoNumbers": 1,
      "EchoTime": 34.0,
      "EchoTrainLength": 100,
      "FlipAngle": 90.0,
      "HighBit": 11,
      "ImageOrientationPatient": [0.99981579296389, 0.00040203355662, 0.01918902053286, -6.797054e-09, 0.99978060265455, -0.0209462778484],
      "ImagePositionPatient": [-898.47024776088, -908.56694712924, -53.312694490203],
      "ImageType": [
        "ORIGINAL",
        "PRIMARY",
        "M",
        "ND",
        "MOSAIC"
],
      "ImagedNucleus": "1H",
      "ImagingFrequency": 123.257806,
      "InPlanePhaseEncodingDirection": "COL",
      "MRAcquisitionType": "2D",
      "MagneticFieldStrength": 3.0,
      "Manufacturer": "SIEMENS",
      "ManufacturerModelName": "Prisma",
      "Modality": "MR",
      "NumberOfAverages": 1.0,
      "NumberOfPhaseEncodingSteps": 100,
      "PercentPhaseFieldOfView": 100.0,
      "PercentSampling": 100.0,
      "PerformedProcedureStepStartTime": "090424.111000",
      "PhotometricInterpretation": "MONOCHROME2",
      "PixelBandwidth": 2380.0,
      "PixelRepresentation": 0,
      "PixelSpacing": [2.0, 2.0],
      "ProtocolName": "bold_100x100_s3_2x2x2_232",
      "RepetitionTime": 2000.0,
      "Rows": 900,
      "SAR": 0.08200012963868,
      "SamplesPerPixel": 1,
      "ScanOptions": "FS",
      "ScanningSequence": "EP",
      "SequenceName": "*epfid2d1_100",
      "SequenceVariant": "SK",
      "SeriesDescription": "bold_100x100_s3_2x2x2_232",
      "SeriesNumber": 11,
      "SeriesTime": "095659.124000",
      "SliceLocation": -55.074221777798,
      "SliceThickness": 2.0,
      "SmallestImagePixelValue": 0,
      "SoftwareVersions": "syngo MR E11",
      "SpacingBetweenSlices": 2.0000000239628,
      "SpecificCharacterSet": "ISO_IR 100",
      "StudyID": "1",
      "StudyTime": "090423.971000",
      "TransmitCoilName": "Body",
      "VariableFlipAngleFlag": "N",
      "WindowCenterWidthExplanation": "Algo1",
      "dBdt": 0.0},
    "slices": {}
  },
  "time": {
    "samples": {
      "AcquisitionNumber": [1, 2, 3, 4, 5, 6, 7, 8, 9, 10, 11, 12, 13, 14, 15, 16, 17, 18, 19, 20, 21, 22, 23, 24, 25, 26, 27, 28, 29, 30, 31, 32, 33, 34, 35, 36, 37, 38, 39, 40, 41, 42, 43, 44, 45, 46, 47, 48, 49, 50, 51, 52, 53, 54, 55, 56, 57, 58, 59, 60, 61, 62, 63, 64, 65, 66, 67, 68, 69, 70, 71, 72, 73, 74, 75, 76, 77, 78, 79, 80, 81, 82, 83, 84, 85, 86, 87, 88, 89, 90, 91, 92, 93, 94, 95, 96, 97, 98, 99, 100, 101, 102, 103, 104, 105, 106, 107, 108, 109, 110, 111, 112, 113, 114, 115, 116, 117, 118, 119, 120, 121, 122, 123, 124, 125, 126, 127, 128, 129, 130, 131, 132, 133, 134, 135, 136, 137, 138, 139, 140, 141, 142, 143, 144, 145, 146, 147, 148, 149, 150, 151, 152, 153, 154, 155, 156, 157, 158, 159, 160, 161, 162, 163, 164, 165, 166, 167, 168, 169, 170, 171, 172, 173, 174, 175, 176, 177, 178, 179, 180, 181, 182, 183, 184, 185, 186, 187, 188, 189, 190, 191, 192, 193, 194, 195, 196, 197, 198, 199, 200, 201, 202, 203, 204, 205, 206, 207, 208, 209, 210, 211, 212, 213, 214, 215, 216, 217, 218, 219, 220, 221, 222, 223, 224, 225, 226, 227, 228, 229, 230, 231, 232],
      "AcquisitionTime": ["095656.762500", "095658.762500", "095700.762500", "095702.762500", "095704.762500", "095706.762500", "095708.762500", "095710.762500", "095712.762500", "095714.762500", "095716.762500", "095718.762500", "095720.762500", "095722.762500", "095724.762500", "095726.762500", "095728.762500", "095730.762500", "095732.762500", "095734.762500", "095736.762500", "095738.762500", "095740.762500", "095742.762500", "095744.762500", "095746.762500", "095748.762500", "095750.762500", "095752.762500", "095754.762500", "095756.762500", "095758.762500", "095800.762500", "095802.762500", "095804.762500", "095806.762500", "095808.762500", "095810.762500", "095812.762500", "095814.762500", "095816.762500", "095818.762500", "095820.762500", "095822.762500", "095824.762500", "095826.762500", "095828.762500", "095830.762500", "095832.762500", "095834.762500", "095836.762500", "095838.762500", "095840.762500", "095842.762500", "095844.762500", "095846.762500", "095848.762500", "095850.762500", "095852.762500", "095854.762500", "095856.762500", "095858.762500", "095900.762500", "095902.762500", "095904.762500", "095906.762500", "095908.762500", "095910.762500", "095912.762500", "095914.762500", "095916.762500", "095918.762500", "095920.762500", "095922.762500", "095924.762500", "095926.762500", "095928.762500", "095930.762500", "095932.762500", "095934.762500", "095936.762500", "095938.762500", "095940.762500", "095942.762500", "095944.762500", "095946.762500", "095948.762500", "095950.762500", "095952.762500", "095954.762500", "095956.762500", "095958.762500", "100000.762500", "100002.762500", "100004.762500", "100006.762500", "100008.762500", "100010.762500", "100012.762500", "100014.762500", "100016.762500", "100018.762500", "100020.762500", "100022.762500", "100024.762500", "100026.762500", "100028.762500", "100030.762500", "100032.762500", "100034.762500", "100036.762500", "100038.762500", "100040.762500", "100042.762500", "100044.762500", "100046.762500", "100048.762500", "100050.762500", "100052.762500", "100054.762500", "100056.762500", "100058.762500", "100100.762500", "100102.762500", "100104.762500", "100106.762500", "100108.762500", "100110.762500", "100112.762500", "100114.762500", "100116.762500", "100118.762500", "100120.762500", "100122.762500", "100124.762500", "100126.762500", "100128.762500", "100130.762500", "100132.762500", "100134.762500", "100136.762500", "100138.762500", "100140.762500", "100142.762500", "100144.762500", "100146.762500", "100148.762500", "100150.762500", "100152.762500", "100154.762500", "100156.762500", "100158.762500", "100200.762500", "100202.762500", "100204.762500", "100206.762500", "100208.762500", "100210.762500", "100212.762500", "100214.762500", "100216.762500", "100218.762500", "100220.762500", "100222.762500", "100224.762500", "100226.762500", "100228.762500", "100230.762500", "100232.762500", "100234.762500", "100236.762500", "100238.762500", "100240.762500", "100242.762500", "100244.762500", "100246.762500", "100248.762500", "100250.762500", "100252.762500", "100254.762500", "100256.762500", "100258.762500", "100300.762500", "100302.762500", "100304.762500", "100306.762500", "100308.762500", "100310.762500", "100312.762500", "100314.762500", "100316.762500", "100318.762500", "100320.762500", "100322.762500", "100324.762500", "100326.762500", "100328.762500", "100330.762500", "100332.762500", "100334.762500", "100336.762500", "100338.762500", "100340.762500", "100342.762500", "100344.762500", "100346.762500", "100348.762500", "100350.762500", "100352.762500", "100354.762500", "100356.762500", "100358.762500", "100400.762500", "100402.762500", "100404.762500", "100406.762500", "100408.762500", "100410.762500", "100412.762500", "100414.762500", "100416.762500", "100418.762500", "100420.762500", "100422.762500", "100424.762500", "100426.762500", "100428.762500", "100430.762500", "100432.762500", "100434.762500", "100436.762500", "100438.762500"],
      "ContentTime": ["095659.128000", "095700.623000", "095702.623000", "095704.623000", "095706.622000", "095708.622000", "095710.622000", "095712.623000", "095714.623000", "095716.624000", "095718.623000", "095720.623000", "095722.622000", "095724.623000", "095726.622000", "095728.623000", "095730.622000", "095732.623000", "095734.623000", "095736.624000", "095738.623000", "095740.622000", "095742.622000", "095744.623000", "095746.623000", "095748.623000", "095750.623000", "095752.623000", "095754.623000", "095756.622000", "095758.622000", "095800.622000", "095802.622000", "095804.622000", "095806.622000", "095808.623000", "095810.623000", "095812.623000", "095814.622000", "095816.623000", "095818.622000", "095820.642000", "095822.622000", "095824.622000", "095826.623000", "095828.623000", "095830.623000", "095832.622000", "095834.623000", "095836.622000", "095838.622000", "095840.622000", "095842.623000", "095844.623000", "095846.623000", "095848.622000", "095850.623000", "095852.623000", "095854.623000", "095856.622000", "095858.622000", "095900.623000", "095902.624000", "095904.623000", "095906.622000", "095908.623000", "095910.622000", "095912.622000", "095914.623000", "095916.622000", "095918.624000", "095920.623000", "095922.623000", "095924.623000", "095926.622000", "095928.623000", "095930.622000", "095932.622000", "095934.622000", "095936.623000", "095938.625000", "095940.624000", "095942.622000", "095944.622000", "095946.622000", "095948.622000", "095950.622000", "095952.623000", "095954.623000", "095956.624000", "095958.622000", "100000.623000", "100002.623000", "100004.622000", "100006.622000", "100008.622000", "100010.623000", "100012.623000", "100014.623000", "100016.622000", "100018.623000", "100020.622000", "100022.622000", "100024.622000", "100026.622000", "100028.623000", "100030.623000", "100032.623000", "100034.622000", "100036.622000", "100038.622000", "100040.623000", "100042.622000", "100044.624000", "100046.623000", "100048.623000", "100050.623000", "100052.622000", "100054.622000", "100056.622000", "100058.622000", "100100.622000", "100102.624000", "100104.623000", "100106.623000", "100108.622000", "100110.623000", "100112.622000", "100114.622000", "100116.622000", "100118.622000", "100120.623000", "100122.623000", "100124.623000", "100126.622000", "100128.622000", "100130.623000", "100132.622000", "100134.622000", "100136.622000", "100138.623000", "100140.623000", "100142.623000", "100144.623000", "100146.622000", "100148.623000", "100150.622000", "100152.622000", "100154.623000", "100156.624000", "100158.623000", "100200.623000", "100202.623000", "100204.622000", "100206.622000", "100208.623000", "100210.622000", "100212.623000", "100214.623000", "100216.624000", "100218.622000", "100220.623000", "100222.622000", "100224.622000", "100226.622000", "100228.623000", "100230.623000", "100232.623000", "100234.623000", "100236.622000", "100238.622000", "100240.622000", "100242.622000", "100244.622000", "100246.622000", "100248.623000", "100250.624000", "100252.623000", "100254.622000", "100256.622000", "100258.623000", "100300.622000", "100302.622000", "100304.623000", "100306.623000", "100308.623000", "100310.623000", "100312.622000", "100314.622000", "100316.622000", "100318.622000", "100320.622000", "100322.624000", "100324.623000", "100326.623000", "100328.622000", "100330.622000", "100332.623000", "100334.623000", "100336.622000", "100338.622000", "100340.624000", "100342.623000", "100344.624000", "100346.622000", "100348.622000", "100350.623000", "100352.623000", "100354.622000", "100356.623000", "100358.623000", "100400.623000", "100402.623000", "100404.622000", "100406.622000", "100408.622000", "100410.622000", "100412.622000", "100414.623000", "100416.624000", "100418.624000", "100420.623000", "100422.622000", "100424.623000", "100426.622000", "100428.622000", "100430.622000", "100432.624000", "100434.623000", "100436.623000", "100438.622000", "100440.394000"],
      "InstanceCreationTime": ["095659.128000", "095700.623000", "095702.623000", "095704.623000", "095706.622000", "095708.622000", "095710.622000", "095712.623000", "095714.623000", "095716.624000", "095718.623000", "095720.623000", "095722.622000", "095724.623000", "095726.622000", "095728.623000", "095730.622000", "095732.623000", "095734.623000", "095736.624000", "095738.623000", "095740.622000", "095742.622000", "095744.623000", "095746.623000", "095748.623000", "095750.623000", "095752.623000", "095754.623000", "095756.622000", "095758.622000", "095800.622000", "095802.622000", "095804.622000", "095806.622000", "095808.623000", "095810.623000", "095812.623000", "095814.622000", "095816.623000", "095818.622000", "095820.642000", "095822.622000", "095824.622000", "095826.623000", "095828.623000", "095830.623000", "095832.622000", "095834.623000", "095836.622000", "095838.622000", "095840.622000", "095842.623000", "095844.623000", "095846.623000", "095848.622000", "095850.623000", "095852.623000", "095854.623000", "095856.622000", "095858.622000", "095900.623000", "095902.624000", "095904.623000", "095906.622000", "095908.623000", "095910.622000", "095912.622000", "095914.623000", "095916.622000", "095918.624000", "095920.623000", "095922.623000", "095924.623000", "095926.622000", "095928.623000", "095930.622000", "095932.622000", "095934.622000", "095936.623000", "095938.625000", "095940.624000", "095942.622000", "095944.622000", "095946.622000", "095948.622000", "095950.622000", "095952.623000", "095954.623000", "095956.624000", "095958.622000", "100000.623000", "100002.623000", "100004.622000", "100006.622000", "100008.622000", "100010.623000", "100012.623000", "100014.623000", "100016.622000", "100018.623000", "100020.622000", "100022.622000", "100024.622000", "100026.622000", "100028.623000", "100030.623000", "100032.623000", "100034.622000", "100036.622000", "100038.622000", "100040.623000", "100042.622000", "100044.624000", "100046.623000", "100048.623000", "100050.623000", "100052.622000", "100054.622000", "100056.622000", "100058.622000", "100100.622000", "100102.624000", "100104.623000", "100106.623000", "100108.622000", "100110.623000", "100112.622000", "100114.622000", "100116.622000", "100118.622000", "100120.623000", "100122.623000", "100124.623000", "100126.622000", "100128.622000", "100130.623000", "100132.622000", "100134.622000", "100136.622000", "100138.623000", "100140.623000", "100142.623000", "100144.623000", "100146.622000", "100148.623000", "100150.622000", "100152.622000", "100154.623000", "100156.624000", "100158.623000", "100200.623000", "100202.623000", "100204.622000", "100206.622000", "100208.623000", "100210.622000", "100212.623000", "100214.623000", "100216.624000", "100218.622000", "100220.623000", "100222.622000", "100224.622000", "100226.622000", "100228.623000", "100230.623000", "100232.623000", "100234.623000", "100236.622000", "100238.622000", "100240.622000", "100242.622000", "100244.622000", "100246.622000", "100248.623000", "100250.624000", "100252.623000", "100254.622000", "100256.622000", "100258.623000", "100300.622000", "100302.622000", "100304.623000", "100306.623000", "100308.623000", "100310.623000", "100312.622000", "100314.622000", "100316.622000", "100318.622000", "100320.622000", "100322.624000", "100324.623000", "100326.623000", "100328.622000", "100330.622000", "100332.623000", "100334.623000", "100336.622000", "100338.622000", "100340.624000", "100342.623000", "100344.624000", "100346.622000", "100348.622000", "100350.623000", "100352.623000", "100354.622000", "100356.623000", "100358.623000", "100400.623000", "100402.623000", "100404.622000", "100406.622000", "100408.622000", "100410.622000", "100412.622000", "100414.623000", "100416.624000", "100418.624000", "100420.623000", "100422.622000", "100424.623000", "100426.622000", "100428.622000", "100430.622000", "100432.624000", "100434.623000", "100436.623000", "100438.622000", "100440.394000"],
      "InstanceNumber": [1, 2, 3, 4, 5, 6, 7, 8, 9, 10, 11, 12, 13, 14, 15, 16, 17, 18, 19, 20, 21, 22, 23, 24, 25, 26, 27, 28, 29, 30, 31, 32, 33, 34, 35, 36, 37, 38, 39, 40, 41, 42, 43, 44, 45, 46, 47, 48, 49, 50, 51, 52, 53, 54, 55, 56, 57, 58, 59, 60, 61, 62, 63, 64, 65, 66, 67, 68, 69, 70, 71, 72, 73, 74, 75, 76, 77, 78, 79, 80, 81, 82, 83, 84, 85, 86, 87, 88, 89, 90, 91, 92, 93, 94, 95, 96, 97, 98, 99, 100, 101, 102, 103, 104, 105, 106, 107, 108, 109, 110, 111, 112, 113, 114, 115, 116, 117, 118, 119, 120, 121, 122, 123, 124, 125, 126, 127, 128, 129, 130, 131, 132, 133, 134, 135, 136, 137, 138, 139, 140, 141, 142, 143, 144, 145, 146, 147, 148, 149, 150, 151, 152, 153, 154, 155, 156, 157, 158, 159, 160, 161, 162, 163, 164, 165, 166, 167, 168, 169, 170, 171, 172, 173, 174, 175, 176, 177, 178, 179, 180, 181, 182, 183, 184, 185, 186, 187, 188, 189, 190, 191, 192, 193, 194, 195, 196, 197, 198, 199, 200, 201, 202, 203, 204, 205, 206, 207, 208, 209, 210, 211, 212, 213, 214, 215, 216, 217, 218, 219, 220, 221, 222, 223, 224, 225, 226, 227, 228, 229, 230, 231, 232],
      "LargestImagePixelValue": [3488, 3419, 3359, 3370, 3407, 3382, 3392, 3364, 3391, 3364, 3358, 3380, 3390, 3382, 3391, 3378, 3340, 3348, 3358, 3347, 3366, 3390, 3353, 3349, 3370, 3362, 3377, 3398, 3375, 3333, 3342, 3382, 3328, 3366, 3362, 3334, 3350, 3388, 3374, 3384, 3378, 3370, 3360, 3315, 3359, 3317, 3332, 3371, 3376, 3377, 3377, 3379, 3396, 3410, 3391, 3401, 3370, 3367, 3387, 3364, 3401, 3373, 3390, 3418, 3359, 3351, 3395, 3378, 3410, 3389, 3324, 3373, 3346, 3363, 3394, 3407, 3382, 3343, 3382, 3381, 3374, 3388, 3369, 3365, 3350, 3349, 3357, 3342, 3354, 3384, 3363, 3380, 3398, 3375, 3411, 3376, 3339, 3376, 3336, 3369, 3349, 3318, 3350, 3325, 3325, 3354, 3343, 3345, 3353, 3363, 3386, 3346, 3320, 3398, 3325, 3320, 3318, 3337, 3347, 3343, 3333, 3349, 3419, 3344, 3373, 3381, 3366, 3368, 3352, 3341, 3423, 3368, 3401, 3369, 3393, 3369, 3389, 3374, 3370, 3349, 3400, 3404, 3387, 3357, 3381, 3341, 3392, 3397, 3393, 3422, 3401, 3402, 3379, 3371, 3406, 3418, 3423, 3434, 3421, 3417, 3399, 3421, 3400, 3400, 3394, 3394, 3349, 3374, 3368, 3381, 3421, 3383, 3398, 3413, 3421, 3434, 3404, 3428, 3413, 3392, 3381, 3390, 3372, 3368, 3361, 3367, 3337, 3355, 3339, 3371, 3362, 3355, 3331, 3316, 3271, 3227, 3219, 3215, 3207, 3236, 3233, 3253, 3261, 3264, 3254, 3275, 3229, 3246, 3253, 3231, 3240, 3249, 3215, 3237, 3221, 3214, 3241, 3223, 3227, 3229, 3209, 3212, 3202, 3208, 3220, 3225, 3210, 3207, 3192, 3191, 3210, 3223],
      "WindowCenter": [783.0, 781.0, 780.0, 779.0, 778.0, 778.0, 779.0, 779.0, 780.0, 780.0, 779.0, 779.0, 780.0, 781.0, 780.0, 780.0, 779.0, 779.0, 781.0, 781.0, 780.0, 779.0, 778.0, 778.0, 779.0, 779.0, 777.0, 778.0, 778.0, 779.0, 779.0, 779.0, 779.0, 779.0, 780.0, 781.0, 781.0, 780.0, 780.0, 779.0, 779.0, 779.0, 779.0, 779.0, 779.0, 779.0, 779.0, 780.0, 780.0, 781.0, 781.0, 781.0, 781.0, 782.0, 781.0, 781.0, 780.0, 779.0, 778.0, 779.0, 779.0, 779.0, 778.0, 779.0, 779.0, 778.0, 779.0, 779.0, 780.0, 779.0, 778.0, 778.0, 777.0, 778.0, 779.0, 779.0, 778.0, 778.0, 778.0, 778.0, 778.0, 778.0, 778.0, 779.0, 779.0, 778.0, 778.0, 778.0, 778.0, 778.0, 778.0, 778.0, 778.0, 777.0, 776.0, 776.0, 777.0, 779.0, 779.0, 779.0, 778.0, 777.0, 778.0, 778.0, 779.0, 778.0, 778.0, 778.0, 778.0, 778.0, 778.0, 777.0, 777.0, 778.0, 779.0, 780.0, 780.0, 779.0, 779.0, 779.0, 778.0, 778.0, 779.0, 779.0, 779.0, 779.0, 779.0, 779.0, 779.0, 779.0, 779.0, 777.0, 778.0, 778.0, 778.0, 778.0, 778.0, 778.0, 778.0, 779.0, 779.0, 778.0, 778.0, 778.0, 777.0, 779.0, 781.0, 780.0, 780.0, 780.0, 779.0, 779.0, 778.0, 779.0, 779.0, 778.0, 778.0, 778.0, 777.0, 777.0, 777.0, 777.0, 777.0, 778.0, 778.0, 778.0, 778.0, 778.0, 779.0, 778.0, 779.0, 779.0, 779.0, 778.0, 777.0, 777.0, 777.0, 777.0, 777.0, 777.0, 778.0, 778.0, 777.0, 777.0, 778.0, 778.0, 777.0, 777.0, 777.0, 777.0, 777.0, 777.0, 777.0, 778.0, 777.0, 777.0, 778.0, 778.0, 777.0, 776.0, 776.0, 777.0, 777.0, 777.0, 777.0, 778.0, 777.0, 776.0, 776.0, 776.0, 777.0, 776.0, 775.0, 775.0, 775.0, 775.0, 776.0, 776.0, 776.0, 776.0, 775.0, 775.0, 776.0, 777.0, 777.0, 776.0, 776.0, 777.0, 777.0, 777.0, 776.0, 776.0],
      "WindowWidth": [1706.0, 1700.0, 1697.0, 1694.0, 1691.0, 1693.0, 1694.0, 1696.0, 1698.0, 1696.0, 1695.0, 1695.0, 1697.0, 1699.0, 1698.0, 1697.0, 1694.0, 1696.0, 1699.0, 1700.0, 1699.0, 1696.0, 1693.0, 1692.0, 1695.0, 1694.0, 1690.0, 1692.0, 1694.0, 1695.0, 1695.0, 1694.0, 1694.0, 1696.0, 1697.0, 1700.0, 1700.0, 1699.0, 1696.0, 1694.0, 1695.0, 1696.0, 1696.0, 1695.0, 1695.0, 1694.0, 1696.0, 1697.0, 1698.0, 1700.0, 1699.0, 1701.0, 1702.0, 1703.0, 1701.0, 1700.0, 1699.0, 1696.0, 1694.0, 1694.0, 1696.0, 1694.0, 1692.0, 1694.0, 1695.0, 1693.0, 1695.0, 1696.0, 1697.0, 1695.0, 1691.0, 1691.0, 1691.0, 1693.0, 1694.0, 1694.0, 1693.0, 1692.0, 1693.0, 1692.0, 1693.0, 1693.0, 1693.0, 1694.0, 1695.0, 1693.0, 1693.0, 1694.0, 1693.0, 1692.0, 1693.0, 1694.0, 1693.0, 1690.0, 1687.0, 1688.0, 1691.0, 1694.0, 1694.0, 1695.0, 1693.0, 1691.0, 1692.0, 1693.0, 1694.0, 1693.0, 1692.0, 1693.0, 1693.0, 1693.0, 1693.0, 1691.0, 1691.0, 1693.0, 1694.0, 1697.0, 1698.0, 1697.0, 1696.0, 1696.0, 1693.0, 1693.0, 1697.0, 1694.0, 1695.0, 1696.0, 1695.0, 1695.0, 1695.0, 1695.0, 1695.0, 1690.0, 1691.0, 1691.0, 1693.0, 1693.0, 1693.0, 1692.0, 1694.0, 1695.0, 1695.0, 1693.0, 1692.0, 1692.0, 1691.0, 1694.0, 1700.0, 1699.0, 1697.0, 1697.0, 1696.0, 1694.0, 1694.0, 1695.0, 1694.0, 1694.0, 1692.0, 1692.0, 1691.0, 1690.0, 1689.0, 1689.0, 1688.0, 1692.0, 1693.0, 1693.0, 1692.0, 1693.0, 1694.0, 1693.0, 1694.0, 1695.0, 1695.0, 1692.0, 1690.0, 1691.0, 1691.0, 1688.0, 1690.0, 1691.0, 1692.0, 1692.0, 1689.0, 1691.0, 1693.0, 1693.0, 1690.0, 1691.0, 1690.0, 1691.0, 1690.0, 1691.0, 1691.0, 1692.0, 1691.0, 1689.0, 1691.0, 1691.0, 1688.0, 1688.0, 1687.0, 1688.0, 1689.0, 1690.0, 1690.0, 1690.0, 1689.0, 1687.0, 1686.0, 1686.0, 1688.0, 1686.0, 1684.0, 1685.0, 1684.0, 1685.0, 1687.0, 1687.0, 1686.0, 1686.0, 1684.0, 1685.0, 1687.0, 1688.0, 1688.0, 1687.0, 1687.0, 1689.0, 1690.0, 1688.0, 1688.0, 1685.0]
    },
    "slices": {}
  }
}