{
  "AcquisitionMatrixPE": 100,
  "AcquisitionNumber": 1,
  "AcquisitionTime": "09:28:51.227500",
  "BandwidthPerPixelPhaseEncode": 18.519,
  "BaseResolution": 100,
  "BodyPartExamined": "BRAIN",
  "ConsistencyInfo": "N4_VE11C_LATEST_20160120",
  "ConversionSoftware": "dcm2niix",
  "ConversionSoftwareVersion": "v1.0.20180622 GCC4.9.2",
  "DerivedVendorReportedEchoSpacing": 0.000539986,
  "DeviceSerialNumber": "166078",
  "DwellTime": 2.1e-06,
  "EchoTime": 0.034,
  "EchoTrainLength": 100,
  "EffectiveEchoSpacing": 0.000539986,
  "FlipAngle": 90,
  "ImageOrientationPatientDICOM": [0.999816, 0.000402034, 0.019189, -6.79705e-09, 0.999781, -0.0209463],
  "ImageType": [
    "ORIGINAL",
    "PRIMARY",
    "M",
    "ND",
    "MOSAIC"
],
  "InPlanePhaseEncodingDirectionDICOM": "COL",
  "InstitutionAddress": "Street_StreetNo_Bei_Jing_District_CN_ZIP",
  "InstitutionName": "BeiJing_Normal_University",
  "InstitutionalDepartmentName": "Department",
  "MRAcquisitionType": "2D",
  "MagneticFieldStrength": 3,
  "Manufacturer": "Siemens",
  "ManufacturersModelName": "Prisma",
  "Modality": "MR",
  "MultibandAccelerationFactor": 3,
  "PartialFourier": 1,
  "PatientPosition": "HFS",
  "PercentPhaseFOV": 100,
  "PhaseEncodingDirection": "j-",
  "PhaseEncodingSteps": 100,
  "PhaseResolution": 1,
  "PixelBandwidth": 2380,
  "ProcedureStepDescription": "BNU_P2018_64CH_Liu.Jia",
  "ProtocolName": "bold_100x100_s3_2x2x2_232",
  "PulseSequenceDetails": "%SiemensSeq%_ep2d_bold",
  "ReceiveCoilActiveElements": "HC1-7;NC1",
  "ReceiveCoilName": "HeadNeck_64",
  "ReconMatrixPE": 100,
  "RepetitionTime": 2,
  "SAR": 0.0820001,
  "ScanOptions": "FS",
  "ScanningSequence": "EP",
  "SequenceName": "_epfid2d1_100",
  "SequenceVariant": "SK",
  "SeriesDescription": "bold_100x100_s3_2x2x2_232",
  "SeriesNumber": 7,
  "ShimSetting": [-5462, -11519, -1256, 282, 7, -178, -159, 28],
  "SliceThickness": 2,
  "SliceTiming": [1.485, 0, 0.99, 0.0825, 1.0725, 0.165, 1.155, 0.2475, 1.2375, 0.33, 1.32, 0.4125, 1.4025, 0.5775, 1.5675, 0.66, 1.65, 0.7425, 1.7325, 0.825, 1.815, 0.9075, 1.8975, 0.495, 1.485, 0, 0.99, 0.0825, 1.0725, 0.165, 1.155, 0.2475, 1.2375, 0.33, 1.32, 0.4125, 1.4025, 0.5775, 1.5675, 0.66, 1.65, 0.7425, 1.7325, 0.825, 1.815, 0.9075, 1.8975, 0.495, 1.485, 0, 0.99, 0.0825, 1.0725, 0.165, 1.155, 0.2475, 1.2375, 0.33, 1.32, 0.4125, 1.4025, 0.5775, 1.5675, 0.66, 1.65, 0.7425, 1.7325, 0.825, 1.815, 0.9075, 1.8975, 0.495],
  "SoftwareVersions": "syngo_MR_E11",
  "SpacingBetweenSlices": 2,
  "StationName": "AWP166078",
  "TaskName": "motor",
  "TotalReadoutTime": 0.0534586,
  "TxRefAmp": 215.029,
  "dcmmeta_affine": [
    [-1.999631643295288, -1.3594108061454335e-08, 0.03838646411895752, 98.61762237548828],
    [-0.0008040671236813068, 1.9995611906051636, -0.04188483953475952, -89.53572082519531],
    [0.0383780412375927, 0.041892554610967636, 1.9991929531097412, -58.86586380004883],
    [0.0, 0.0, 0.0, 1.0]
],
  "dcmmeta_reorient_transform": [
    [0.0, -1.0, 0.0, 99.0],
    [1.0, 0.0, 0.0, 0.0],
    [0.0, 0.0, 1.0, 0.0],
    [0.0, 0.0, 0.0, 1.0]
],
  "dcmmeta_shape": [100, 100, 72, 232],
  "dcmmeta_slice_dim": 2,
  "dcmmeta_version": 0.6,
  "global": {
    "const": {
      "AcquisitionMatrix": [100, 0, 0, 100],
      "AngioFlag": "N",
      "BitsAllocated": 16,
      "BitsStored": 12,
      "BodyPartExamined": "BRAIN",
      "Columns": 900,
      "EchoNumbers": 1,
      "EchoTime": 34.0,
      "EchoTrainLength": 100,
      "FlipAngle": 90.0,
      "HighBit": 11,
      "ImageOrientationPatient": [0.99981579296389, 0.00040203355662, 0.01918902053286, -6.797054e-09, 0.99978060265455, -0.0209462778484],
      "ImagePositionPatient": [-898.47024776088, -908.56694712924, -53.312694490203],
      "ImageType": [
        "ORIGINAL",
        "PRIMARY",
        "M",
        "ND",
        "MOSAIC"
],
      "ImagedNucleus": "1H",
      "ImagingFrequency": 123.257791,
      "InPlanePhaseEncodingDirection": "COL",
      "MRAcquisitionType": "2D",
      "MagneticFieldStrength": 3.0,
      "Manufacturer": "SIEMENS",
      "ManufacturerModelName": "Prisma",
      "Modality": "MR",
      "NumberOfAverages": 1.0,
      "NumberOfPhaseEncodingSteps": 100,
      "PercentPhaseFieldOfView": 100.0,
      "PercentSampling": 100.0,
      "PerformedProcedureStepStartTime": "090424.111000",
      "PhotometricInterpretation": "MONOCHROME2",
      "PixelBandwidth": 2380.0,
      "PixelRepresentation": 0,
      "PixelSpacing": [2.0, 2.0],
      "ProtocolName": "bold_100x100_s3_2x2x2_232",
      "RepetitionTime": 2000.0,
      "Rows": 900,
      "SAR": 0.08200012963868,
      "SamplesPerPixel": 1,
      "ScanOptions": "FS",
      "ScanningSequence": "EP",
      "SequenceName": "*epfid2d1_100",
      "SequenceVariant": "SK",
      "SeriesDescription": "bold_100x100_s3_2x2x2_232",
      "SeriesNumber": 7,
      "SeriesTime": "092853.497000",
      "SliceLocation": -55.074221777798,
      "SliceThickness": 2.0,
      "SmallestImagePixelValue": 0,
      "SoftwareVersions": "syngo MR E11",
      "SpacingBetweenSlices": 2.0000000239628,
      "SpecificCharacterSet": "ISO_IR 100",
      "StudyID": "1",
      "StudyTime": "090423.971000",
      "TransmitCoilName": "Body",
      "VariableFlipAngleFlag": "N",
      "WindowCenterWidthExplanation": "Algo1",
      "dBdt": 0.0},
    "slices": {}
  },
  "time": {
    "samples": {
      "AcquisitionNumber": [1, 2, 3, 4, 5, 6, 7, 8, 9, 10, 11, 12, 13, 14, 15, 16, 17, 18, 19, 20, 21, 22, 23, 24, 25, 26, 27, 28, 29, 30, 31, 32, 33, 34, 35, 36, 37, 38, 39, 40, 41, 42, 43, 44, 45, 46, 47, 48, 49, 50, 51, 52, 53, 54, 55, 56, 57, 58, 59, 60, 61, 62, 63, 64, 65, 66, 67, 68, 69, 70, 71, 72, 73, 74, 75, 76, 77, 78, 79, 80, 81, 82, 83, 84, 85, 86, 87, 88, 89, 90, 91, 92, 93, 94, 95, 96, 97, 98, 99, 100, 101, 102, 103, 104, 105, 106, 107, 108, 109, 110, 111, 112, 113, 114, 115, 116, 117, 118, 119, 120, 121, 122, 123, 124, 125, 126, 127, 128, 129, 130, 131, 132, 133, 134, 135, 136, 137, 138, 139, 140, 141, 142, 143, 144, 145, 146, 147, 148, 149, 150, 151, 152, 153, 154, 155, 156, 157, 158, 159, 160, 161, 162, 163, 164, 165, 166, 167, 168, 169, 170, 171, 172, 173, 174, 175, 176, 177, 178, 179, 180, 181, 182, 183, 184, 185, 186, 187, 188, 189, 190, 191, 192, 193, 194, 195, 196, 197, 198, 199, 200, 201, 202, 203, 204, 205, 206, 207, 208, 209, 210, 211, 212, 213, 214, 215, 216, 217, 218, 219, 220, 221, 222, 223, 224, 225, 226, 227, 228, 229, 230, 231, 232],
      "AcquisitionTime": ["092851.227500", "092853.227500", "092855.227500", "092857.227500", "092859.227500", "092901.227500", "092903.227500", "092905.227500", "092907.227500", "092909.227500", "092911.227500", "092913.227500", "092915.227500", "092917.227500", "092919.227500", "092921.227500", "092923.227500", "092925.227500", "092927.227500", "092929.227500", "092931.227500", "092933.227500", "092935.227500", "092937.227500", "092939.227500", "092941.227500", "092943.227500", "092945.227500", "092947.227500", "092949.227500", "092951.227500", "092953.227500", "092955.227500", "092957.227500", "092959.227500", "093001.227500", "093003.227500", "093005.227500", "093007.227500", "093009.227500", "093011.227500", "093013.227500", "093015.227500", "093017.227500", "093019.227500", "093021.227500", "093023.227500", "093025.227500", "093027.227500", "093029.227500", "093031.227500", "093033.227500", "093035.227500", "093037.227500", "093039.227500", "093041.227500", "093043.227500", "093045.227500", "093047.227500", "093049.227500", "093051.227500", "093053.227500", "093055.227500", "093057.227500", "093059.227500", "093101.227500", "093103.227500", "093105.227500", "093107.227500", "093109.227500", "093111.227500", "093113.227500", "093115.227500", "093117.227500", "093119.227500", "093121.227500", "093123.227500", "093125.227500", "093127.227500", "093129.227500", "093131.227500", "093133.227500", "093135.227500", "093137.227500", "093139.227500", "093141.227500", "093143.227500", "093145.227500", "093147.227500", "093149.227500", "093151.227500", "093153.227500", "093155.227500", "093157.227500", "093159.227500", "093201.227500", "093203.227500", "093205.227500", "093207.227500", "093209.227500", "093211.227500", "093213.227500", "093215.227500", "093217.227500", "093219.227500", "093221.227500", "093223.227500", "093225.227500", "093227.227500", "093229.227500", "093231.227500", "093233.227500", "093235.227500", "093237.227500", "093239.227500", "093241.227500", "093243.227500", "093245.227500", "093247.227500", "093249.227500", "093251.227500", "093253.227500", "093255.227500", "093257.227500", "093259.227500", "093301.227500", "093303.227500", "093305.227500", "093307.227500", "093309.227500", "093311.227500", "093313.227500", "093315.227500", "093317.227500", "093319.227500", "093321.227500", "093323.227500", "093325.227500", "093327.227500", "093329.227500", "093331.227500", "093333.227500", "093335.227500", "093337.227500", "093339.227500", "093341.227500", "093343.227500", "093345.227500", "093347.227500", "093349.227500", "093351.227500", "093353.227500", "093355.227500", "093357.227500", "093359.227500", "093401.227500", "093403.227500", "093405.227500", "093407.227500", "093409.227500", "093411.227500", "093413.227500", "093415.227500", "093417.227500", "093419.227500", "093421.227500", "093423.227500", "093425.227500", "093427.227500", "093429.227500", "093431.227500", "093433.227500", "093435.227500", "093437.227500", "093439.227500", "093441.227500", "093443.227500", "093445.227500", "093447.227500", "093449.227500", "093451.227500", "093453.227500", "093455.227500", "093457.227500", "093459.227500", "093501.227500", "093503.227500", "093505.227500", "093507.227500", "093509.227500", "093511.227500", "093513.227500", "093515.227500", "093517.227500", "093519.227500", "093521.227500", "093523.227500", "093525.227500", "093527.227500", "093529.227500", "093531.227500", "093533.227500", "093535.227500", "093537.227500", "093539.227500", "093541.227500", "093543.227500", "093545.227500", "093547.227500", "093549.227500", "093551.227500", "093553.227500", "093555.227500", "093557.227500", "093559.227500", "093601.227500", "093603.227500", "093605.227500", "093607.227500", "093609.227500", "093611.227500", "093613.227500", "093615.227500", "093617.227500", "093619.227500", "093621.227500", "093623.227500", "093625.227500", "093627.227500", "093629.227500", "093631.227500", "093633.227500"],
      "ContentTime": ["092853.501000", "092854.996000", "092856.997000", "092858.997000", "092900.998000", "092902.997000", "092904.998000", "092906.997000", "092908.996000", "092910.997000", "092912.996000", "092914.997000", "092916.998000", "092918.998000", "092920.997000", "092922.997000", "092924.996000", "092926.996000", "092928.997000", "092930.997000", "092932.996000", "092934.998000", "092936.998000", "092938.998000", "092940.997000", "092942.996000", "092944.997000", "092946.997000", "092948.997000", "092950.996000", "092952.998000", "092954.998000", "092956.997000", "092958.996000", "093000.996000", "093002.996000", "093004.997000", "093006.996000", "093008.998000", "093010.998000", "093012.998000", "093014.998000", "093016.996000", "093018.997000", "093020.996000", "093022.996000", "093024.997000", "093026.997000", "093028.998000", "093030.997000", "093032.997000", "093034.997000", "093036.997000", "093038.997000", "093040.996000", "093042.997000", "093044.997000", "093046.997000", "093048.997000", "093050.997000", "093052.997000", "093054.996000", "093056.996000", "093058.997000", "093100.997000", "093102.998000", "093104.997000", "093106.998000", "093108.996000", "093110.997000", "093112.997000", "093114.997000", "093116.996000", "093118.997000", "093120.997000", "093122.998000", "093124.997000", "093126.997000", "093128.997000", "093130.997000", "093132.997000", "093134.997000", "093136.997000", "093138.997000", "093140.998000", "093142.996000", "093144.997000", "093146.996000", "093148.997000", "093150.996000", "093152.997000", "093154.997000", "093156.997000", "093158.997000", "093200.997000", "093202.997000", "093204.997000", "093206.997000", "093208.997000", "093210.997000", "093212.998000", "093214.998000", "093216.997000", "093218.996000", "093220.996000", "093222.996000", "093224.996000", "093226.997000", "093228.997000", "093230.998000", "093232.998000", "093234.998000", "093236.996000", "093238.997000", "093240.996000", "093242.997000", "093244.996000", "093246.997000", "093248.998000", "093250.997000", "093252.996000", "093254.997000", "093256.997000", "093258.997000", "093300.996000", "093302.997000", "093304.998000", "093306.998000", "093308.997000", "093310.996000", "093312.996000", "093314.997000", "093316.997000", "093318.996000", "093320.996000", "093322.998000", "093324.997000", "093326.997000", "093328.997000", "093330.997000", "093332.996000", "093334.997000", "093336.996000", "093338.998000", "093341.000000", "093342.998000", "093344.998000", "093346.997000", "093348.997000", "093350.997000", "093352.997000", "093354.996000", "093356.997000", "093358.998000", "093400.998000", "093402.997000", "093404.997000", "093406.996000", "093408.996000", "093410.997000", "093412.997000", "093414.998000", "093416.998000", "093418.998000", "093420.996000", "093422.996000", "093424.996000", "093426.997000", "093428.997000", "093430.996000", "093432.998000", "093434.997000", "093436.997000", "093438.996000", "093440.996000", "093442.996000", "093444.997000", "093446.997000", "093448.998000", "093450.998000", "093452.997000", "093454.997000", "093456.997000", "093458.997000", "093500.996000", "093502.997000", "093504.996000", "093506.998000", "093508.997000", "093510.998000", "093512.996000", "093514.997000", "093516.997000", "093518.997000", "093520.997000", "093522.996000", "093524.998000", "093526.998000", "093528.998000", "093530.997000", "093532.997000", "093534.997000", "093536.997000", "093538.996000", "093540.996000", "093542.997000", "093544.998000", "093546.998000", "093548.996000", "093551.009000", "093552.997000", "093554.997000", "093556.996000", "093558.997000", "093600.998000", "093602.997000", "093604.998000", "093606.996000", "093608.997000", "093610.997000", "093612.997000", "093614.997000", "093616.998000", "093618.997000", "093620.998000", "093622.997000", "093624.997000", "093626.997000", "093628.997000", "093630.997000", "093632.996000", "093634.710000"],
      "InstanceCreationTime": ["092853.501000", "092854.996000", "092856.997000", "092858.997000", "092900.998000", "092902.997000", "092904.998000", "092906.997000", "092908.996000", "092910.997000", "092912.996000", "092914.997000", "092916.998000", "092918.998000", "092920.997000", "092922.997000", "092924.996000", "092926.996000", "092928.997000", "092930.997000", "092932.996000", "092934.998000", "092936.998000", "092938.998000", "092940.997000", "092942.996000", "092944.997000", "092946.997000", "092948.997000", "092950.996000", "092952.998000", "092954.998000", "092956.997000", "092958.996000", "093000.996000", "093002.996000", "093004.997000", "093006.996000", "093008.998000", "093010.998000", "093012.998000", "093014.998000", "093016.996000", "093018.997000", "093020.996000", "093022.996000", "093024.997000", "093026.997000", "093028.998000", "093030.997000", "093032.997000", "093034.997000", "093036.997000", "093038.997000", "093040.996000", "093042.997000", "093044.997000", "093046.997000", "093048.997000", "093050.997000", "093052.997000", "093054.996000", "093056.996000", "093058.997000", "093100.997000", "093102.998000", "093104.997000", "093106.998000", "093108.996000", "093110.997000", "093112.997000", "093114.997000", "093116.996000", "093118.997000", "093120.997000", "093122.998000", "093124.997000", "093126.997000", "093128.997000", "093130.997000", "093132.997000", "093134.997000", "093136.997000", "093138.997000", "093140.998000", "093142.996000", "093144.997000", "093146.996000", "093148.997000", "093150.996000", "093152.997000", "093154.997000", "093156.997000", "093158.997000", "093200.997000", "093202.997000", "093204.997000", "093206.997000", "093208.997000", "093210.997000", "093212.998000", "093214.998000", "093216.997000", "093218.996000", "093220.996000", "093222.996000", "093224.996000", "093226.997000", "093228.997000", "093230.998000", "093232.998000", "093234.998000", "093236.996000", "093238.997000", "093240.996000", "093242.997000", "093244.996000", "093246.997000", "093248.998000", "093250.997000", "093252.996000", "093254.997000", "093256.997000", "093258.997000", "093300.996000", "093302.997000", "093304.998000", "093306.998000", "093308.997000", "093310.996000", "093312.996000", "093314.997000", "093316.997000", "093318.996000", "093320.996000", "093322.998000", "093324.997000", "093326.997000", "093328.997000", "093330.997000", "093332.996000", "093334.997000", "093336.996000", "093338.998000", "093341.000000", "093342.998000", "093344.998000", "093346.997000", "093348.997000", "093350.997000", "093352.997000", "093354.996000", "093356.997000", "093358.998000", "093400.998000", "093402.997000", "093404.997000", "093406.996000", "093408.996000", "093410.997000", "093412.997000", "093414.998000", "093416.998000", "093418.998000", "093420.996000", "093422.996000", "093424.996000", "093426.997000", "093428.997000", "093430.996000", "093432.998000", "093434.997000", "093436.997000", "093438.996000", "093440.996000", "093442.996000", "093444.997000", "093446.997000", "093448.998000", "093450.998000", "093452.997000", "093454.997000", "093456.997000", "093458.997000", "093500.996000", "093502.997000", "093504.996000", "093506.998000", "093508.997000", "093510.998000", "093512.996000", "093514.997000", "093516.997000", "093518.997000", "093520.997000", "093522.996000", "093524.998000", "093526.998000", "093528.998000", "093530.997000", "093532.997000", "093534.997000", "093536.997000", "093538.996000", "093540.996000", "093542.997000", "093544.998000", "093546.998000", "093548.996000", "093551.009000", "093552.997000", "093554.997000", "093556.996000", "093558.997000", "093600.998000", "093602.997000", "093604.998000", "093606.996000", "093608.997000", "093610.997000", "093612.997000", "093614.997000", "093616.998000", "093618.997000", "093620.998000", "093622.997000", "093624.997000", "093626.997000", "093628.997000", "093630.997000", "093632.996000", "093634.710000"],
      "InstanceNumber": [1, 2, 3, 4, 5, 6, 7, 8, 9, 10, 11, 12, 13, 14, 15, 16, 17, 18, 19, 20, 21, 22, 23, 24, 25, 26, 27, 28, 29, 30, 31, 32, 33, 34, 35, 36, 37, 38, 39, 40, 41, 42, 43, 44, 45, 46, 47, 48, 49, 50, 51, 52, 53, 54, 55, 56, 57, 58, 59, 60, 61, 62, 63, 64, 65, 66, 67, 68, 69, 70, 71, 72, 73, 74, 75, 76, 77, 78, 79, 80, 81, 82, 83, 84, 85, 86, 87, 88, 89, 90, 91, 92, 93, 94, 95, 96, 97, 98, 99, 100, 101, 102, 103, 104, 105, 106, 107, 108, 109, 110, 111, 112, 113, 114, 115, 116, 117, 118, 119, 120, 121, 122, 123, 124, 125, 126, 127, 128, 129, 130, 131, 132, 133, 134, 135, 136, 137, 138, 139, 140, 141, 142, 143, 144, 145, 146, 147, 148, 149, 150, 151, 152, 153, 154, 155, 156, 157, 158, 159, 160, 161, 162, 163, 164, 165, 166, 167, 168, 169, 170, 171, 172, 173, 174, 175, 176, 177, 178, 179, 180, 181, 182, 183, 184, 185, 186, 187, 188, 189, 190, 191, 192, 193, 194, 195, 196, 197, 198, 199, 200, 201, 202, 203, 204, 205, 206, 207, 208, 209, 210, 211, 212, 213, 214, 215, 216, 217, 218, 219, 220, 221, 222, 223, 224, 225, 226, 227, 228, 229, 230, 231, 232],
      "LargestImagePixelValue": [3458, 3369, 3344, 3323, 3345, 3322, 3311, 3308, 3312, 3310, 3295, 3293, 3290, 3290, 3307, 3309, 3315, 3278, 3303, 3285, 3307, 3319, 3307, 3312, 3320, 3342, 3333, 3336, 3335, 3322, 3332, 3337, 3327, 3324, 3335, 3332, 3342, 3312, 3363, 3350, 3368, 3348, 3391, 3332, 3365, 3357, 3362, 3360, 3360, 3346, 3358, 3342, 3342, 3336, 3374, 3371, 3368, 3375, 3407, 3367, 3371, 3358, 3394, 3409, 3442, 3400, 3380, 3359, 3363, 3349, 3370, 3377, 3376, 3377, 3366, 3369, 3377, 3407, 3359, 3386, 3372, 3365, 3361, 3395, 3396, 3369, 3378, 3368, 3359, 3354, 3397, 3381, 3368, 3381, 3439, 3417, 3436, 3423, 3391, 3381, 3387, 3417, 3407, 3426, 3421, 3402, 3339, 3368, 3346, 3345, 3340, 3349, 3387, 3419, 3430, 3422, 3396, 3409, 3423, 3409, 3410, 3402, 3382, 3435, 3429, 3435, 3399, 3425, 3401, 3438, 3466, 3426, 3443, 3430, 3414, 3419, 3436, 3429, 3441, 3456, 3449, 3451, 3471, 3450, 3442, 3443, 3477, 3442, 3443, 3447, 3462, 3454, 3451, 3425, 3439, 3452, 3455, 3422, 3447, 3438, 3435, 3416, 3454, 3433, 3417, 3437, 3439, 3426, 3474, 3464, 3462, 3441, 3439, 3454, 3473, 3443, 3447, 3434, 3419, 3428, 3402, 3368, 3384, 3371, 3358, 3404, 3482, 3455, 3444, 3451, 3420, 3466, 3443, 3439, 3433, 3414, 3412, 3398, 3402, 3421, 3403, 3398, 3426, 3411, 3424, 3365, 3418, 3406, 3426, 3434, 3395, 3386, 3371, 3396, 3437, 3442, 3400, 3377, 3347, 3342, 3378, 3349, 3343, 3323, 3329, 3397, 3394, 3439, 3447, 3441, 3463, 3451],
      "WindowCenter": [786.0, 784.0, 783.0, 783.0, 783.0, 783.0, 783.0, 782.0, 782.0, 783.0, 783.0, 782.0, 782.0, 781.0, 781.0, 782.0, 783.0, 783.0, 783.0, 783.0, 783.0, 784.0, 783.0, 783.0, 782.0, 783.0, 783.0, 782.0, 781.0, 781.0, 782.0, 781.0, 781.0, 782.0, 783.0, 783.0, 782.0, 781.0, 781.0, 781.0, 782.0, 782.0, 782.0, 782.0, 783.0, 783.0, 783.0, 783.0, 782.0, 782.0, 782.0, 782.0, 783.0, 782.0, 782.0, 782.0, 782.0, 781.0, 781.0, 781.0, 782.0, 781.0, 781.0, 781.0, 782.0, 782.0, 782.0, 782.0, 783.0, 783.0, 784.0, 784.0, 783.0, 782.0, 782.0, 782.0, 783.0, 784.0, 784.0, 783.0, 782.0, 782.0, 782.0, 783.0, 783.0, 782.0, 782.0, 781.0, 781.0, 782.0, 783.0, 784.0, 783.0, 782.0, 782.0, 782.0, 783.0, 784.0, 783.0, 783.0, 783.0, 783.0, 783.0, 783.0, 784.0, 784.0, 782.0, 783.0, 782.0, 782.0, 782.0, 782.0, 783.0, 784.0, 784.0, 784.0, 784.0, 785.0, 784.0, 783.0, 784.0, 783.0, 782.0, 782.0, 782.0, 782.0, 783.0, 783.0, 783.0, 783.0, 783.0, 784.0, 784.0, 784.0, 784.0, 783.0, 783.0, 782.0, 782.0, 783.0, 783.0, 783.0, 783.0, 782.0, 782.0, 782.0, 782.0, 783.0, 783.0, 782.0, 782.0, 782.0, 782.0, 781.0, 782.0, 783.0, 783.0, 783.0, 783.0, 783.0, 782.0, 782.0, 782.0, 782.0, 783.0, 783.0, 782.0, 781.0, 782.0, 781.0, 781.0, 781.0, 780.0, 780.0, 781.0, 782.0, 782.0, 782.0, 781.0, 781.0, 781.0, 781.0, 781.0, 781.0, 782.0, 782.0, 783.0, 782.0, 781.0, 781.0, 781.0, 782.0, 782.0, 782.0, 783.0, 783.0, 783.0, 783.0, 783.0, 783.0, 783.0, 783.0, 783.0, 783.0, 782.0, 781.0, 782.0, 782.0, 782.0, 783.0, 784.0, 784.0, 784.0, 784.0, 783.0, 782.0, 782.0, 782.0, 781.0, 781.0, 781.0, 781.0, 781.0, 781.0, 781.0, 781.0, 780.0, 782.0, 782.0, 782.0, 782.0, 782.0],
      "WindowWidth": [1717.0, 1710.0, 1707.0, 1708.0, 1707.0, 1707.0, 1707.0, 1705.0, 1706.0, 1707.0, 1707.0, 1705.0, 1704.0, 1703.0, 1703.0, 1705.0, 1707.0, 1706.0, 1706.0, 1706.0, 1709.0, 1710.0, 1708.0, 1706.0, 1706.0, 1707.0, 1707.0, 1704.0, 1703.0, 1703.0, 1704.0, 1703.0, 1702.0, 1705.0, 1707.0, 1708.0, 1704.0, 1701.0, 1701.0, 1703.0, 1704.0, 1704.0, 1705.0, 1705.0, 1708.0, 1708.0, 1708.0, 1707.0, 1705.0, 1703.0, 1705.0, 1706.0, 1706.0, 1705.0, 1706.0, 1705.0, 1703.0, 1702.0, 1703.0, 1703.0, 1704.0, 1702.0, 1702.0, 1702.0, 1705.0, 1705.0, 1704.0, 1705.0, 1707.0, 1708.0, 1710.0, 1711.0, 1708.0, 1706.0, 1704.0, 1704.0, 1707.0, 1709.0, 1709.0, 1707.0, 1704.0, 1703.0, 1704.0, 1707.0, 1707.0, 1705.0, 1705.0, 1702.0, 1702.0, 1703.0, 1708.0, 1710.0, 1708.0, 1705.0, 1706.0, 1705.0, 1708.0, 1709.0, 1708.0, 1707.0, 1706.0, 1706.0, 1707.0, 1707.0, 1709.0, 1709.0, 1704.0, 1706.0, 1705.0, 1704.0, 1703.0, 1703.0, 1706.0, 1711.0, 1711.0, 1711.0, 1711.0, 1712.0, 1710.0, 1708.0, 1708.0, 1706.0, 1703.0, 1704.0, 1703.0, 1705.0, 1706.0, 1707.0, 1708.0, 1708.0, 1707.0, 1709.0, 1711.0, 1711.0, 1709.0, 1708.0, 1707.0, 1705.0, 1705.0, 1706.0, 1708.0, 1708.0, 1706.0, 1704.0, 1703.0, 1704.0, 1705.0, 1706.0, 1705.0, 1704.0, 1704.0, 1704.0, 1704.0, 1702.0, 1703.0, 1706.0, 1708.0, 1707.0, 1708.0, 1706.0, 1704.0, 1702.0, 1703.0, 1704.0, 1705.0, 1706.0, 1704.0, 1701.0, 1703.0, 1702.0, 1701.0, 1701.0, 1700.0, 1700.0, 1702.0, 1704.0, 1705.0, 1703.0, 1700.0, 1701.0, 1702.0, 1702.0, 1702.0, 1702.0, 1702.0, 1703.0, 1706.0, 1705.0, 1702.0, 1701.0, 1701.0, 1703.0, 1704.0, 1705.0, 1705.0, 1707.0, 1708.0, 1707.0, 1706.0, 1706.0, 1706.0, 1706.0, 1707.0, 1706.0, 1703.0, 1701.0, 1703.0, 1703.0, 1705.0, 1705.0, 1708.0, 1710.0, 1710.0, 1709.0, 1707.0, 1705.0, 1704.0, 1704.0, 1701.0, 1700.0, 1702.0, 1702.0, 1702.0, 1701.0, 1701.0, 1701.0, 1699.0, 1703.0, 1703.0, 1703.0, 1703.0, 1704.0]
    },
    "slices": {}
  }
}