{
  "AcquisitionMatrixPE": 100,
  "AcquisitionNumber": 1,
  "AcquisitionTime": "13:12:41.527500",
  "BandwidthPerPixelPhaseEncode": 18.519,
  "BaseResolution": 100,
  "BodyPartExamined": "BRAIN",
  "ConsistencyInfo": "N4_VE11C_LATEST_20160120",
  "ConversionSoftware": "dcm2niix",
  "ConversionSoftwareVersion": "v1.0.20180622 GCC4.9.2",
  "DerivedVendorReportedEchoSpacing": 0.000539986,
  "DeviceSerialNumber": "166078",
  "DwellTime": 2.1e-06,
  "EchoTime": 0.034,
  "EchoTrainLength": 100,
  "EffectiveEchoSpacing": 0.000539986,
  "FlipAngle": 90,
  "ImageOrientationPatientDICOM": [0.999091, -0.000823605, -0.0426257, -0.00348748, 0.994884, -0.100965],
  "ImageType": [
    "ORIGINAL",
    "PRIMARY",
    "M",
    "ND",
    "MOSAIC"
],
  "InPlanePhaseEncodingDirectionDICOM": "COL",
  "InstitutionAddress": "Street_StreetNo_Bei_Jing_District_CN_ZIP",
  "InstitutionName": "BeiJing_Normal_University",
  "InstitutionalDepartmentName": "Department",
  "MRAcquisitionType": "2D",
  "MagneticFieldStrength": 3,
  "Manufacturer": "Siemens",
  "ManufacturersModelName": "Prisma",
  "Modality": "MR",
  "MultibandAccelerationFactor": 3,
  "PartialFourier": 1,
  "PatientPosition": "HFS",
  "PercentPhaseFOV": 100,
  "PhaseEncodingDirection": "j-",
  "PhaseEncodingSteps": 100,
  "PhaseResolution": 1,
  "PixelBandwidth": 2380,
  "ProcedureStepDescription": "BNU_P2018_64CH_Liu.Jia",
  "ProtocolName": "bold_100x100_s3_2x2x2_232",
  "PulseSequenceDetails": "%SiemensSeq%_ep2d_bold",
  "ReceiveCoilActiveElements": "HC1-7;NC1",
  "ReceiveCoilName": "HeadNeck_64",
  "ReconMatrixPE": 100,
  "RepetitionTime": 2,
  "SAR": 0.073355,
  "ScanOptions": "FS",
  "ScanningSequence": "EP",
  "SequenceName": "_epfid2d1_100",
  "SequenceVariant": "SK",
  "SeriesDescription": "bold_100x100_s3_2x2x2_232",
  "SeriesNumber": 5,
  "ShimSetting": [-5480, -11480, -1316, 310, 19, -257, -166, 55],
  "SliceThickness": 2,
  "SliceTiming": [1.485, 0, 0.99, 0.0825, 1.0725, 0.165, 1.155, 0.2475, 1.2375, 0.33, 1.32, 0.4125, 1.4025, 0.5775, 1.5675, 0.66, 1.65, 0.7425, 1.7325, 0.825, 1.815, 0.9075, 1.8975, 0.495, 1.485, 0, 0.99, 0.0825, 1.0725, 0.165, 1.155, 0.2475, 1.2375, 0.33, 1.32, 0.4125, 1.4025, 0.5775, 1.5675, 0.66, 1.65, 0.7425, 1.7325, 0.825, 1.815, 0.9075, 1.8975, 0.495, 1.485, 0, 0.99, 0.0825, 1.0725, 0.165, 1.155, 0.2475, 1.2375, 0.33, 1.32, 0.4125, 1.4025, 0.5775, 1.5675, 0.66, 1.65, 0.7425, 1.7325, 0.825, 1.815, 0.9075, 1.8975, 0.495],
  "SoftwareVersions": "syngo_MR_E11",
  "SpacingBetweenSlices": 2,
  "StationName": "AWP166078",
  "TaskName": "motor",
  "TotalReadoutTime": 0.0534586,
  "TxRefAmp": 218.155,
  "dcmmeta_affine": [
    [-1.9981815814971924, -0.006974957417696714, -0.08498155325651169, 102.73722076416016],
    [0.0016472090501338243, 1.9897677898406982, -0.20204345881938934, -81.63878631591797],
    [-0.08525140583515167, 0.2019297480583191, 1.987952709197998, -77.99530792236328],
    [0.0, 0.0, 0.0, 1.0]
],
  "dcmmeta_reorient_transform": [
    [0.0, -1.0, 0.0, 99.0],
    [1.0, 0.0, 0.0, 0.0],
    [0.0, 0.0, 1.0, 0.0],
    [0.0, 0.0, 0.0, 1.0]
],
  "dcmmeta_shape": [100, 100, 72, 232],
  "dcmmeta_slice_dim": 2,
  "dcmmeta_version": 0.6,
  "global": {
    "const": {
      "AcquisitionMatrix": [100, 0, 0, 100],
      "AngioFlag": "N",
      "BitsAllocated": 16,
      "BitsStored": 12,
      "BodyPartExamined": "BRAIN",
      "Columns": 900,
      "EchoNumbers": 1,
      "EchoTime": 34.0,
      "EchoTrainLength": 100,
      "FlipAngle": 90.0,
      "HighBit": 11,
      "ImageOrientationPatient": [0.99909077227456, -0.0008236045004, -0.0426257015361, -0.0034874787693, 0.99488387823947, -0.1009648766207],
      "ImagePositionPatient": [-898.52933352614, -910.59644321113, 56.868200944092],
      "ImageType": [
        "ORIGINAL",
        "PRIMARY",
        "M",
        "ND",
        "MOSAIC"
],
      "ImagedNucleus": "1H",
      "ImagingFrequency": 123.257849,
      "InPlanePhaseEncodingDirection": "COL",
      "MRAcquisitionType": "2D",
      "MagneticFieldStrength": 3.0,
      "Manufacturer": "SIEMENS",
      "ManufacturerModelName": "Prisma",
      "Modality": "MR",
      "NumberOfAverages": 1.0,
      "NumberOfPhaseEncodingSteps": 100,
      "PercentPhaseFieldOfView": 100.0,
      "PercentSampling": 100.0,
      "PerformedProcedureStepStartTime": "125319.521000",
      "PhotometricInterpretation": "MONOCHROME2",
      "PixelBandwidth": 2380.0,
      "PixelRepresentation": 0,
      "PixelSpacing": [2.0, 2.0],
      "ProtocolName": "bold_100x100_s3_2x2x2_232",
      "RepetitionTime": 2000.0,
      "Rows": 900,
      "SAR": 0.07335498343538,
      "SamplesPerPixel": 1,
      "ScanOptions": "FS",
      "ScanningSequence": "EP",
      "SequenceName": "*epfid2d1_100",
      "SequenceVariant": "SK",
      "SeriesDescription": "bold_100x100_s3_2x2x2_232",
      "SeriesNumber": 5,
      "SeriesTime": "131244.180000",
      "SliceLocation": -73.643589991848,
      "SliceThickness": 2.0,
      "SmallestImagePixelValue": 0,
      "SoftwareVersions": "syngo MR E11",
      "SpacingBetweenSlices": 1.9999998972992,
      "SpecificCharacterSet": "ISO_IR 100",
      "StudyID": "1",
      "StudyTime": "125319.432000",
      "TransmitCoilName": "Body",
      "VariableFlipAngleFlag": "N",
      "WindowCenterWidthExplanation": "Algo1",
      "dBdt": 0.0},
    "slices": {}
  },
  "time": {
    "samples": {
      "AcquisitionNumber": [1, 2, 3, 4, 5, 6, 7, 8, 9, 10, 11, 12, 13, 14, 15, 16, 17, 18, 19, 20, 21, 22, 23, 24, 25, 26, 27, 28, 29, 30, 31, 32, 33, 34, 35, 36, 37, 38, 39, 40, 41, 42, 43, 44, 45, 46, 47, 48, 49, 50, 51, 52, 53, 54, 55, 56, 57, 58, 59, 60, 61, 62, 63, 64, 65, 66, 67, 68, 69, 70, 71, 72, 73, 74, 75, 76, 77, 78, 79, 80, 81, 82, 83, 84, 85, 86, 87, 88, 89, 90, 91, 92, 93, 94, 95, 96, 97, 98, 99, 100, 101, 102, 103, 104, 105, 106, 107, 108, 109, 110, 111, 112, 113, 114, 115, 116, 117, 118, 119, 120, 121, 122, 123, 124, 125, 126, 127, 128, 129, 130, 131, 132, 133, 134, 135, 136, 137, 138, 139, 140, 141, 142, 143, 144, 145, 146, 147, 148, 149, 150, 151, 152, 153, 154, 155, 156, 157, 158, 159, 160, 161, 162, 163, 164, 165, 166, 167, 168, 169, 170, 171, 172, 173, 174, 175, 176, 177, 178, 179, 180, 181, 182, 183, 184, 185, 186, 187, 188, 189, 190, 191, 192, 193, 194, 195, 196, 197, 198, 199, 200, 201, 202, 203, 204, 205, 206, 207, 208, 209, 210, 211, 212, 213, 214, 215, 216, 217, 218, 219, 220, 221, 222, 223, 224, 225, 226, 227, 228, 229, 230, 231, 232],
      "AcquisitionTime": ["131241.527500", "131243.527500", "131245.527500", "131247.527500", "131249.527500", "131251.527500", "131253.527500", "131255.527500", "131257.527500", "131259.527500", "131301.527500", "131303.527500", "131305.527500", "131307.527500", "131309.527500", "131311.527500", "131313.527500", "131315.527500", "131317.527500", "131319.527500", "131321.527500", "131323.527500", "131325.527500", "131327.527500", "131329.527500", "131331.527500", "131333.527500", "131335.527500", "131337.527500", "131339.527500", "131341.527500", "131343.527500", "131345.527500", "131347.527500", "131349.527500", "131351.527500", "131353.527500", "131355.527500", "131357.527500", "131359.527500", "131401.527500", "131403.527500", "131405.527500", "131407.527500", "131409.527500", "131411.527500", "131413.527500", "131415.527500", "131417.527500", "131419.527500", "131421.527500", "131423.527500", "131425.527500", "131427.527500", "131429.527500", "131431.527500", "131433.527500", "131435.527500", "131437.527500", "131439.527500", "131441.527500", "131443.527500", "131445.527500", "131447.527500", "131449.527500", "131451.527500", "131453.527500", "131455.527500", "131457.527500", "131459.527500", "131501.527500", "131503.527500", "131505.527500", "131507.527500", "131509.527500", "131511.527500", "131513.527500", "131515.527500", "131517.527500", "131519.527500", "131521.527500", "131523.527500", "131525.527500", "131527.527500", "131529.527500", "131531.527500", "131533.527500", "131535.527500", "131537.527500", "131539.527500", "131541.527500", "131543.527500", "131545.527500", "131547.527500", "131549.527500", "131551.527500", "131553.527500", "131555.527500", "131557.527500", "131559.527500", "131601.527500", "131603.527500", "131605.527500", "131607.527500", "131609.527500", "131611.527500", "131613.527500", "131615.527500", "131617.527500", "131619.527500", "131621.527500", "131623.527500", "131625.527500", "131627.527500", "131629.527500", "131631.527500", "131633.527500", "131635.527500", "131637.527500", "131639.527500", "131641.527500", "131643.527500", "131645.527500", "131647.527500", "131649.527500", "131651.527500", "131653.527500", "131655.527500", "131657.527500", "131659.527500", "131701.527500", "131703.527500", "131705.527500", "131707.527500", "131709.527500", "131711.527500", "131713.527500", "131715.527500", "131717.527500", "131719.527500", "131721.527500", "131723.527500", "131725.527500", "131727.527500", "131729.527500", "131731.527500", "131733.527500", "131735.527500", "131737.527500", "131739.527500", "131741.527500", "131743.527500", "131745.527500", "131747.527500", "131749.527500", "131751.527500", "131753.527500", "131755.527500", "131757.527500", "131759.527500", "131801.527500", "131803.527500", "131805.527500", "131807.527500", "131809.527500", "131811.527500", "131813.527500", "131815.527500", "131817.527500", "131819.527500", "131821.527500", "131823.527500", "131825.527500", "131827.527500", "131829.527500", "131831.527500", "131833.527500", "131835.527500", "131837.527500", "131839.527500", "131841.527500", "131843.527500", "131845.527500", "131847.527500", "131849.527500", "131851.527500", "131853.527500", "131855.527500", "131857.527500", "131859.527500", "131901.527500", "131903.527500", "131905.527500", "131907.527500", "131909.527500", "131911.527500", "131913.527500", "131915.527500", "131917.527500", "131919.527500", "131921.527500", "131923.527500", "131925.527500", "131927.527500", "131929.527500", "131931.527500", "131933.527500", "131935.527500", "131937.527500", "131939.527500", "131941.527500", "131943.527500", "131945.527500", "131947.527500", "131949.527500", "131951.527500", "131953.527500", "131955.527500", "131957.527500", "131959.527500", "132001.527500", "132003.527500", "132005.527500", "132007.527500", "132009.527500", "132011.527500", "132013.527500", "132015.527500", "132017.527500", "132019.527500", "132021.527500", "132023.527500"],
      "ContentTime": ["131244.184000", "131246.179000", "131248.179000", "131250.180000", "131252.178000", "131254.178000", "131255.678000", "131257.679000", "131300.180000", "131302.179000", "131304.179000", "131305.679000", "131308.180000", "131310.178000", "131312.178000", "131314.178000", "131316.179000", "131318.179000", "131320.180000", "131322.179000", "131324.179000", "131325.679000", "131328.178000", "131330.179000", "131332.178000", "131334.179000", "131336.179000", "131338.179000", "131340.179000", "131341.679000", "131344.178000", "131346.178000", "131348.179000", "131350.180000", "131352.179000", "131354.179000", "131356.179000", "131358.179000", "131400.180000", "131402.178000", "131404.179000", "131406.178000", "131407.679000", "131410.179000", "131412.179000", "131413.679000", "131416.179000", "131418.179000", "131420.178000", "131421.679000", "131424.179000", "131426.180000", "131428.179000", "131430.179000", "131432.180000", "131434.179000", "131436.179000", "131437.678000", "131440.178000", "131442.179000", "131444.179000", "131445.679000", "131448.179000", "131450.179000", "131452.179000", "131454.178000", "131456.178000", "131457.678000", "131500.179000", "131502.179000", "131504.179000", "131506.179000", "131508.179000", "131510.180000", "131512.178000", "131514.178000", "131516.178000", "131518.179000", "131520.180000", "131522.179000", "131524.180000", "131526.179000", "131528.180000", "131530.179000", "131532.179000", "131534.179000", "131536.179000", "131538.180000", "131540.180000", "131542.179000", "131543.680000", "131546.179000", "131548.178000", "131550.178000", "131552.178000", "131554.180000", "131555.679000", "131558.179000", "131600.180000", "131602.179000", "131603.679000", "131606.178000", "131608.179000", "131610.179000", "131612.179000", "131614.179000", "131616.179000", "131618.179000", "131620.179000", "131622.178000", "131624.179000", "131626.178000", "131628.179000", "131630.179000", "131632.180000", "131634.180000", "131636.179000", "131638.180000", "131640.179000", "131642.179000", "131644.179000", "131646.185000", "131648.179000", "131649.680000", "131652.180000", "131654.179000", "131656.179000", "131658.178000", "131700.178000", "131702.179000", "131704.180000", "131706.179000", "131708.179000", "131710.179000", "131712.179000", "131714.179000", "131716.178000", "131718.178000", "131720.179000", "131721.679000", "131724.180000", "131726.179000", "131728.179000", "131730.179000", "131732.178000", "131734.179000", "131736.178000", "131738.179000", "131740.179000", "131742.179000", "131744.179000", "131746.179000", "131748.180000", "131750.178000", "131752.179000", "131754.178000", "131756.179000", "131758.179000", "131800.179000", "131802.179000", "131804.179000", "131806.179000", "131808.178000", "131810.178000", "131812.178000", "131814.179000", "131816.179000", "131818.179000", "131820.179000", "131822.179000", "131824.178000", "131826.178000", "131828.178000", "131830.179000", "131832.179000", "131833.679000", "131836.179000", "131838.179000", "131840.180000", "131841.678000", "131844.179000", "131846.178000", "131848.179000", "131850.179000", "131852.180000", "131854.180000", "131856.179000", "131858.179000", "131900.178000", "131902.178000", "131904.178000", "131906.179000", "131908.180000", "131910.179000", "131912.179000", "131914.179000", "131916.179000", "131918.178000", "131920.178000", "131922.180000", "131924.179000", "131926.179000", "131928.180000", "131930.179000", "131932.179000", "131934.179000", "131936.179000", "131938.178000", "131940.180000", "131942.180000", "131944.179000", "131946.180000", "131948.179000", "131950.179000", "131952.179000", "131953.678000", "131956.179000", "131958.180000", "132000.180000", "132002.180000", "132004.179000", "132006.180000", "132008.179000", "132010.178000", "132012.179000", "132013.679000", "132016.180000", "132018.180000", "132020.179000", "132022.179000", "132024.179000", "132025.646000"],
      "InstanceCreationTime": ["131244.184000", "131246.179000", "131248.179000", "131250.180000", "131252.178000", "131254.178000", "131255.678000", "131257.679000", "131300.180000", "131302.179000", "131304.179000", "131305.679000", "131308.180000", "131310.178000", "131312.178000", "131314.178000", "131316.179000", "131318.179000", "131320.180000", "131322.179000", "131324.179000", "131325.679000", "131328.178000", "131330.179000", "131332.178000", "131334.179000", "131336.179000", "131338.179000", "131340.179000", "131341.679000", "131344.178000", "131346.178000", "131348.179000", "131350.180000", "131352.179000", "131354.179000", "131356.179000", "131358.179000", "131400.180000", "131402.178000", "131404.179000", "131406.178000", "131407.679000", "131410.179000", "131412.179000", "131413.679000", "131416.179000", "131418.179000", "131420.178000", "131421.679000", "131424.179000", "131426.180000", "131428.179000", "131430.179000", "131432.180000", "131434.179000", "131436.179000", "131437.678000", "131440.178000", "131442.179000", "131444.179000", "131445.679000", "131448.179000", "131450.179000", "131452.179000", "131454.178000", "131456.178000", "131457.678000", "131500.179000", "131502.179000", "131504.179000", "131506.179000", "131508.179000", "131510.180000", "131512.178000", "131514.178000", "131516.178000", "131518.179000", "131520.180000", "131522.179000", "131524.180000", "131526.179000", "131528.180000", "131530.179000", "131532.179000", "131534.179000", "131536.179000", "131538.180000", "131540.180000", "131542.179000", "131543.680000", "131546.179000", "131548.178000", "131550.178000", "131552.178000", "131554.180000", "131555.679000", "131558.179000", "131600.180000", "131602.179000", "131603.679000", "131606.178000", "131608.179000", "131610.179000", "131612.179000", "131614.179000", "131616.179000", "131618.179000", "131620.179000", "131622.178000", "131624.179000", "131626.178000", "131628.179000", "131630.179000", "131632.180000", "131634.180000", "131636.179000", "131638.180000", "131640.179000", "131642.179000", "131644.179000", "131646.185000", "131648.179000", "131649.680000", "131652.180000", "131654.179000", "131656.179000", "131658.178000", "131700.178000", "131702.179000", "131704.180000", "131706.179000", "131708.179000", "131710.179000", "131712.179000", "131714.179000", "131716.178000", "131718.178000", "131720.179000", "131721.679000", "131724.180000", "131726.179000", "131728.179000", "131730.179000", "131732.178000", "131734.179000", "131736.178000", "131738.179000", "131740.179000", "131742.179000", "131744.179000", "131746.179000", "131748.180000", "131750.178000", "131752.179000", "131754.178000", "131756.179000", "131758.179000", "131800.179000", "131802.179000", "131804.179000", "131806.179000", "131808.178000", "131810.178000", "131812.178000", "131814.179000", "131816.179000", "131818.179000", "131820.179000", "131822.179000", "131824.178000", "131826.178000", "131828.178000", "131830.179000", "131832.179000", "131833.679000", "131836.179000", "131838.179000", "131840.180000", "131841.678000", "131844.179000", "131846.178000", "131848.179000", "131850.179000", "131852.180000", "131854.180000", "131856.179000", "131858.179000", "131900.178000", "131902.178000", "131904.178000", "131906.179000", "131908.180000", "131910.179000", "131912.179000", "131914.179000", "131916.179000", "131918.178000", "131920.178000", "131922.180000", "131924.179000", "131926.179000", "131928.180000", "131930.179000", "131932.179000", "131934.179000", "131936.179000", "131938.178000", "131940.180000", "131942.180000", "131944.179000", "131946.180000", "131948.179000", "131950.179000", "131952.179000", "131953.678000", "131956.179000", "131958.180000", "132000.180000", "132002.180000", "132004.179000", "132006.180000", "132008.179000", "132010.178000", "132012.179000", "132013.679000", "132016.180000", "132018.180000", "132020.179000", "132022.179000", "132024.179000", "132025.646000"],
      "InstanceNumber": [1, 2, 3, 4, 5, 6, 7, 8, 9, 10, 11, 12, 13, 14, 15, 16, 17, 18, 19, 20, 21, 22, 23, 24, 25, 26, 27, 28, 29, 30, 31, 32, 33, 34, 35, 36, 37, 38, 39, 40, 41, 42, 43, 44, 45, 46, 47, 48, 49, 50, 51, 52, 53, 54, 55, 56, 57, 58, 59, 60, 61, 62, 63, 64, 65, 66, 67, 68, 69, 70, 71, 72, 73, 74, 75, 76, 77, 78, 79, 80, 81, 82, 83, 84, 85, 86, 87, 88, 89, 90, 91, 92, 93, 94, 95, 96, 97, 98, 99, 100, 101, 102, 103, 104, 105, 106, 107, 108, 109, 110, 111, 112, 113, 114, 115, 116, 117, 118, 119, 120, 121, 122, 123, 124, 125, 126, 127, 128, 129, 130, 131, 132, 133, 134, 135, 136, 137, 138, 139, 140, 141, 142, 143, 144, 145, 146, 147, 148, 149, 150, 151, 152, 153, 154, 155, 156, 157, 158, 159, 160, 161, 162, 163, 164, 165, 166, 167, 168, 169, 170, 171, 172, 173, 174, 175, 176, 177, 178, 179, 180, 181, 182, 183, 184, 185, 186, 187, 188, 189, 190, 191, 192, 193, 194, 195, 196, 197, 198, 199, 200, 201, 202, 203, 204, 205, 206, 207, 208, 209, 210, 211, 212, 213, 214, 215, 216, 217, 218, 219, 220, 221, 222, 223, 224, 225, 226, 227, 228, 229, 230, 231, 232],
      "LargestImagePixelValue": [3133, 3086, 3091, 3026, 3054, 3052, 3048, 3089, 3021, 3008, 3042, 3032, 3027, 3035, 3065, 3027, 3026, 3035, 3019, 3014, 3041, 3045, 3052, 3048, 3011, 2993, 3012, 3018, 2998, 2987, 3025, 2992, 2996, 2985, 2963, 2958, 2989, 2901, 2955, 3014, 3017, 2955, 2999, 2990, 2943, 3017, 2924, 2930, 3026, 3050, 3027, 3016, 3040, 3052, 3054, 3024, 2991, 3082, 3083, 3016, 3057, 3044, 3058, 3093, 3112, 3077, 3054, 3031, 3041, 3032, 3023, 3070, 3094, 3091, 3089, 3079, 3062, 3083, 3045, 3057, 3061, 3023, 2975, 3016, 3077, 3114, 3142, 3109, 3023, 2980, 3011, 3048, 3036, 3021, 3015, 2979, 2974, 3015, 3049, 3068, 3053, 3034, 2986, 2966, 2941, 2944, 2964, 2972, 3005, 2994, 2988, 2971, 2967, 3003, 3010, 3016, 3012, 2931, 2992, 2953, 2997, 2978, 3006, 2966, 2936, 2921, 2928, 2928, 2948, 2956, 2977, 2947, 2962, 2928, 2929, 2951, 2953, 2932, 2944, 2933, 3012, 2956, 2936, 2960, 2969, 2940, 2924, 2943, 2938, 2965, 2920, 2944, 2919, 2973, 3063, 3065, 3027, 3023, 3034, 2988, 2942, 2960, 2970, 2959, 2986, 2945, 2960, 2940, 2937, 2942, 2956, 2923, 2965, 2948, 2973, 2927, 2943, 2955, 2954, 2944, 2980, 2972, 2987, 2940, 2939, 3058, 2993, 3036, 3031, 3006, 3060, 3039, 2947, 2998, 3003, 2984, 3033, 3006, 3026, 2995, 2995, 2939, 2901, 2915, 2935, 2929, 2932, 2952, 2917, 2989, 2952, 2990, 2978, 2963, 3013, 2954, 2924, 2941, 2945, 2912, 2943, 2902, 2925, 2870, 2884, 2913, 2953, 2937, 2900, 2916, 2895, 2916],
      "WindowCenter": [761.0, 759.0, 759.0, 757.0, 759.0, 759.0, 759.0, 760.0, 759.0, 759.0, 760.0, 760.0, 760.0, 759.0, 759.0, 759.0, 759.0, 760.0, 760.0, 760.0, 761.0, 761.0, 761.0, 761.0, 761.0, 762.0, 762.0, 762.0, 761.0, 761.0, 760.0, 759.0, 759.0, 759.0, 759.0, 758.0, 758.0, 758.0, 758.0, 758.0, 759.0, 760.0, 761.0, 760.0, 757.0, 759.0, 758.0, 757.0, 758.0, 759.0, 759.0, 760.0, 761.0, 760.0, 761.0, 761.0, 761.0, 764.0, 763.0, 762.0, 762.0, 762.0, 762.0, 763.0, 765.0, 761.0, 760.0, 760.0, 759.0, 759.0, 759.0, 761.0, 762.0, 762.0, 762.0, 760.0, 761.0, 761.0, 761.0, 761.0, 762.0, 762.0, 762.0, 763.0, 765.0, 767.0, 766.0, 764.0, 762.0, 762.0, 762.0, 763.0, 762.0, 761.0, 762.0, 762.0, 763.0, 764.0, 765.0, 764.0, 761.0, 760.0, 760.0, 760.0, 760.0, 761.0, 762.0, 763.0, 762.0, 760.0, 759.0, 759.0, 760.0, 761.0, 762.0, 762.0, 762.0, 761.0, 761.0, 763.0, 764.0, 763.0, 762.0, 760.0, 760.0, 760.0, 761.0, 762.0, 763.0, 763.0, 762.0, 760.0, 760.0, 759.0, 759.0, 760.0, 761.0, 761.0, 762.0, 763.0, 764.0, 762.0, 761.0, 760.0, 761.0, 760.0, 760.0, 760.0, 760.0, 761.0, 760.0, 761.0, 760.0, 762.0, 764.0, 765.0, 764.0, 762.0, 760.0, 761.0, 759.0, 759.0, 760.0, 760.0, 761.0, 760.0, 761.0, 761.0, 761.0, 762.0, 762.0, 760.0, 760.0, 761.0, 762.0, 763.0, 763.0, 762.0, 760.0, 760.0, 759.0, 758.0, 759.0, 760.0, 761.0, 763.0, 761.0, 761.0, 760.0, 760.0, 760.0, 760.0, 760.0, 762.0, 763.0, 763.0, 764.0, 762.0, 761.0, 762.0, 761.0, 761.0, 760.0, 761.0, 761.0, 761.0, 759.0, 759.0, 759.0, 760.0, 761.0, 761.0, 761.0, 762.0, 764.0, 761.0, 759.0, 758.0, 758.0, 759.0, 759.0, 759.0, 760.0, 759.0, 759.0, 759.0, 760.0, 759.0, 759.0, 759.0, 759.0, 759.0],
      "WindowWidth": [1656.0, 1650.0, 1649.0, 1646.0, 1649.0, 1649.0, 1651.0, 1653.0, 1650.0, 1650.0, 1653.0, 1653.0, 1652.0, 1651.0, 1650.0, 1650.0, 1650.0, 1651.0, 1652.0, 1654.0, 1656.0, 1655.0, 1656.0, 1657.0, 1657.0, 1658.0, 1659.0, 1660.0, 1657.0, 1655.0, 1652.0, 1650.0, 1651.0, 1649.0, 1649.0, 1648.0, 1649.0, 1646.0, 1646.0, 1648.0, 1651.0, 1653.0, 1656.0, 1652.0, 1645.0, 1651.0, 1646.0, 1645.0, 1648.0, 1651.0, 1651.0, 1652.0, 1654.0, 1654.0, 1657.0, 1657.0, 1657.0, 1663.0, 1661.0, 1658.0, 1659.0, 1659.0, 1659.0, 1663.0, 1666.0, 1657.0, 1653.0, 1652.0, 1649.0, 1649.0, 1651.0, 1655.0, 1657.0, 1659.0, 1657.0, 1654.0, 1654.0, 1656.0, 1655.0, 1655.0, 1658.0, 1658.0, 1659.0, 1663.0, 1668.0, 1672.0, 1671.0, 1665.0, 1657.0, 1657.0, 1659.0, 1660.0, 1659.0, 1656.0, 1657.0, 1658.0, 1661.0, 1664.0, 1667.0, 1663.0, 1656.0, 1653.0, 1652.0, 1652.0, 1653.0, 1656.0, 1658.0, 1661.0, 1658.0, 1653.0, 1650.0, 1651.0, 1652.0, 1655.0, 1659.0, 1658.0, 1657.0, 1655.0, 1657.0, 1660.0, 1663.0, 1660.0, 1657.0, 1652.0, 1651.0, 1653.0, 1655.0, 1658.0, 1660.0, 1661.0, 1657.0, 1651.0, 1652.0, 1650.0, 1650.0, 1652.0, 1654.0, 1656.0, 1658.0, 1661.0, 1663.0, 1659.0, 1654.0, 1653.0, 1655.0, 1653.0, 1653.0, 1653.0, 1653.0, 1655.0, 1653.0, 1654.0, 1653.0, 1659.0, 1665.0, 1667.0, 1664.0, 1657.0, 1653.0, 1654.0, 1649.0, 1651.0, 1652.0, 1653.0, 1656.0, 1654.0, 1655.0, 1655.0, 1656.0, 1657.0, 1657.0, 1653.0, 1653.0, 1654.0, 1659.0, 1661.0, 1661.0, 1658.0, 1652.0, 1651.0, 1650.0, 1647.0, 1650.0, 1652.0, 1656.0, 1661.0, 1655.0, 1654.0, 1653.0, 1653.0, 1653.0, 1652.0, 1651.0, 1657.0, 1662.0, 1662.0, 1663.0, 1659.0, 1656.0, 1657.0, 1655.0, 1654.0, 1653.0, 1655.0, 1654.0, 1654.0, 1650.0, 1649.0, 1649.0, 1651.0, 1653.0, 1654.0, 1656.0, 1657.0, 1662.0, 1654.0, 1648.0, 1648.0, 1647.0, 1649.0, 1650.0, 1651.0, 1651.0, 1648.0, 1650.0, 1650.0, 1652.0, 1650.0, 1650.0, 1649.0, 1650.0, 1651.0]
    },
    "slices": {}
  }
}