{
  "AcquisitionMatrixPE": 100,
  "AcquisitionNumber": 1,
  "AcquisitionTime": "13:04:13.192500",
  "BandwidthPerPixelPhaseEncode": 18.519,
  "BaseResolution": 100,
  "BodyPartExamined": "BRAIN",
  "ConsistencyInfo": "N4_VE11C_LATEST_20160120",
  "ConversionSoftware": "dcm2niix",
  "ConversionSoftwareVersion": "v1.0.20180622 GCC4.9.2",
  "DerivedVendorReportedEchoSpacing": 0.000539986,
  "DeviceSerialNumber": "166078",
  "DwellTime": 2.1e-06,
  "EchoTime": 0.034,
  "EchoTrainLength": 100,
  "EffectiveEchoSpacing": 0.000539986,
  "FlipAngle": 90,
  "ImageOrientationPatientDICOM": [0.999091, -0.000823605, -0.0426257, -0.00348748, 0.994884, -0.100965],
  "ImageType": [
    "ORIGINAL",
    "PRIMARY",
    "M",
    "ND",
    "MOSAIC"
],
  "InPlanePhaseEncodingDirectionDICOM": "COL",
  "InstitutionAddress": "Street_StreetNo_Bei_Jing_District_CN_ZIP",
  "InstitutionName": "BeiJing_Normal_University",
  "InstitutionalDepartmentName": "Department",
  "MRAcquisitionType": "2D",
  "MagneticFieldStrength": 3,
  "Manufacturer": "Siemens",
  "ManufacturersModelName": "Prisma",
  "Modality": "MR",
  "MultibandAccelerationFactor": 3,
  "PartialFourier": 1,
  "PatientPosition": "HFS",
  "PercentPhaseFOV": 100,
  "PhaseEncodingDirection": "j-",
  "PhaseEncodingSteps": 100,
  "PhaseResolution": 1,
  "PixelBandwidth": 2380,
  "ProcedureStepDescription": "BNU_P2018_64CH_Liu.Jia",
  "ProtocolName": "bold_100x100_s3_2x2x2_232",
  "PulseSequenceDetails": "%SiemensSeq%_ep2d_bold",
  "ReceiveCoilActiveElements": "HC1-7;NC1",
  "ReceiveCoilName": "HeadNeck_64",
  "ReconMatrixPE": 100,
  "RepetitionTime": 2,
  "SAR": 0.073355,
  "ScanOptions": "FS",
  "ScanningSequence": "EP",
  "SequenceName": "_epfid2d1_100",
  "SequenceVariant": "SK",
  "SeriesDescription": "bold_100x100_s3_2x2x2_232",
  "SeriesNumber": 4,
  "ShimSetting": [-5480, -11480, -1316, 310, 19, -257, -166, 55],
  "SliceThickness": 2,
  "SliceTiming": [1.485, 0, 0.99, 0.0825, 1.0725, 0.165, 1.155, 0.2475, 1.2375, 0.33, 1.32, 0.4125, 1.4025, 0.5775, 1.5675, 0.66, 1.65, 0.7425, 1.7325, 0.825, 1.815, 0.9075, 1.8975, 0.495, 1.485, 0, 0.99, 0.0825, 1.0725, 0.165, 1.155, 0.2475, 1.2375, 0.33, 1.32, 0.4125, 1.4025, 0.5775, 1.5675, 0.66, 1.65, 0.7425, 1.7325, 0.825, 1.815, 0.9075, 1.8975, 0.495, 1.485, 0, 0.99, 0.0825, 1.0725, 0.165, 1.155, 0.2475, 1.2375, 0.33, 1.32, 0.4125, 1.4025, 0.5775, 1.5675, 0.66, 1.65, 0.7425, 1.7325, 0.825, 1.815, 0.9075, 1.8975, 0.495],
  "SoftwareVersions": "syngo_MR_E11",
  "SpacingBetweenSlices": 2,
  "StationName": "AWP166078",
  "TaskName": "motor",
  "TotalReadoutTime": 0.0534586,
  "TxRefAmp": 218.155,
  "dcmmeta_affine": [
    [-1.9981815814971924, -0.006974957417696714, -0.08498155325651169, 102.73722076416016],
    [0.0016472090501338243, 1.9897677898406982, -0.20204345881938934, -81.63878631591797],
    [-0.08525140583515167, 0.2019297480583191, 1.987952709197998, -77.99530792236328],
    [0.0, 0.0, 0.0, 1.0]
],
  "dcmmeta_reorient_transform": [
    [0.0, -1.0, 0.0, 99.0],
    [1.0, 0.0, 0.0, 0.0],
    [0.0, 0.0, 1.0, 0.0],
    [0.0, 0.0, 0.0, 1.0]
],
  "dcmmeta_shape": [100, 100, 72, 232],
  "dcmmeta_slice_dim": 2,
  "dcmmeta_version": 0.6,
  "global": {
    "const": {
      "AcquisitionMatrix": [100, 0, 0, 100],
      "AngioFlag": "N",
      "BitsAllocated": 16,
      "BitsStored": 12,
      "BodyPartExamined": "BRAIN",
      "Columns": 900,
      "EchoNumbers": 1,
      "EchoTime": 34.0,
      "EchoTrainLength": 100,
      "FlipAngle": 90.0,
      "HighBit": 11,
      "ImageOrientationPatient": [0.99909077227456, -0.0008236045004, -0.0426257015361, -0.0034874787693, 0.99488387823947, -0.1009648766207],
      "ImagePositionPatient": [-898.52933352614, -910.59644321113, 56.868200944092],
      "ImageType": [
        "ORIGINAL",
        "PRIMARY",
        "M",
        "ND",
        "MOSAIC"
],
      "ImagedNucleus": "1H",
      "ImagingFrequency": 123.257845,
      "InPlanePhaseEncodingDirection": "COL",
      "MRAcquisitionType": "2D",
      "MagneticFieldStrength": 3.0,
      "Manufacturer": "SIEMENS",
      "ManufacturerModelName": "Prisma",
      "Modality": "MR",
      "NumberOfAverages": 1.0,
      "NumberOfPhaseEncodingSteps": 100,
      "PercentPhaseFieldOfView": 100.0,
      "PercentSampling": 100.0,
      "PerformedProcedureStepStartTime": "125319.521000",
      "PhotometricInterpretation": "MONOCHROME2",
      "PixelBandwidth": 2380.0,
      "PixelRepresentation": 0,
      "PixelSpacing": [2.0, 2.0],
      "ProtocolName": "bold_100x100_s3_2x2x2_232",
      "RepetitionTime": 2000.0,
      "Rows": 900,
      "SAR": 0.07335498343538,
      "SamplesPerPixel": 1,
      "ScanOptions": "FS",
      "ScanningSequence": "EP",
      "SequenceName": "*epfid2d1_100",
      "SequenceVariant": "SK",
      "SeriesDescription": "bold_100x100_s3_2x2x2_232",
      "SeriesNumber": 4,
      "SeriesTime": "130415.890000",
      "SliceLocation": -73.643589991848,
      "SliceThickness": 2.0,
      "SmallestImagePixelValue": 0,
      "SoftwareVersions": "syngo MR E11",
      "SpacingBetweenSlices": 1.9999998972992,
      "SpecificCharacterSet": "ISO_IR 100",
      "StudyID": "1",
      "StudyTime": "125319.432000",
      "TransmitCoilName": "Body",
      "VariableFlipAngleFlag": "N",
      "WindowCenterWidthExplanation": "Algo1",
      "dBdt": 0.0},
    "slices": {}
  },
  "time": {
    "samples": {
      "AcquisitionNumber": [1, 2, 3, 4, 5, 6, 7, 8, 9, 10, 11, 12, 13, 14, 15, 16, 17, 18, 19, 20, 21, 22, 23, 24, 25, 26, 27, 28, 29, 30, 31, 32, 33, 34, 35, 36, 37, 38, 39, 40, 41, 42, 43, 44, 45, 46, 47, 48, 49, 50, 51, 52, 53, 54, 55, 56, 57, 58, 59, 60, 61, 62, 63, 64, 65, 66, 67, 68, 69, 70, 71, 72, 73, 74, 75, 76, 77, 78, 79, 80, 81, 82, 83, 84, 85, 86, 87, 88, 89, 90, 91, 92, 93, 94, 95, 96, 97, 98, 99, 100, 101, 102, 103, 104, 105, 106, 107, 108, 109, 110, 111, 112, 113, 114, 115, 116, 117, 118, 119, 120, 121, 122, 123, 124, 125, 126, 127, 128, 129, 130, 131, 132, 133, 134, 135, 136, 137, 138, 139, 140, 141, 142, 143, 144, 145, 146, 147, 148, 149, 150, 151, 152, 153, 154, 155, 156, 157, 158, 159, 160, 161, 162, 163, 164, 165, 166, 167, 168, 169, 170, 171, 172, 173, 174, 175, 176, 177, 178, 179, 180, 181, 182, 183, 184, 185, 186, 187, 188, 189, 190, 191, 192, 193, 194, 195, 196, 197, 198, 199, 200, 201, 202, 203, 204, 205, 206, 207, 208, 209, 210, 211, 212, 213, 214, 215, 216, 217, 218, 219, 220, 221, 222, 223, 224, 225, 226, 227, 228, 229, 230, 231, 232],
      "AcquisitionTime": ["130413.192500", "130415.192500", "130417.192500", "130419.192500", "130421.192500", "130423.192500", "130425.192500", "130427.192500", "130429.192500", "130431.192500", "130433.192500", "130435.192500", "130437.192500", "130439.192500", "130441.192500", "130443.192500", "130445.192500", "130447.192500", "130449.192500", "130451.192500", "130453.192500", "130455.192500", "130457.192500", "130459.192500", "130501.192500", "130503.192500", "130505.192500", "130507.192500", "130509.192500", "130511.192500", "130513.192500", "130515.192500", "130517.192500", "130519.192500", "130521.192500", "130523.192500", "130525.192500", "130527.192500", "130529.192500", "130531.192500", "130533.192500", "130535.192500", "130537.192500", "130539.192500", "130541.192500", "130543.192500", "130545.192500", "130547.192500", "130549.192500", "130551.192500", "130553.192500", "130555.192500", "130557.192500", "130559.192500", "130601.192500", "130603.192500", "130605.192500", "130607.192500", "130609.192500", "130611.192500", "130613.192500", "130615.192500", "130617.192500", "130619.192500", "130621.192500", "130623.192500", "130625.192500", "130627.192500", "130629.192500", "130631.192500", "130633.192500", "130635.192500", "130637.192500", "130639.192500", "130641.192500", "130643.192500", "130645.192500", "130647.192500", "130649.192500", "130651.192500", "130653.192500", "130655.192500", "130657.192500", "130659.192500", "130701.192500", "130703.192500", "130705.192500", "130707.192500", "130709.192500", "130711.192500", "130713.192500", "130715.192500", "130717.192500", "130719.192500", "130721.192500", "130723.192500", "130725.192500", "130727.192500", "130729.192500", "130731.192500", "130733.192500", "130735.192500", "130737.192500", "130739.192500", "130741.192500", "130743.192500", "130745.192500", "130747.192500", "130749.192500", "130751.192500", "130753.192500", "130755.192500", "130757.192500", "130759.192500", "130801.192500", "130803.192500", "130805.192500", "130807.192500", "130809.192500", "130811.192500", "130813.192500", "130815.192500", "130817.192500", "130819.192500", "130821.192500", "130823.192500", "130825.192500", "130827.192500", "130829.192500", "130831.192500", "130833.192500", "130835.192500", "130837.192500", "130839.192500", "130841.192500", "130843.192500", "130845.192500", "130847.192500", "130849.192500", "130851.192500", "130853.192500", "130855.192500", "130857.192500", "130859.192500", "130901.192500", "130903.192500", "130905.192500", "130907.192500", "130909.192500", "130911.192500", "130913.192500", "130915.192500", "130917.192500", "130919.192500", "130921.192500", "130923.192500", "130925.192500", "130927.192500", "130929.192500", "130931.192500", "130933.192500", "130935.192500", "130937.192500", "130939.192500", "130941.192500", "130943.192500", "130945.192500", "130947.192500", "130949.192500", "130951.192500", "130953.192500", "130955.192500", "130957.192500", "130959.192500", "131001.192500", "131003.192500", "131005.192500", "131007.192500", "131009.192500", "131011.192500", "131013.192500", "131015.192500", "131017.192500", "131019.192500", "131021.192500", "131023.192500", "131025.192500", "131027.192500", "131029.192500", "131031.192500", "131033.192500", "131035.192500", "131037.192500", "131039.192500", "131041.192500", "131043.192500", "131045.192500", "131047.192500", "131049.192500", "131051.192500", "131053.192500", "131055.192500", "131057.192500", "131059.192500", "131101.192500", "131103.192500", "131105.192500", "131107.192500", "131109.192500", "131111.192500", "131113.192500", "131115.192500", "131117.192500", "131119.192500", "131121.192500", "131123.192500", "131125.192500", "131127.192500", "131129.192500", "131131.192500", "131133.192500", "131135.192500", "131137.192500", "131139.192500", "131141.192500", "131143.192500", "131145.192500", "131147.192500", "131149.192500", "131151.192500", "131153.192500", "131155.192500"],
      "ContentTime": ["130415.893000", "130417.389000", "130419.388000", "130421.388000", "130423.389000", "130425.388000", "130427.388000", "130429.389000", "130431.389000", "130433.389000", "130435.389000", "130437.388000", "130439.388000", "130441.388000", "130443.388000", "130445.388000", "130447.388000", "130449.389000", "130451.389000", "130453.390000", "130455.388000", "130457.388000", "130459.388000", "130501.388000", "130503.388000", "130505.388000", "130507.389000", "130509.389000", "130511.389000", "130513.389000", "130515.389000", "130517.388000", "130519.389000", "130521.388000", "130523.389000", "130525.389000", "130527.389000", "130529.389000", "130531.389000", "130533.388000", "130535.388000", "130537.388000", "130539.388000", "130541.389000", "130543.389000", "130545.390000", "130547.389000", "130549.388000", "130551.388000", "130553.388000", "130555.388000", "130557.389000", "130559.389000", "130601.389000", "130603.389000", "130605.388000", "130607.388000", "130609.389000", "130611.389000", "130613.389000", "130615.390000", "130617.389000", "130619.389000", "130621.390000", "130623.389000", "130625.389000", "130627.389000", "130629.388000", "130631.388000", "130633.390000", "130635.389000", "130637.389000", "130639.389000", "130641.389000", "130643.388000", "130645.388000", "130647.389000", "130649.389000", "130651.389000", "130653.389000", "130655.390000", "130657.388000", "130659.389000", "130701.389000", "130703.389000", "130705.388000", "130707.388000", "130709.389000", "130711.389000", "130713.390000", "130715.388000", "130717.388000", "130719.388000", "130721.388000", "130723.388000", "130725.389000", "130727.389000", "130729.390000", "130731.390000", "130733.388000", "130735.388000", "130737.388000", "130739.388000", "130741.388000", "130743.389000", "130745.389000", "130747.389000", "130749.388000", "130751.389000", "130753.388000", "130755.388000", "130757.388000", "130759.388000", "130801.389000", "130803.389000", "130805.389000", "130807.388000", "130809.388000", "130811.389000", "130813.389000", "130815.389000", "130817.388000", "130819.389000", "130821.389000", "130823.389000", "130825.389000", "130827.388000", "130829.388000", "130831.388000", "130833.389000", "130835.390000", "130837.390000", "130839.390000", "130841.389000", "130843.389000", "130845.388000", "130847.388000", "130849.388000", "130851.388000", "130853.389000", "130855.389000", "130857.389000", "130859.388000", "130901.388000", "130903.388000", "130905.389000", "130907.389000", "130909.389000", "130911.389000", "130913.389000", "130915.389000", "130917.388000", "130919.389000", "130921.389000", "130923.388000", "130925.388000", "130927.388000", "130929.389000", "130931.389000", "130933.390000", "130935.388000", "130937.388000", "130939.389000", "130941.388000", "130943.388000", "130945.390000", "130947.390000", "130949.390000", "130951.390000", "130953.388000", "130955.389000", "130957.389000", "130959.389000", "131001.388000", "131003.390000", "131005.390000", "131007.389000", "131009.388000", "131011.388000", "131013.388000", "131015.389000", "131017.388000", "131019.388000", "131021.389000", "131023.389000", "131025.389000", "131027.388000", "131029.389000", "131031.389000", "131033.389000", "131035.389000", "131037.389000", "131039.390000", "131041.390000", "131043.389000", "131045.388000", "131047.389000", "131049.389000", "131051.389000", "131053.388000", "131055.389000", "131057.389000", "131059.390000", "131101.389000", "131103.388000", "131105.389000", "131107.389000", "131109.389000", "131111.389000", "131113.390000", "131115.389000", "131117.389000", "131119.388000", "131121.388000", "131123.389000", "131125.388000", "131127.388000", "131129.388000", "131131.389000", "131133.389000", "131135.390000", "131137.388000", "131139.388000", "131141.389000", "131143.389000", "131145.388000", "131147.389000", "131149.390000", "131151.389000", "131153.389000", "131155.389000", "131156.989000"],
      "InstanceCreationTime": ["130415.893000", "130417.389000", "130419.388000", "130421.388000", "130423.389000", "130425.388000", "130427.388000", "130429.389000", "130431.389000", "130433.389000", "130435.389000", "130437.388000", "130439.388000", "130441.388000", "130443.388000", "130445.388000", "130447.388000", "130449.389000", "130451.389000", "130453.390000", "130455.388000", "130457.388000", "130459.388000", "130501.388000", "130503.388000", "130505.388000", "130507.389000", "130509.389000", "130511.389000", "130513.389000", "130515.389000", "130517.388000", "130519.389000", "130521.388000", "130523.389000", "130525.389000", "130527.389000", "130529.389000", "130531.389000", "130533.388000", "130535.388000", "130537.388000", "130539.388000", "130541.389000", "130543.389000", "130545.390000", "130547.389000", "130549.388000", "130551.388000", "130553.388000", "130555.388000", "130557.389000", "130559.389000", "130601.389000", "130603.389000", "130605.388000", "130607.388000", "130609.389000", "130611.389000", "130613.389000", "130615.390000", "130617.389000", "130619.389000", "130621.390000", "130623.389000", "130625.389000", "130627.389000", "130629.388000", "130631.388000", "130633.390000", "130635.389000", "130637.389000", "130639.389000", "130641.389000", "130643.388000", "130645.388000", "130647.389000", "130649.389000", "130651.389000", "130653.389000", "130655.390000", "130657.388000", "130659.389000", "130701.389000", "130703.389000", "130705.388000", "130707.388000", "130709.389000", "130711.389000", "130713.390000", "130715.388000", "130717.388000", "130719.388000", "130721.388000", "130723.388000", "130725.389000", "130727.389000", "130729.390000", "130731.390000", "130733.388000", "130735.388000", "130737.388000", "130739.388000", "130741.388000", "130743.389000", "130745.389000", "130747.389000", "130749.388000", "130751.389000", "130753.388000", "130755.388000", "130757.388000", "130759.388000", "130801.389000", "130803.389000", "130805.389000", "130807.388000", "130809.388000", "130811.389000", "130813.389000", "130815.389000", "130817.388000", "130819.389000", "130821.389000", "130823.389000", "130825.389000", "130827.388000", "130829.388000", "130831.388000", "130833.389000", "130835.390000", "130837.390000", "130839.390000", "130841.389000", "130843.389000", "130845.388000", "130847.388000", "130849.388000", "130851.388000", "130853.389000", "130855.389000", "130857.389000", "130859.388000", "130901.388000", "130903.388000", "130905.389000", "130907.389000", "130909.389000", "130911.389000", "130913.389000", "130915.389000", "130917.388000", "130919.389000", "130921.389000", "130923.388000", "130925.388000", "130927.388000", "130929.389000", "130931.389000", "130933.390000", "130935.388000", "130937.388000", "130939.389000", "130941.388000", "130943.388000", "130945.390000", "130947.390000", "130949.390000", "130951.390000", "130953.388000", "130955.389000", "130957.389000", "130959.389000", "131001.388000", "131003.390000", "131005.390000", "131007.389000", "131009.388000", "131011.388000", "131013.388000", "131015.389000", "131017.388000", "131019.388000", "131021.389000", "131023.389000", "131025.389000", "131027.388000", "131029.389000", "131031.389000", "131033.389000", "131035.389000", "131037.389000", "131039.390000", "131041.390000", "131043.389000", "131045.388000", "131047.389000", "131049.389000", "131051.389000", "131053.388000", "131055.389000", "131057.389000", "131059.390000", "131101.389000", "131103.388000", "131105.389000", "131107.389000", "131109.389000", "131111.389000", "131113.390000", "131115.389000", "131117.389000", "131119.388000", "131121.388000", "131123.389000", "131125.388000", "131127.388000", "131129.388000", "131131.389000", "131133.389000", "131135.390000", "131137.388000", "131139.388000", "131141.389000", "131143.389000", "131145.388000", "131147.389000", "131149.390000", "131151.389000", "131153.389000", "131155.389000", "131156.989000"],
      "InstanceNumber": [1, 2, 3, 4, 5, 6, 7, 8, 9, 10, 11, 12, 13, 14, 15, 16, 17, 18, 19, 20, 21, 22, 23, 24, 25, 26, 27, 28, 29, 30, 31, 32, 33, 34, 35, 36, 37, 38, 39, 40, 41, 42, 43, 44, 45, 46, 47, 48, 49, 50, 51, 52, 53, 54, 55, 56, 57, 58, 59, 60, 61, 62, 63, 64, 65, 66, 67, 68, 69, 70, 71, 72, 73, 74, 75, 76, 77, 78, 79, 80, 81, 82, 83, 84, 85, 86, 87, 88, 89, 90, 91, 92, 93, 94, 95, 96, 97, 98, 99, 100, 101, 102, 103, 104, 105, 106, 107, 108, 109, 110, 111, 112, 113, 114, 115, 116, 117, 118, 119, 120, 121, 122, 123, 124, 125, 126, 127, 128, 129, 130, 131, 132, 133, 134, 135, 136, 137, 138, 139, 140, 141, 142, 143, 144, 145, 146, 147, 148, 149, 150, 151, 152, 153, 154, 155, 156, 157, 158, 159, 160, 161, 162, 163, 164, 165, 166, 167, 168, 169, 170, 171, 172, 173, 174, 175, 176, 177, 178, 179, 180, 181, 182, 183, 184, 185, 186, 187, 188, 189, 190, 191, 192, 193, 194, 195, 196, 197, 198, 199, 200, 201, 202, 203, 204, 205, 206, 207, 208, 209, 210, 211, 212, 213, 214, 215, 216, 217, 218, 219, 220, 221, 222, 223, 224, 225, 226, 227, 228, 229, 230, 231, 232],
      "LargestImagePixelValue": [2936, 2936, 2880, 2896, 2888, 2922, 2909, 2898, 2911, 2907, 2882, 2857, 2881, 2857, 2850, 2848, 2821, 2846, 2829, 2858, 2851, 2865, 2890, 2851, 2832, 2862, 2842, 2858, 2847, 2851, 2852, 2843, 2870, 2865, 2918, 2878, 2844, 2845, 2877, 2874, 2902, 2899, 2884, 2866, 2862, 2870, 2839, 2878, 2871, 2878, 2866, 2856, 2828, 2879, 2847, 2866, 2863, 2871, 2873, 2858, 2878, 2872, 2852, 2855, 2893, 2886, 2875, 2853, 2916, 2856, 2905, 2927, 2888, 2862, 2889, 2822, 2895, 2844, 2889, 2876, 2882, 2843, 2930, 2883, 2882, 2852, 2923, 2842, 2885, 2979, 2932, 2865, 2905, 2896, 2885, 2859, 2832, 2850, 2849, 2899, 2849, 2870, 2827, 2879, 2910, 2900, 2833, 2974, 2861, 2890, 2832, 2884, 2921, 2837, 2828, 2879, 2878, 2830, 2881, 2858, 2889, 2913, 2895, 2906, 2849, 2887, 2899, 2882, 2884, 2866, 2898, 2909, 2900, 2899, 2872, 2901, 2918, 2921, 2895, 2899, 2926, 2907, 2906, 2886, 2957, 2945, 2951, 2952, 2940, 2965, 2938, 2964, 2989, 2946, 2975, 2967, 2956, 2974, 2940, 2983, 2896, 2950, 2917, 2913, 2908, 2922, 2907, 2914, 2978, 2948, 2941, 2976, 2967, 2982, 3007, 2995, 2979, 3018, 2989, 2973, 3006, 2996, 2976, 2978, 3043, 3023, 3036, 3032, 3030, 3036, 3007, 3027, 3050, 3032, 3019, 3017, 3026, 3023, 3011, 3030, 3019, 3038, 3005, 2996, 3027, 3024, 3029, 2996, 3041, 2986, 3051, 3036, 3069, 3061, 3039, 3035, 3047, 3045, 3086, 3074, 3083, 3085, 3082, 3116, 3166, 3068, 3000, 3029, 3064, 3060, 3038, 3031],
      "WindowCenter": [758.0, 756.0, 756.0, 755.0, 756.0, 757.0, 756.0, 756.0, 757.0, 757.0, 756.0, 756.0, 756.0, 755.0, 756.0, 755.0, 754.0, 755.0, 756.0, 756.0, 756.0, 757.0, 757.0, 757.0, 757.0, 758.0, 758.0, 758.0, 758.0, 757.0, 758.0, 758.0, 758.0, 758.0, 759.0, 758.0, 757.0, 756.0, 756.0, 756.0, 758.0, 758.0, 758.0, 758.0, 758.0, 757.0, 756.0, 757.0, 758.0, 758.0, 758.0, 759.0, 758.0, 758.0, 757.0, 757.0, 757.0, 757.0, 757.0, 757.0, 757.0, 757.0, 757.0, 757.0, 757.0, 757.0, 756.0, 756.0, 757.0, 756.0, 756.0, 756.0, 755.0, 755.0, 756.0, 756.0, 757.0, 756.0, 755.0, 754.0, 754.0, 753.0, 755.0, 755.0, 756.0, 756.0, 757.0, 756.0, 757.0, 758.0, 759.0, 758.0, 758.0, 757.0, 757.0, 757.0, 756.0, 757.0, 756.0, 757.0, 757.0, 758.0, 757.0, 758.0, 758.0, 758.0, 757.0, 759.0, 758.0, 758.0, 757.0, 757.0, 757.0, 757.0, 758.0, 758.0, 756.0, 755.0, 755.0, 755.0, 755.0, 755.0, 756.0, 756.0, 755.0, 755.0, 756.0, 756.0, 755.0, 754.0, 756.0, 756.0, 756.0, 756.0, 756.0, 756.0, 757.0, 757.0, 756.0, 757.0, 756.0, 757.0, 755.0, 757.0, 756.0, 757.0, 757.0, 757.0, 757.0, 758.0, 758.0, 759.0, 758.0, 758.0, 759.0, 759.0, 757.0, 756.0, 756.0, 756.0, 754.0, 755.0, 755.0, 755.0, 755.0, 755.0, 755.0, 755.0, 755.0, 756.0, 756.0, 758.0, 759.0, 760.0, 758.0, 756.0, 756.0, 756.0, 756.0, 756.0, 756.0, 756.0, 756.0, 756.0, 757.0, 759.0, 759.0, 758.0, 757.0, 757.0, 757.0, 758.0, 758.0, 756.0, 756.0, 756.0, 756.0, 756.0, 758.0, 758.0, 758.0, 759.0, 759.0, 760.0, 760.0, 761.0, 762.0, 762.0, 761.0, 759.0, 761.0, 761.0, 762.0, 762.0, 761.0, 760.0, 758.0, 759.0, 759.0, 759.0, 759.0, 760.0, 759.0, 760.0, 759.0, 760.0, 759.0, 759.0, 759.0, 760.0, 760.0, 760.0],
      "WindowWidth": [1648.0, 1644.0, 1642.0, 1641.0, 1643.0, 1645.0, 1644.0, 1643.0, 1644.0, 1646.0, 1644.0, 1644.0, 1642.0, 1640.0, 1643.0, 1641.0, 1638.0, 1641.0, 1642.0, 1644.0, 1644.0, 1645.0, 1647.0, 1647.0, 1647.0, 1649.0, 1649.0, 1649.0, 1648.0, 1647.0, 1647.0, 1648.0, 1649.0, 1650.0, 1652.0, 1648.0, 1645.0, 1643.0, 1643.0, 1644.0, 1647.0, 1648.0, 1648.0, 1647.0, 1647.0, 1645.0, 1643.0, 1646.0, 1647.0, 1648.0, 1648.0, 1650.0, 1647.0, 1648.0, 1646.0, 1646.0, 1645.0, 1646.0, 1644.0, 1645.0, 1646.0, 1646.0, 1644.0, 1645.0, 1646.0, 1644.0, 1644.0, 1643.0, 1645.0, 1642.0, 1641.0, 1642.0, 1640.0, 1640.0, 1644.0, 1644.0, 1644.0, 1642.0, 1639.0, 1637.0, 1636.0, 1635.0, 1641.0, 1640.0, 1643.0, 1642.0, 1646.0, 1644.0, 1646.0, 1650.0, 1652.0, 1650.0, 1648.0, 1646.0, 1645.0, 1645.0, 1643.0, 1644.0, 1644.0, 1646.0, 1644.0, 1647.0, 1645.0, 1648.0, 1648.0, 1649.0, 1646.0, 1650.0, 1647.0, 1649.0, 1645.0, 1645.0, 1646.0, 1646.0, 1649.0, 1647.0, 1642.0, 1638.0, 1640.0, 1639.0, 1639.0, 1640.0, 1641.0, 1641.0, 1638.0, 1639.0, 1642.0, 1643.0, 1640.0, 1638.0, 1641.0, 1642.0, 1642.0, 1642.0, 1642.0, 1643.0, 1644.0, 1645.0, 1643.0, 1645.0, 1643.0, 1645.0, 1640.0, 1644.0, 1643.0, 1645.0, 1646.0, 1646.0, 1645.0, 1648.0, 1649.0, 1650.0, 1648.0, 1647.0, 1650.0, 1650.0, 1645.0, 1642.0, 1640.0, 1641.0, 1636.0, 1640.0, 1639.0, 1639.0, 1638.0, 1639.0, 1639.0, 1639.0, 1638.0, 1640.0, 1642.0, 1649.0, 1650.0, 1652.0, 1647.0, 1642.0, 1641.0, 1641.0, 1642.0, 1642.0, 1641.0, 1640.0, 1641.0, 1642.0, 1643.0, 1650.0, 1650.0, 1646.0, 1644.0, 1644.0, 1646.0, 1648.0, 1646.0, 1642.0, 1642.0, 1642.0, 1641.0, 1641.0, 1647.0, 1646.0, 1647.0, 1651.0, 1650.0, 1652.0, 1653.0, 1657.0, 1660.0, 1659.0, 1655.0, 1650.0, 1655.0, 1656.0, 1660.0, 1660.0, 1655.0, 1651.0, 1649.0, 1651.0, 1651.0, 1650.0, 1651.0, 1651.0, 1650.0, 1653.0, 1651.0, 1652.0, 1650.0, 1651.0, 1650.0, 1651.0, 1651.0, 1652.0]
    },
    "slices": {}
  }
}