{
  "AcquisitionMatrixPE": 100,
  "AcquisitionNumber": 1,
  "AcquisitionTime": "13:41:56.885000",
  "BandwidthPerPixelPhaseEncode": 18.519,
  "BaseResolution": 100,
  "BodyPartExamined": "BRAIN",
  "ConsistencyInfo": "N4_VE11C_LATEST_20160120",
  "ConversionSoftware": "dcm2niix",
  "ConversionSoftwareVersion": "v1.0.20180622 GCC4.9.2",
  "DerivedVendorReportedEchoSpacing": 0.000539986,
  "DeviceSerialNumber": "166078",
  "DwellTime": 2.1e-06,
  "EchoTime": 0.034,
  "EchoTrainLength": 100,
  "EffectiveEchoSpacing": 0.000539986,
  "FlipAngle": 90,
  "ImageOrientationPatientDICOM": [0.999091, -0.000823605, -0.0426257, -0.00348748, 0.994884, -0.100965],
  "ImageType": [
    "ORIGINAL",
    "PRIMARY",
    "M",
    "ND",
    "MOSAIC"
],
  "InPlanePhaseEncodingDirectionDICOM": "COL",
  "InstitutionAddress": "Street_StreetNo_Bei_Jing_District_CN_ZIP",
  "InstitutionName": "BeiJing_Normal_University",
  "InstitutionalDepartmentName": "Department",
  "MRAcquisitionType": "2D",
  "MagneticFieldStrength": 3,
  "Manufacturer": "Siemens",
  "ManufacturersModelName": "Prisma",
  "Modality": "MR",
  "MultibandAccelerationFactor": 3,
  "PartialFourier": 1,
  "PatientPosition": "HFS",
  "PercentPhaseFOV": 100,
  "PhaseEncodingDirection": "j-",
  "PhaseEncodingSteps": 100,
  "PhaseResolution": 1,
  "PixelBandwidth": 2380,
  "ProcedureStepDescription": "BNU_P2018_64CH_Liu.Jia",
  "ProtocolName": "bold_100x100_s3_2x2x2_232",
  "PulseSequenceDetails": "%SiemensSeq%_ep2d_bold",
  "ReceiveCoilActiveElements": "HC1-7;NC1",
  "ReceiveCoilName": "HeadNeck_64",
  "ReconMatrixPE": 100,
  "RepetitionTime": 2,
  "SAR": 0.073355,
  "ScanOptions": "FS",
  "ScanningSequence": "EP",
  "SequenceName": "_epfid2d1_100",
  "SequenceVariant": "SK",
  "SeriesDescription": "bold_100x100_s3_2x2x2_232",
  "SeriesNumber": 10,
  "ShimSetting": [-5480, -11480, -1316, 310, 19, -257, -166, 55],
  "SliceThickness": 2,
  "SliceTiming": [1.485, 0, 0.99, 0.0825, 1.0725, 0.165, 1.155, 0.2475, 1.2375, 0.33, 1.32, 0.4125, 1.4025, 0.5775, 1.5675, 0.66, 1.65, 0.7425, 1.7325, 0.825, 1.815, 0.9075, 1.8975, 0.495, 1.485, 0, 0.99, 0.0825, 1.0725, 0.165, 1.155, 0.2475, 1.2375, 0.33, 1.32, 0.4125, 1.4025, 0.5775, 1.5675, 0.66, 1.65, 0.7425, 1.7325, 0.825, 1.815, 0.9075, 1.8975, 0.495, 1.485, 0, 0.99, 0.0825, 1.0725, 0.165, 1.155, 0.2475, 1.2375, 0.33, 1.32, 0.4125, 1.4025, 0.5775, 1.5675, 0.66, 1.65, 0.7425, 1.7325, 0.825, 1.815, 0.9075, 1.8975, 0.495],
  "SoftwareVersions": "syngo_MR_E11",
  "SpacingBetweenSlices": 2,
  "StationName": "AWP166078",
  "TaskName": "motor",
  "TotalReadoutTime": 0.0534586,
  "TxRefAmp": 218.155,
  "dcmmeta_affine": [
    [-1.9981815814971924, -0.006974957417696714, -0.08498155325651169, 102.73722076416016],
    [0.0016472090501338243, 1.9897677898406982, -0.20204345881938934, -81.63878631591797],
    [-0.08525140583515167, 0.2019297480583191, 1.987952709197998, -77.99530792236328],
    [0.0, 0.0, 0.0, 1.0]
],
  "dcmmeta_reorient_transform": [
    [0.0, -1.0, 0.0, 99.0],
    [1.0, 0.0, 0.0, 0.0],
    [0.0, 0.0, 1.0, 0.0],
    [0.0, 0.0, 0.0, 1.0]
],
  "dcmmeta_shape": [100, 100, 72, 232],
  "dcmmeta_slice_dim": 2,
  "dcmmeta_version": 0.6,
  "global": {
    "const": {
      "AcquisitionMatrix": [100, 0, 0, 100],
      "AngioFlag": "N",
      "BitsAllocated": 16,
      "BitsStored": 12,
      "BodyPartExamined": "BRAIN",
      "Columns": 900,
      "EchoNumbers": 1,
      "EchoTime": 34.0,
      "EchoTrainLength": 100,
      "FlipAngle": 90.0,
      "HighBit": 11,
      "ImageOrientationPatient": [0.99909077227456, -0.0008236045004, -0.0426257015361, -0.0034874787693, 0.99488387823947, -0.1009648766207],
      "ImagePositionPatient": [-898.52933352614, -910.59644321113, 56.868200944092],
      "ImageType": [
        "ORIGINAL",
        "PRIMARY",
        "M",
        "ND",
        "MOSAIC"
],
      "ImagedNucleus": "1H",
      "ImagingFrequency": 123.257854,
      "InPlanePhaseEncodingDirection": "COL",
      "MRAcquisitionType": "2D",
      "MagneticFieldStrength": 3.0,
      "Manufacturer": "SIEMENS",
      "ManufacturerModelName": "Prisma",
      "Modality": "MR",
      "NumberOfAverages": 1.0,
      "NumberOfPhaseEncodingSteps": 100,
      "PercentPhaseFieldOfView": 100.0,
      "PercentSampling": 100.0,
      "PerformedProcedureStepStartTime": "125319.521000",
      "PhotometricInterpretation": "MONOCHROME2",
      "PixelBandwidth": 2380.0,
      "PixelRepresentation": 0,
      "PixelSpacing": [2.0, 2.0],
      "ProtocolName": "bold_100x100_s3_2x2x2_232",
      "RepetitionTime": 2000.0,
      "Rows": 900,
      "SAR": 0.07335498343538,
      "SamplesPerPixel": 1,
      "ScanOptions": "FS",
      "ScanningSequence": "EP",
      "SequenceName": "*epfid2d1_100",
      "SequenceVariant": "SK",
      "SeriesDescription": "bold_100x100_s3_2x2x2_232",
      "SeriesNumber": 10,
      "SeriesTime": "134159.640000",
      "SliceLocation": -73.643589991848,
      "SliceThickness": 2.0,
      "SmallestImagePixelValue": 0,
      "SoftwareVersions": "syngo MR E11",
      "SpacingBetweenSlices": 1.9999998972992,
      "SpecificCharacterSet": "ISO_IR 100",
      "StudyID": "1",
      "StudyTime": "125319.432000",
      "TransmitCoilName": "Body",
      "VariableFlipAngleFlag": "N",
      "WindowCenterWidthExplanation": "Algo1",
      "dBdt": 0.0},
    "slices": {}
  },
  "time": {
    "samples": {
      "AcquisitionNumber": [1, 2, 3, 4, 5, 6, 7, 8, 9, 10, 11, 12, 13, 14, 15, 16, 17, 18, 19, 20, 21, 22, 23, 24, 25, 26, 27, 28, 29, 30, 31, 32, 33, 34, 35, 36, 37, 38, 39, 40, 41, 42, 43, 44, 45, 46, 47, 48, 49, 50, 51, 52, 53, 54, 55, 56, 57, 58, 59, 60, 61, 62, 63, 64, 65, 66, 67, 68, 69, 70, 71, 72, 73, 74, 75, 76, 77, 78, 79, 80, 81, 82, 83, 84, 85, 86, 87, 88, 89, 90, 91, 92, 93, 94, 95, 96, 97, 98, 99, 100, 101, 102, 103, 104, 105, 106, 107, 108, 109, 110, 111, 112, 113, 114, 115, 116, 117, 118, 119, 120, 121, 122, 123, 124, 125, 126, 127, 128, 129, 130, 131, 132, 133, 134, 135, 136, 137, 138, 139, 140, 141, 142, 143, 144, 145, 146, 147, 148, 149, 150, 151, 152, 153, 154, 155, 156, 157, 158, 159, 160, 161, 162, 163, 164, 165, 166, 167, 168, 169, 170, 171, 172, 173, 174, 175, 176, 177, 178, 179, 180, 181, 182, 183, 184, 185, 186, 187, 188, 189, 190, 191, 192, 193, 194, 195, 196, 197, 198, 199, 200, 201, 202, 203, 204, 205, 206, 207, 208, 209, 210, 211, 212, 213, 214, 215, 216, 217, 218, 219, 220, 221, 222, 223, 224, 225, 226, 227, 228, 229, 230, 231, 232],
      "AcquisitionTime": ["134156.885000", "134158.885000", "134200.885000", "134202.885000", "134204.885000", "134206.885000", "134208.885000", "134210.885000", "134212.885000", "134214.885000", "134216.885000", "134218.885000", "134220.885000", "134222.885000", "134224.885000", "134226.885000", "134228.885000", "134230.885000", "134232.885000", "134234.885000", "134236.885000", "134238.885000", "134240.885000", "134242.885000", "134244.885000", "134246.885000", "134248.885000", "134250.885000", "134252.885000", "134254.885000", "134256.885000", "134258.885000", "134300.885000", "134302.885000", "134304.885000", "134306.885000", "134308.885000", "134310.885000", "134312.885000", "134314.885000", "134316.885000", "134318.885000", "134320.885000", "134322.885000", "134324.885000", "134326.885000", "134328.885000", "134330.885000", "134332.885000", "134334.885000", "134336.885000", "134338.885000", "134340.885000", "134342.885000", "134344.885000", "134346.885000", "134348.885000", "134350.885000", "134352.885000", "134354.885000", "134356.885000", "134358.885000", "134400.885000", "134402.885000", "134404.885000", "134406.885000", "134408.885000", "134410.885000", "134412.885000", "134414.885000", "134416.885000", "134418.885000", "134420.885000", "134422.885000", "134424.885000", "134426.885000", "134428.885000", "134430.885000", "134432.885000", "134434.885000", "134436.885000", "134438.885000", "134440.885000", "134442.885000", "134444.885000", "134446.885000", "134448.885000", "134450.885000", "134452.885000", "134454.885000", "134456.885000", "134458.885000", "134500.885000", "134502.885000", "134504.885000", "134506.885000", "134508.885000", "134510.885000", "134512.885000", "134514.885000", "134516.885000", "134518.885000", "134520.885000", "134522.885000", "134524.885000", "134526.885000", "134528.885000", "134530.885000", "134532.885000", "134534.885000", "134536.885000", "134538.885000", "134540.885000", "134542.885000", "134544.885000", "134546.885000", "134548.885000", "134550.885000", "134552.885000", "134554.885000", "134556.885000", "134558.885000", "134600.885000", "134602.885000", "134604.885000", "134606.885000", "134608.885000", "134610.885000", "134612.885000", "134614.885000", "134616.885000", "134618.885000", "134620.885000", "134622.885000", "134624.885000", "134626.885000", "134628.885000", "134630.885000", "134632.885000", "134634.885000", "134636.885000", "134638.885000", "134640.885000", "134642.885000", "134644.885000", "134646.885000", "134648.885000", "134650.885000", "134652.885000", "134654.885000", "134656.885000", "134658.885000", "134700.885000", "134702.885000", "134704.885000", "134706.885000", "134708.885000", "134710.885000", "134712.885000", "134714.885000", "134716.885000", "134718.885000", "134720.885000", "134722.885000", "134724.885000", "134726.885000", "134728.885000", "134730.885000", "134732.885000", "134734.885000", "134736.885000", "134738.885000", "134740.885000", "134742.885000", "134744.885000", "134746.885000", "134748.885000", "134750.885000", "134752.885000", "134754.885000", "134756.885000", "134758.885000", "134800.885000", "134802.885000", "134804.885000", "134806.885000", "134808.885000", "134810.885000", "134812.885000", "134814.885000", "134816.885000", "134818.885000", "134820.885000", "134822.885000", "134824.885000", "134826.885000", "134828.885000", "134830.885000", "134832.885000", "134834.885000", "134836.885000", "134838.885000", "134840.885000", "134842.885000", "134844.885000", "134846.885000", "134848.885000", "134850.885000", "134852.885000", "134854.885000", "134856.885000", "134858.885000", "134900.885000", "134902.885000", "134904.885000", "134906.885000", "134908.885000", "134910.885000", "134912.885000", "134914.885000", "134916.885000", "134918.885000", "134920.885000", "134922.885000", "134924.885000", "134926.885000", "134928.885000", "134930.885000", "134932.885000", "134934.885000", "134936.885000", "134938.885000"],
      "ContentTime": ["134159.643000", "134201.139000", "134203.139000", "134205.139000", "134207.139000", "134209.139000", "134211.139000", "134213.139000", "134215.139000", "134217.139000", "134219.139000", "134221.139000", "134223.138000", "134225.140000", "134227.139000", "134229.139000", "134231.139000", "134233.139000", "134235.139000", "134237.139000", "134239.139000", "134241.139000", "134243.139000", "134245.139000", "134247.139000", "134249.139000", "134251.140000", "134253.139000", "134255.139000", "134257.139000", "134259.139000", "134301.139000", "134303.140000", "134305.139000", "134307.139000", "134309.139000", "134311.139000", "134313.139000", "134315.139000", "134317.139000", "134319.140000", "134321.139000", "134323.139000", "134325.139000", "134327.139000", "134329.139000", "134331.139000", "134333.138000", "134335.139000", "134337.139000", "134339.139000", "134341.139000", "134343.140000", "134345.139000", "134347.139000", "134349.139000", "134351.139000", "134353.139000", "134355.140000", "134357.139000", "134359.139000", "134401.139000", "134403.139000", "134405.139000", "134407.139000", "134409.140000", "134411.139000", "134413.139000", "134415.139000", "134417.139000", "134419.139000", "134421.139000", "134423.139000", "134425.139000", "134427.139000", "134429.139000", "134431.139000", "134433.139000", "134435.140000", "134437.139000", "134439.139000", "134441.139000", "134443.138000", "134445.139000", "134447.139000", "134449.139000", "134451.139000", "134453.139000", "134455.140000", "134457.139000", "134459.139000", "134501.139000", "134503.139000", "134505.139000", "134507.139000", "134509.139000", "134511.140000", "134513.139000", "134515.139000", "134517.139000", "134519.139000", "134521.139000", "134523.139000", "134525.139000", "134527.139000", "134529.139000", "134531.139000", "134533.139000", "134535.140000", "134537.139000", "134539.140000", "134541.139000", "134543.139000", "134545.139000", "134547.139000", "134549.139000", "134551.140000", "134553.139000", "134555.140000", "134557.139000", "134559.139000", "134601.139000", "134603.139000", "134605.139000", "134607.139000", "134609.139000", "134611.139000", "134613.140000", "134615.139000", "134617.139000", "134619.139000", "134621.139000", "134623.149000", "134625.139000", "134627.139000", "134629.139000", "134631.139000", "134633.140000", "134635.139000", "134637.139000", "134639.139000", "134641.139000", "134643.139000", "134645.139000", "134647.139000", "134649.139000", "134651.140000", "134653.140000", "134655.139000", "134657.140000", "134659.139000", "134701.139000", "134703.139000", "134705.139000", "134707.139000", "134709.139000", "134711.139000", "134713.139000", "134715.139000", "134717.139000", "134719.139000", "134721.139000", "134723.139000", "134725.140000", "134727.140000", "134729.139000", "134731.139000", "134733.139000", "134735.139000", "134737.139000", "134739.140000", "134741.139000", "134743.139000", "134745.139000", "134747.639000", "134749.139000", "134751.139000", "134753.139000", "134755.139000", "134757.139000", "134759.140000", "134801.139000", "134803.139000", "134805.139000", "134807.140000", "134809.139000", "134811.139000", "134813.140000", "134815.639000", "134817.139000", "134819.139000", "134821.139000", "134823.140000", "134825.139000", "134827.140000", "134829.139000", "134831.139000", "134833.139000", "134835.639000", "134837.139000", "134839.139000", "134841.139000", "134843.139000", "134845.139000", "134847.139000", "134849.139000", "134851.139000", "134853.139000", "134855.139000", "134857.139000", "134859.139000", "134901.139000", "134903.139000", "134905.139000", "134907.139000", "134909.139000", "134911.139000", "134913.140000", "134915.139000", "134917.139000", "134919.140000", "134921.139000", "134923.139000", "134925.140000", "134927.139000", "134929.139000", "134931.139000", "134933.139000", "134935.139000", "134937.140000", "134939.140000", "134940.977000"],
      "InstanceCreationTime": ["134159.643000", "134201.139000", "134203.139000", "134205.139000", "134207.139000", "134209.139000", "134211.139000", "134213.139000", "134215.139000", "134217.139000", "134219.139000", "134221.139000", "134223.138000", "134225.140000", "134227.139000", "134229.139000", "134231.139000", "134233.139000", "134235.139000", "134237.139000", "134239.139000", "134241.139000", "134243.139000", "134245.139000", "134247.139000", "134249.139000", "134251.140000", "134253.139000", "134255.139000", "134257.139000", "134259.139000", "134301.139000", "134303.140000", "134305.139000", "134307.139000", "134309.139000", "134311.139000", "134313.139000", "134315.139000", "134317.139000", "134319.140000", "134321.139000", "134323.139000", "134325.139000", "134327.139000", "134329.139000", "134331.139000", "134333.138000", "134335.139000", "134337.139000", "134339.139000", "134341.139000", "134343.140000", "134345.139000", "134347.139000", "134349.139000", "134351.139000", "134353.139000", "134355.140000", "134357.139000", "134359.139000", "134401.139000", "134403.139000", "134405.139000", "134407.139000", "134409.140000", "134411.139000", "134413.139000", "134415.139000", "134417.139000", "134419.139000", "134421.139000", "134423.139000", "134425.139000", "134427.139000", "134429.139000", "134431.139000", "134433.139000", "134435.140000", "134437.139000", "134439.139000", "134441.139000", "134443.138000", "134445.139000", "134447.139000", "134449.139000", "134451.139000", "134453.139000", "134455.140000", "134457.139000", "134459.139000", "134501.139000", "134503.139000", "134505.139000", "134507.139000", "134509.139000", "134511.140000", "134513.139000", "134515.139000", "134517.139000", "134519.139000", "134521.139000", "134523.139000", "134525.139000", "134527.139000", "134529.139000", "134531.139000", "134533.139000", "134535.140000", "134537.139000", "134539.140000", "134541.139000", "134543.139000", "134545.139000", "134547.139000", "134549.139000", "134551.140000", "134553.139000", "134555.140000", "134557.139000", "134559.139000", "134601.139000", "134603.139000", "134605.139000", "134607.139000", "134609.139000", "134611.139000", "134613.140000", "134615.139000", "134617.139000", "134619.139000", "134621.139000", "134623.149000", "134625.139000", "134627.139000", "134629.139000", "134631.139000", "134633.140000", "134635.139000", "134637.139000", "134639.139000", "134641.139000", "134643.139000", "134645.139000", "134647.139000", "134649.139000", "134651.140000", "134653.140000", "134655.139000", "134657.140000", "134659.139000", "134701.139000", "134703.139000", "134705.139000", "134707.139000", "134709.139000", "134711.139000", "134713.139000", "134715.139000", "134717.139000", "134719.139000", "134721.139000", "134723.139000", "134725.140000", "134727.140000", "134729.139000", "134731.139000", "134733.139000", "134735.139000", "134737.139000", "134739.140000", "134741.139000", "134743.139000", "134745.139000", "134747.639000", "134749.139000", "134751.139000", "134753.139000", "134755.139000", "134757.139000", "134759.140000", "134801.139000", "134803.139000", "134805.139000", "134807.140000", "134809.139000", "134811.139000", "134813.140000", "134815.639000", "134817.139000", "134819.139000", "134821.139000", "134823.140000", "134825.139000", "134827.140000", "134829.139000", "134831.139000", "134833.139000", "134835.639000", "134837.139000", "134839.139000", "134841.139000", "134843.139000", "134845.139000", "134847.139000", "134849.139000", "134851.139000", "134853.139000", "134855.139000", "134857.139000", "134859.139000", "134901.139000", "134903.139000", "134905.139000", "134907.139000", "134909.139000", "134911.139000", "134913.140000", "134915.139000", "134917.139000", "134919.140000", "134921.139000", "134923.139000", "134925.140000", "134927.139000", "134929.139000", "134931.139000", "134933.139000", "134935.139000", "134937.140000", "134939.140000", "134940.977000"],
      "InstanceNumber": [1, 2, 3, 4, 5, 6, 7, 8, 9, 10, 11, 12, 13, 14, 15, 16, 17, 18, 19, 20, 21, 22, 23, 24, 25, 26, 27, 28, 29, 30, 31, 32, 33, 34, 35, 36, 37, 38, 39, 40, 41, 42, 43, 44, 45, 46, 47, 48, 49, 50, 51, 52, 53, 54, 55, 56, 57, 58, 59, 60, 61, 62, 63, 64, 65, 66, 67, 68, 69, 70, 71, 72, 73, 74, 75, 76, 77, 78, 79, 80, 81, 82, 83, 84, 85, 86, 87, 88, 89, 90, 91, 92, 93, 94, 95, 96, 97, 98, 99, 100, 101, 102, 103, 104, 105, 106, 107, 108, 109, 110, 111, 112, 113, 114, 115, 116, 117, 118, 119, 120, 121, 122, 123, 124, 125, 126, 127, 128, 129, 130, 131, 132, 133, 134, 135, 136, 137, 138, 139, 140, 141, 142, 143, 144, 145, 146, 147, 148, 149, 150, 151, 152, 153, 154, 155, 156, 157, 158, 159, 160, 161, 162, 163, 164, 165, 166, 167, 168, 169, 170, 171, 172, 173, 174, 175, 176, 177, 178, 179, 180, 181, 182, 183, 184, 185, 186, 187, 188, 189, 190, 191, 192, 193, 194, 195, 196, 197, 198, 199, 200, 201, 202, 203, 204, 205, 206, 207, 208, 209, 210, 211, 212, 213, 214, 215, 216, 217, 218, 219, 220, 221, 222, 223, 224, 225, 226, 227, 228, 229, 230, 231, 232],
      "LargestImagePixelValue": [3182, 3076, 3063, 3050, 3060, 3073, 3057, 3067, 3066, 3080, 3105, 3113, 3075, 3015, 3070, 3016, 3053, 3071, 3065, 3084, 3070, 3065, 3038, 3022, 3055, 3017, 2978, 2972, 2982, 2966, 2943, 2965, 2969, 3020, 3027, 3011, 3023, 3029, 3035, 3022, 3025, 3065, 3083, 3067, 3064, 3043, 3060, 3049, 3060, 3051, 3046, 3027, 3038, 3058, 3003, 2954, 2962, 3032, 3022, 3040, 2999, 2993, 3006, 2982, 3002, 2992, 2981, 2988, 2986, 2996, 2992, 3000, 2989, 3019, 3012, 3072, 3028, 3048, 3060, 3047, 3056, 3089, 3096, 3117, 3065, 3038, 3027, 3066, 3027, 3024, 3032, 3054, 3079, 3043, 2998, 3011, 3095, 3051, 3099, 3078, 3062, 3039, 3019, 3057, 3093, 3109, 3130, 3108, 3055, 3067, 3085, 3073, 3034, 3028, 3037, 3101, 3046, 3054, 3066, 3065, 3073, 3079, 3064, 3051, 3097, 3067, 3062, 3083, 3094, 3090, 3079, 3089, 3109, 3093, 3079, 3082, 3093, 3076, 3071, 3061, 3110, 3127, 3099, 3071, 3068, 3072, 3052, 3090, 3079, 3077, 3063, 3109, 3058, 3055, 3069, 3058, 3066, 3039, 3066, 3072, 3074, 3067, 3090, 3112, 3106, 3051, 3048, 3037, 3034, 3128, 3095, 3082, 3087, 3088, 3079, 3109, 3103, 3066, 3046, 3053, 3006, 3019, 2952, 2949, 3006, 2949, 2975, 3022, 3013, 3025, 3033, 3004, 3020, 3000, 3045, 3067, 3063, 3018, 3020, 3018, 3015, 3023, 3052, 3030, 3051, 3039, 3054, 3050, 3056, 3080, 3079, 3062, 3064, 3050, 3066, 3043, 3046, 3095, 3081, 3085, 3076, 3062, 3015, 2997, 3029, 3081, 3058, 3072, 3085, 3085, 3087, 3080],
      "WindowCenter": [765.0, 762.0, 762.0, 762.0, 762.0, 763.0, 762.0, 763.0, 763.0, 764.0, 764.0, 764.0, 763.0, 762.0, 763.0, 763.0, 764.0, 764.0, 764.0, 765.0, 763.0, 764.0, 762.0, 763.0, 762.0, 761.0, 760.0, 760.0, 760.0, 760.0, 760.0, 760.0, 760.0, 761.0, 761.0, 761.0, 762.0, 762.0, 763.0, 762.0, 763.0, 763.0, 764.0, 763.0, 764.0, 763.0, 762.0, 761.0, 761.0, 762.0, 762.0, 764.0, 763.0, 762.0, 760.0, 759.0, 759.0, 760.0, 762.0, 760.0, 759.0, 759.0, 758.0, 757.0, 756.0, 756.0, 757.0, 757.0, 758.0, 758.0, 759.0, 759.0, 759.0, 760.0, 761.0, 762.0, 761.0, 761.0, 762.0, 764.0, 764.0, 763.0, 764.0, 764.0, 764.0, 762.0, 761.0, 761.0, 761.0, 762.0, 762.0, 763.0, 763.0, 762.0, 761.0, 761.0, 763.0, 763.0, 764.0, 763.0, 762.0, 762.0, 762.0, 764.0, 764.0, 766.0, 765.0, 763.0, 761.0, 762.0, 763.0, 762.0, 761.0, 761.0, 761.0, 762.0, 760.0, 761.0, 761.0, 762.0, 761.0, 761.0, 762.0, 761.0, 763.0, 763.0, 763.0, 762.0, 762.0, 763.0, 764.0, 764.0, 763.0, 762.0, 762.0, 763.0, 764.0, 763.0, 764.0, 764.0, 766.0, 767.0, 764.0, 762.0, 762.0, 762.0, 762.0, 763.0, 763.0, 763.0, 761.0, 762.0, 761.0, 760.0, 761.0, 762.0, 761.0, 762.0, 762.0, 764.0, 763.0, 763.0, 766.0, 766.0, 764.0, 762.0, 760.0, 762.0, 762.0, 764.0, 764.0, 764.0, 764.0, 764.0, 764.0, 763.0, 763.0, 762.0, 763.0, 763.0, 761.0, 760.0, 759.0, 758.0, 759.0, 758.0, 760.0, 761.0, 761.0, 759.0, 759.0, 759.0, 760.0, 761.0, 763.0, 762.0, 762.0, 761.0, 761.0, 761.0, 761.0, 760.0, 761.0, 761.0, 761.0, 761.0, 761.0, 764.0, 765.0, 763.0, 762.0, 762.0, 762.0, 762.0, 763.0, 763.0, 764.0, 764.0, 765.0, 765.0, 764.0, 763.0, 763.0, 762.0, 762.0, 764.0, 763.0, 764.0, 763.0, 762.0, 762.0, 762.0],
      "WindowWidth": [1665.0, 1657.0, 1656.0, 1657.0, 1658.0, 1659.0, 1658.0, 1659.0, 1661.0, 1663.0, 1664.0, 1663.0, 1660.0, 1658.0, 1660.0, 1660.0, 1662.0, 1663.0, 1663.0, 1665.0, 1661.0, 1662.0, 1657.0, 1658.0, 1657.0, 1653.0, 1652.0, 1652.0, 1653.0, 1652.0, 1651.0, 1651.0, 1651.0, 1654.0, 1655.0, 1655.0, 1656.0, 1656.0, 1659.0, 1657.0, 1659.0, 1660.0, 1662.0, 1660.0, 1664.0, 1660.0, 1656.0, 1655.0, 1654.0, 1656.0, 1657.0, 1661.0, 1660.0, 1655.0, 1651.0, 1648.0, 1647.0, 1652.0, 1657.0, 1652.0, 1648.0, 1647.0, 1645.0, 1643.0, 1641.0, 1641.0, 1641.0, 1643.0, 1645.0, 1646.0, 1648.0, 1649.0, 1648.0, 1651.0, 1653.0, 1657.0, 1654.0, 1653.0, 1658.0, 1661.0, 1661.0, 1661.0, 1664.0, 1664.0, 1661.0, 1657.0, 1654.0, 1655.0, 1653.0, 1655.0, 1658.0, 1659.0, 1658.0, 1656.0, 1654.0, 1653.0, 1659.0, 1661.0, 1661.0, 1660.0, 1656.0, 1657.0, 1657.0, 1662.0, 1664.0, 1668.0, 1664.0, 1659.0, 1653.0, 1656.0, 1659.0, 1656.0, 1653.0, 1653.0, 1654.0, 1655.0, 1652.0, 1654.0, 1654.0, 1656.0, 1654.0, 1654.0, 1656.0, 1654.0, 1659.0, 1660.0, 1658.0, 1657.0, 1657.0, 1660.0, 1662.0, 1663.0, 1659.0, 1657.0, 1658.0, 1658.0, 1661.0, 1661.0, 1661.0, 1662.0, 1668.0, 1669.0, 1661.0, 1657.0, 1655.0, 1658.0, 1657.0, 1659.0, 1658.0, 1659.0, 1655.0, 1657.0, 1653.0, 1652.0, 1655.0, 1655.0, 1655.0, 1657.0, 1658.0, 1661.0, 1660.0, 1661.0, 1668.0, 1669.0, 1662.0, 1655.0, 1652.0, 1655.0, 1656.0, 1661.0, 1661.0, 1661.0, 1662.0, 1662.0, 1662.0, 1661.0, 1660.0, 1657.0, 1658.0, 1658.0, 1652.0, 1650.0, 1648.0, 1645.0, 1647.0, 1646.0, 1650.0, 1654.0, 1653.0, 1649.0, 1648.0, 1647.0, 1650.0, 1654.0, 1659.0, 1656.0, 1655.0, 1652.0, 1653.0, 1653.0, 1653.0, 1651.0, 1654.0, 1654.0, 1653.0, 1652.0, 1653.0, 1662.0, 1666.0, 1659.0, 1656.0, 1655.0, 1656.0, 1657.0, 1659.0, 1658.0, 1661.0, 1663.0, 1666.0, 1665.0, 1661.0, 1658.0, 1658.0, 1657.0, 1656.0, 1661.0, 1659.0, 1661.0, 1659.0, 1657.0, 1656.0, 1656.0]
    },
    "slices": {}
  }
}