{
  "AcquisitionMatrixPE": 100,
  "AcquisitionNumber": 1,
  "AcquisitionTime": "14:31:47.525000",
  "BandwidthPerPixelPhaseEncode": 18.519,
  "BaseResolution": 100,
  "BodyPartExamined": "BRAIN",
  "ConsistencyInfo": "N4_VE11C_LATEST_20160120",
  "ConversionSoftware": "dcm2niix",
  "ConversionSoftwareVersion": "v1.0.20180622 GCC4.9.2",
  "DerivedVendorReportedEchoSpacing": 0.000539986,
  "DeviceSerialNumber": "166078",
  "DwellTime": 2.1e-06,
  "EchoTime": 0.034,
  "EchoTrainLength": 100,
  "EffectiveEchoSpacing": 0.000539986,
  "FlipAngle": 90,
  "ImageOrientationPatientDICOM": [0.999953, 0.000844496, 0.00965445, 1.33268e-08, 0.996196, -0.0871409],
  "ImageType": [
    "ORIGINAL",
    "PRIMARY",
    "M",
    "ND",
    "MOSAIC"
],
  "InPlanePhaseEncodingDirectionDICOM": "COL",
  "InstitutionAddress": "Street_StreetNo_Bei_Jing_District_CN_ZIP",
  "InstitutionName": "BeiJing_Normal_University",
  "InstitutionalDepartmentName": "Department",
  "MRAcquisitionType": "2D",
  "MagneticFieldStrength": 3,
  "Manufacturer": "Siemens",
  "ManufacturersModelName": "Prisma",
  "Modality": "MR",
  "MultibandAccelerationFactor": 3,
  "PartialFourier": 1,
  "PatientPosition": "HFS",
  "PercentPhaseFOV": 100,
  "PhaseEncodingDirection": "j-",
  "PhaseEncodingSteps": 100,
  "PhaseResolution": 1,
  "PixelBandwidth": 2380,
  "ProcedureStepDescription": "BNU_P2018_64CH_Liu.Jia",
  "ProtocolName": "bold_100x100_s3_2x2x2_232",
  "PulseSequenceDetails": "%SiemensSeq%_ep2d_bold",
  "ReceiveCoilActiveElements": "HC1-7;NC1",
  "ReceiveCoilName": "HeadNeck_64",
  "ReconMatrixPE": 100,
  "RepetitionTime": 2,
  "SAR": 0.0668335,
  "ScanOptions": "FS",
  "ScanningSequence": "EP",
  "SequenceName": "_epfid2d1_100",
  "SequenceVariant": "SK",
  "SeriesDescription": "bold_100x100_s3_2x2x2_232",
  "SeriesNumber": 8,
  "ShimSetting": [-5484, -11497, -1295, 400, -117, -315, -149, 0],
  "SliceThickness": 2,
  "SliceTiming": [1.485, 0, 0.99, 0.0825, 1.0725, 0.165, 1.155, 0.2475, 1.2375, 0.33, 1.32, 0.4125, 1.4025, 0.5775, 1.5675, 0.66, 1.65, 0.7425, 1.7325, 0.825, 1.815, 0.9075, 1.8975, 0.495, 1.485, 0, 0.99, 0.0825, 1.0725, 0.165, 1.155, 0.2475, 1.2375, 0.33, 1.32, 0.4125, 1.4025, 0.5775, 1.5675, 0.66, 1.65, 0.7425, 1.7325, 0.825, 1.815, 0.9075, 1.8975, 0.495, 1.485, 0, 0.99, 0.0825, 1.0725, 0.165, 1.155, 0.2475, 1.2375, 0.33, 1.32, 0.4125, 1.4025, 0.5775, 1.5675, 0.66, 1.65, 0.7425, 1.7325, 0.825, 1.815, 0.9075, 1.8975, 0.495],
  "SoftwareVersions": "syngo_MR_E11",
  "SpacingBetweenSlices": 2,
  "StationName": "AWP166078",
  "TaskName": "motor",
  "TotalReadoutTime": 0.0534586,
  "TxRefAmp": 250.586,
  "dcmmeta_affine": [
    [-1.999906063079834, 2.665363574294588e-08, 0.019382629543542862, 99.37073516845703],
    [-0.0016889926046133041, 1.9923919439315796, -0.1742735505104065, -87.31105041503906],
    [0.019308900460600853, 0.1742817461490631, 1.9922983646392822, -79.05585479736328],
    [0.0, 0.0, 0.0, 1.0]
],
  "dcmmeta_reorient_transform": [
    [0.0, -1.0, 0.0, 99.0],
    [1.0, 0.0, 0.0, 0.0],
    [0.0, 0.0, 1.0, 0.0],
    [0.0, 0.0, 0.0, 1.0]
],
  "dcmmeta_shape": [100, 100, 72, 232],
  "dcmmeta_slice_dim": 2,
  "dcmmeta_version": 0.6,
  "global": {
    "const": {
      "AcquisitionMatrix": [100, 0, 0, 100],
      "AngioFlag": "N",
      "BitsAllocated": 16,
      "BitsStored": 12,
      "BodyPartExamined": "BRAIN",
      "Columns": 900,
      "EchoNumbers": 1,
      "EchoTime": 34.0,
      "EchoTrainLength": 100,
      "FlipAngle": 90.0,
      "HighBit": 11,
      "ImageOrientationPatient": [0.99995303810592, 0.00084449632395, 0.00965445020197, 1.3326818e-08, 0.9961959992175, -0.0871408695334],
      "ImagePositionPatient": [-899.33318217823, -907.56815260657, 0.18717162437471],
      "ImageType": [
        "ORIGINAL",
        "PRIMARY",
        "M",
        "ND",
        "MOSAIC"
],
      "ImagedNucleus": "1H",
      "ImagingFrequency": 123.257804,
      "InPlanePhaseEncodingDirection": "COL",
      "MRAcquisitionType": "2D",
      "MagneticFieldStrength": 3.0,
      "Manufacturer": "SIEMENS",
      "ManufacturerModelName": "Prisma",
      "Modality": "MR",
      "NumberOfAverages": 1.0,
      "NumberOfPhaseEncodingSteps": 100,
      "PercentPhaseFieldOfView": 100.0,
      "PercentSampling": 100.0,
      "PerformedProcedureStepStartTime": "135940.009000",
      "PhotometricInterpretation": "MONOCHROME2",
      "PixelBandwidth": 2380.0,
      "PixelRepresentation": 0,
      "PixelSpacing": [2.0, 2.0],
      "ProtocolName": "bold_100x100_s3_2x2x2_232",
      "RepetitionTime": 2000.0,
      "Rows": 900,
      "SAR": 0.06683349429632,
      "SamplesPerPixel": 1,
      "ScanOptions": "FS",
      "ScanningSequence": "EP",
      "SequenceName": "*epfid2d1_100",
      "SequenceVariant": "SK",
      "SeriesDescription": "bold_100x100_s3_2x2x2_232",
      "SeriesNumber": 8,
      "SeriesTime": "143150.109000",
      "SliceLocation": -70.180392200044,
      "SliceThickness": 2.0,
      "SmallestImagePixelValue": 0,
      "SoftwareVersions": "syngo MR E11",
      "SpacingBetweenSlices": 1.9999999634008,
      "SpecificCharacterSet": "ISO_IR 100",
      "StudyID": "1",
      "StudyTime": "135939.955000",
      "TransmitCoilName": "Body",
      "VariableFlipAngleFlag": "N",
      "WindowCenterWidthExplanation": "Algo1",
      "dBdt": 0.0},
    "slices": {}
  },
  "time": {
    "samples": {
      "AcquisitionNumber": [1, 2, 3, 4, 5, 6, 7, 8, 9, 10, 11, 12, 13, 14, 15, 16, 17, 18, 19, 20, 21, 22, 23, 24, 25, 26, 27, 28, 29, 30, 31, 32, 33, 34, 35, 36, 37, 38, 39, 40, 41, 42, 43, 44, 45, 46, 47, 48, 49, 50, 51, 52, 53, 54, 55, 56, 57, 58, 59, 60, 61, 62, 63, 64, 65, 66, 67, 68, 69, 70, 71, 72, 73, 74, 75, 76, 77, 78, 79, 80, 81, 82, 83, 84, 85, 86, 87, 88, 89, 90, 91, 92, 93, 94, 95, 96, 97, 98, 99, 100, 101, 102, 103, 104, 105, 106, 107, 108, 109, 110, 111, 112, 113, 114, 115, 116, 117, 118, 119, 120, 121, 122, 123, 124, 125, 126, 127, 128, 129, 130, 131, 132, 133, 134, 135, 136, 137, 138, 139, 140, 141, 142, 143, 144, 145, 146, 147, 148, 149, 150, 151, 152, 153, 154, 155, 156, 157, 158, 159, 160, 161, 162, 163, 164, 165, 166, 167, 168, 169, 170, 171, 172, 173, 174, 175, 176, 177, 178, 179, 180, 181, 182, 183, 184, 185, 186, 187, 188, 189, 190, 191, 192, 193, 194, 195, 196, 197, 198, 199, 200, 201, 202, 203, 204, 205, 206, 207, 208, 209, 210, 211, 212, 213, 214, 215, 216, 217, 218, 219, 220, 221, 222, 223, 224, 225, 226, 227, 228, 229, 230, 231, 232],
      "AcquisitionTime": ["143147.525000", "143149.525000", "143151.525000", "143153.525000", "143155.525000", "143157.525000", "143159.525000", "143201.525000", "143203.525000", "143205.525000", "143207.525000", "143209.525000", "143211.525000", "143213.525000", "143215.525000", "143217.525000", "143219.525000", "143221.525000", "143223.525000", "143225.525000", "143227.525000", "143229.525000", "143231.525000", "143233.525000", "143235.525000", "143237.525000", "143239.525000", "143241.525000", "143243.525000", "143245.525000", "143247.525000", "143249.525000", "143251.525000", "143253.525000", "143255.525000", "143257.525000", "143259.525000", "143301.525000", "143303.525000", "143305.525000", "143307.525000", "143309.525000", "143311.525000", "143313.525000", "143315.525000", "143317.525000", "143319.525000", "143321.525000", "143323.525000", "143325.525000", "143327.525000", "143329.525000", "143331.525000", "143333.525000", "143335.525000", "143337.525000", "143339.525000", "143341.525000", "143343.525000", "143345.525000", "143347.525000", "143349.525000", "143351.525000", "143353.525000", "143355.525000", "143357.525000", "143359.525000", "143401.525000", "143403.525000", "143405.525000", "143407.525000", "143409.525000", "143411.525000", "143413.525000", "143415.525000", "143417.525000", "143419.525000", "143421.525000", "143423.525000", "143425.525000", "143427.525000", "143429.525000", "143431.525000", "143433.525000", "143435.525000", "143437.525000", "143439.525000", "143441.525000", "143443.525000", "143445.525000", "143447.525000", "143449.525000", "143451.525000", "143453.525000", "143455.525000", "143457.525000", "143459.525000", "143501.525000", "143503.525000", "143505.525000", "143507.525000", "143509.525000", "143511.525000", "143513.525000", "143515.525000", "143517.525000", "143519.525000", "143521.525000", "143523.525000", "143525.525000", "143527.525000", "143529.525000", "143531.525000", "143533.525000", "143535.525000", "143537.525000", "143539.525000", "143541.525000", "143543.525000", "143545.525000", "143547.525000", "143549.525000", "143551.525000", "143553.525000", "143555.525000", "143557.525000", "143559.525000", "143601.525000", "143603.525000", "143605.525000", "143607.525000", "143609.525000", "143611.525000", "143613.525000", "143615.525000", "143617.525000", "143619.525000", "143621.525000", "143623.525000", "143625.525000", "143627.525000", "143629.525000", "143631.525000", "143633.525000", "143635.525000", "143637.525000", "143639.525000", "143641.525000", "143643.525000", "143645.525000", "143647.525000", "143649.525000", "143651.525000", "143653.525000", "143655.525000", "143657.525000", "143659.525000", "143701.525000", "143703.525000", "143705.525000", "143707.525000", "143709.525000", "143711.525000", "143713.525000", "143715.525000", "143717.525000", "143719.525000", "143721.525000", "143723.525000", "143725.525000", "143727.525000", "143729.525000", "143731.525000", "143733.525000", "143735.525000", "143737.525000", "143739.525000", "143741.525000", "143743.525000", "143745.525000", "143747.525000", "143749.525000", "143751.525000", "143753.525000", "143755.525000", "143757.525000", "143759.525000", "143801.525000", "143803.525000", "143805.525000", "143807.525000", "143809.525000", "143811.525000", "143813.525000", "143815.525000", "143817.525000", "143819.525000", "143821.525000", "143823.525000", "143825.525000", "143827.525000", "143829.525000", "143831.525000", "143833.525000", "143835.525000", "143837.525000", "143839.525000", "143841.525000", "143843.525000", "143845.525000", "143847.525000", "143849.525000", "143851.525000", "143853.525000", "143855.525000", "143857.525000", "143859.525000", "143901.525000", "143903.525000", "143905.525000", "143907.525000", "143909.525000", "143911.525000", "143913.525000", "143915.525000", "143917.525000", "143919.525000", "143921.525000", "143923.525000", "143925.525000", "143927.525000", "143929.525000"],
      "ContentTime": ["143150.113000", "143152.105000", "143153.605000", "143156.105000", "143157.605000", "143200.104000", "143201.604000", "143204.104000", "143206.104000", "143208.105000", "143209.606000", "143212.105000", "143213.606000", "143216.106000", "143218.104000", "143220.104000", "143222.105000", "143224.104000", "143226.105000", "143228.105000", "143229.605000", "143232.105000", "143234.105000", "143236.104000", "143238.104000", "143240.104000", "143242.106000", "143244.106000", "143245.605000", "143247.606000", "143250.106000", "143252.104000", "143254.104000", "143256.104000", "143257.604000", "143300.106000", "143302.105000", "143304.106000", "143305.606000", "143307.605000", "143310.105000", "143312.104000", "143314.105000", "143316.104000", "143318.105000", "143320.105000", "143322.106000", "143324.105000", "143326.105000", "143328.104000", "143330.104000", "143331.605000", "143334.104000", "143335.606000", "143337.605000", "143340.105000", "143342.105000", "143344.104000", "143345.604000", "143348.104000", "143349.604000", "143351.604000", "143353.605000", "143356.105000", "143358.105000", "143359.605000", "143402.104000", "143404.105000", "143406.104000", "143408.105000", "143410.106000", "143412.105000", "143414.106000", "143416.105000", "143418.105000", "143419.604000", "143422.104000", "143423.604000", "143426.104000", "143427.605000", "143430.106000", "143432.105000", "143434.105000", "143436.106000", "143438.104000", "143440.104000", "143442.104000", "143443.604000", "143446.106000", "143448.105000", "143450.106000", "143452.105000", "143454.105000", "143455.604000", "143458.104000", "143459.605000", "143501.604000", "143504.106000", "143506.106000", "143508.105000", "143510.105000", "143512.104000", "143514.105000", "143516.104000", "143518.104000", "143520.106000", "143522.105000", "143524.105000", "143526.105000", "143528.105000", "143530.104000", "143532.104000", "143534.104000", "143536.105000", "143538.106000", "143540.105000", "143542.105000", "143544.105000", "143546.106000", "143548.104000", "143550.104000", "143552.104000", "143554.104000", "143556.105000", "143558.106000", "143600.105000", "143602.105000", "143604.104000", "143606.104000", "143608.105000", "143609.605000", "143612.105000", "143614.106000", "143616.105000", "143618.105000", "143620.106000", "143622.104000", "143624.104000", "143626.105000", "143628.104000", "143629.605000", "143632.105000", "143634.105000", "143636.105000", "143638.105000", "143640.105000", "143642.104000", "143644.104000", "143646.104000", "143648.106000", "143650.105000", "143652.105000", "143654.106000", "143655.606000", "143657.604000", "143700.105000", "143702.104000", "143704.104000", "143706.106000", "143708.105000", "143710.105000", "143712.106000", "143713.605000", "143716.104000", "143718.105000", "143719.605000", "143722.105000", "143724.105000", "143726.106000", "143728.105000", "143730.105000", "143732.105000", "143734.104000", "143736.105000", "143738.104000", "143740.106000", "143742.106000", "143744.105000", "143745.605000", "143748.106000", "143750.104000", "143752.105000", "143753.605000", "143755.605000", "143757.606000", "143800.106000", "143802.106000", "143804.106000", "143806.105000", "143808.105000", "143810.104000", "143812.104000", "143814.105000", "143815.606000", "143817.605000", "143819.625000", "143822.105000", "143823.605000", "143826.105000", "143827.605000", "143829.604000", "143832.106000", "143834.105000", "143835.605000", "143837.605000", "143839.606000", "143842.105000", "143843.604000", "143846.104000", "143847.604000", "143850.106000", "143852.106000", "143853.605000", "143856.105000", "143857.605000", "143859.604000", "143902.105000", "143903.605000", "143906.104000", "143908.106000", "143910.106000", "143912.105000", "143913.605000", "143915.605000", "143918.105000", "143920.104000", "143922.104000", "143924.105000", "143925.605000", "143928.105000", "143930.105000", "143931.563000"],
      "InstanceCreationTime": ["143150.113000", "143152.105000", "143153.605000", "143156.105000", "143157.605000", "143200.104000", "143201.604000", "143204.104000", "143206.104000", "143208.105000", "143209.606000", "143212.105000", "143213.606000", "143216.106000", "143218.104000", "143220.104000", "143222.105000", "143224.104000", "143226.105000", "143228.105000", "143229.605000", "143232.105000", "143234.105000", "143236.104000", "143238.104000", "143240.104000", "143242.106000", "143244.106000", "143245.605000", "143247.606000", "143250.106000", "143252.104000", "143254.104000", "143256.104000", "143257.604000", "143300.106000", "143302.105000", "143304.106000", "143305.606000", "143307.605000", "143310.105000", "143312.104000", "143314.105000", "143316.104000", "143318.105000", "143320.105000", "143322.106000", "143324.105000", "143326.105000", "143328.104000", "143330.104000", "143331.605000", "143334.104000", "143335.606000", "143337.605000", "143340.105000", "143342.105000", "143344.104000", "143345.604000", "143348.104000", "143349.604000", "143351.604000", "143353.605000", "143356.105000", "143358.105000", "143359.605000", "143402.104000", "143404.105000", "143406.104000", "143408.105000", "143410.106000", "143412.105000", "143414.106000", "143416.105000", "143418.105000", "143419.604000", "143422.104000", "143423.604000", "143426.104000", "143427.605000", "143430.106000", "143432.105000", "143434.105000", "143436.106000", "143438.104000", "143440.104000", "143442.104000", "143443.604000", "143446.106000", "143448.105000", "143450.106000", "143452.105000", "143454.105000", "143455.604000", "143458.104000", "143459.605000", "143501.604000", "143504.106000", "143506.106000", "143508.105000", "143510.105000", "143512.104000", "143514.105000", "143516.104000", "143518.104000", "143520.106000", "143522.105000", "143524.105000", "143526.105000", "143528.105000", "143530.104000", "143532.104000", "143534.104000", "143536.105000", "143538.106000", "143540.105000", "143542.105000", "143544.105000", "143546.106000", "143548.104000", "143550.104000", "143552.104000", "143554.104000", "143556.105000", "143558.106000", "143600.105000", "143602.105000", "143604.104000", "143606.104000", "143608.105000", "143609.605000", "143612.105000", "143614.106000", "143616.105000", "143618.105000", "143620.106000", "143622.104000", "143624.104000", "143626.105000", "143628.104000", "143629.605000", "143632.105000", "143634.105000", "143636.105000", "143638.105000", "143640.105000", "143642.104000", "143644.104000", "143646.104000", "143648.106000", "143650.105000", "143652.105000", "143654.106000", "143655.606000", "143657.604000", "143700.105000", "143702.104000", "143704.104000", "143706.106000", "143708.105000", "143710.105000", "143712.106000", "143713.605000", "143716.104000", "143718.105000", "143719.605000", "143722.105000", "143724.105000", "143726.106000", "143728.105000", "143730.105000", "143732.105000", "143734.104000", "143736.105000", "143738.104000", "143740.106000", "143742.106000", "143744.105000", "143745.605000", "143748.106000", "143750.104000", "143752.105000", "143753.605000", "143755.605000", "143757.606000", "143800.106000", "143802.106000", "143804.106000", "143806.105000", "143808.105000", "143810.104000", "143812.104000", "143814.105000", "143815.606000", "143817.605000", "143819.625000", "143822.105000", "143823.605000", "143826.105000", "143827.605000", "143829.604000", "143832.106000", "143834.105000", "143835.605000", "143837.605000", "143839.606000", "143842.105000", "143843.604000", "143846.104000", "143847.604000", "143850.106000", "143852.106000", "143853.605000", "143856.105000", "143857.605000", "143859.604000", "143902.105000", "143903.605000", "143906.104000", "143908.106000", "143910.106000", "143912.105000", "143913.605000", "143915.605000", "143918.105000", "143920.104000", "143922.104000", "143924.105000", "143925.605000", "143928.105000", "143930.105000", "143931.563000"],
      "InstanceNumber": [1, 2, 3, 4, 5, 6, 7, 8, 9, 10, 11, 12, 13, 14, 15, 16, 17, 18, 19, 20, 21, 22, 23, 24, 25, 26, 27, 28, 29, 30, 31, 32, 33, 34, 35, 36, 37, 38, 39, 40, 41, 42, 43, 44, 45, 46, 47, 48, 49, 50, 51, 52, 53, 54, 55, 56, 57, 58, 59, 60, 61, 62, 63, 64, 65, 66, 67, 68, 69, 70, 71, 72, 73, 74, 75, 76, 77, 78, 79, 80, 81, 82, 83, 84, 85, 86, 87, 88, 89, 90, 91, 92, 93, 94, 95, 96, 97, 98, 99, 100, 101, 102, 103, 104, 105, 106, 107, 108, 109, 110, 111, 112, 113, 114, 115, 116, 117, 118, 119, 120, 121, 122, 123, 124, 125, 126, 127, 128, 129, 130, 131, 132, 133, 134, 135, 136, 137, 138, 139, 140, 141, 142, 143, 144, 145, 146, 147, 148, 149, 150, 151, 152, 153, 154, 155, 156, 157, 158, 159, 160, 161, 162, 163, 164, 165, 166, 167, 168, 169, 170, 171, 172, 173, 174, 175, 176, 177, 178, 179, 180, 181, 182, 183, 184, 185, 186, 187, 188, 189, 190, 191, 192, 193, 194, 195, 196, 197, 198, 199, 200, 201, 202, 203, 204, 205, 206, 207, 208, 209, 210, 211, 212, 213, 214, 215, 216, 217, 218, 219, 220, 221, 222, 223, 224, 225, 226, 227, 228, 229, 230, 231, 232],
      "LargestImagePixelValue": [3177, 3350, 3218, 3370, 3281, 3251, 3253, 3256, 3355, 3384, 3324, 3413, 3405, 3442, 3342, 3388, 3477, 3323, 3319, 3366, 3338, 3285, 3468, 3283, 3262, 3337, 3373, 3230, 3333, 3266, 3241, 3309, 3273, 3360, 3267, 3424, 3301, 3177, 3235, 3308, 3236, 3349, 3281, 3223, 3339, 3473, 3255, 3243, 3580, 3366, 3401, 3440, 3373, 3165, 3304, 3351, 3396, 3554, 3332, 3394, 3238, 3205, 3312, 3685, 3201, 3248, 3248, 3372, 3328, 3413, 3258, 3250, 3237, 3390, 3423, 3451, 3491, 3580, 3467, 3399, 3399, 3423, 3485, 3328, 3483, 3306, 3410, 3654, 3238, 3339, 3456, 3363, 3226, 3131, 3393, 3260, 3206, 3301, 3675, 3468, 3281, 3488, 3206, 3392, 3193, 3368, 3374, 3389, 3540, 3411, 3273, 3227, 3311, 3273, 3398, 3375, 3364, 3425, 3494, 3353, 3204, 3226, 3567, 3316, 3368, 3400, 3218, 3557, 3214, 3498, 3333, 3135, 3126, 3216, 3550, 3024, 3248, 3237, 3600, 3398, 3172, 3028, 3354, 3146, 3337, 3056, 3100, 3022, 3105, 3088, 3066, 3099, 3044, 3082, 3030, 3234, 3200, 3363, 3115, 3083, 3353, 3270, 3346, 3522, 3122, 3076, 3080, 3133, 3421, 3404, 3462, 3325, 3319, 3420, 3517, 3576, 3544, 3472, 3578, 3508, 3143, 3158, 3292, 3331, 3187, 3351, 3407, 3581, 3368, 3375, 3522, 3508, 3306, 3371, 3383, 3275, 3231, 3169, 3172, 3438, 3236, 3370, 3374, 3546, 3421, 3528, 3554, 3492, 3451, 3452, 3263, 3360, 3466, 3208, 3206, 3507, 3224, 3428, 3303, 3490, 3511, 3409, 3292, 3396, 3447, 3549, 3508, 3457, 3418, 3472, 3298, 3423],
      "WindowCenter": [795.0, 795.0, 793.0, 795.0, 794.0, 794.0, 794.0, 794.0, 794.0, 794.0, 795.0, 796.0, 795.0, 795.0, 793.0, 793.0, 794.0, 790.0, 793.0, 795.0, 794.0, 793.0, 795.0, 794.0, 795.0, 796.0, 797.0, 795.0, 794.0, 795.0, 796.0, 797.0, 793.0, 791.0, 791.0, 796.0, 795.0, 792.0, 793.0, 793.0, 789.0, 792.0, 791.0, 791.0, 793.0, 795.0, 793.0, 793.0, 797.0, 796.0, 796.0, 797.0, 795.0, 793.0, 794.0, 796.0, 796.0, 798.0, 796.0, 795.0, 793.0, 792.0, 794.0, 798.0, 795.0, 795.0, 794.0, 794.0, 793.0, 795.0, 794.0, 793.0, 793.0, 795.0, 794.0, 795.0, 794.0, 794.0, 793.0, 792.0, 792.0, 793.0, 794.0, 792.0, 795.0, 793.0, 796.0, 799.0, 796.0, 797.0, 797.0, 795.0, 793.0, 792.0, 796.0, 794.0, 793.0, 793.0, 798.0, 796.0, 794.0, 797.0, 795.0, 798.0, 795.0, 797.0, 796.0, 796.0, 797.0, 792.0, 793.0, 792.0, 793.0, 794.0, 794.0, 794.0, 793.0, 795.0, 796.0, 796.0, 794.0, 793.0, 798.0, 796.0, 796.0, 796.0, 794.0, 797.0, 793.0, 795.0, 794.0, 792.0, 792.0, 795.0, 798.0, 793.0, 796.0, 796.0, 798.0, 795.0, 793.0, 791.0, 794.0, 792.0, 795.0, 792.0, 793.0, 792.0, 792.0, 792.0, 792.0, 793.0, 791.0, 791.0, 791.0, 793.0, 793.0, 795.0, 791.0, 791.0, 793.0, 793.0, 793.0, 795.0, 791.0, 791.0, 791.0, 792.0, 794.0, 795.0, 795.0, 793.0, 793.0, 794.0, 795.0, 796.0, 795.0, 795.0, 796.0, 795.0, 792.0, 793.0, 794.0, 794.0, 792.0, 793.0, 795.0, 796.0, 794.0, 795.0, 796.0, 796.0, 795.0, 795.0, 794.0, 795.0, 793.0, 791.0, 792.0, 795.0, 792.0, 793.0, 794.0, 796.0, 795.0, 796.0, 797.0, 796.0, 796.0, 796.0, 793.0, 794.0, 795.0, 792.0, 792.0, 795.0, 792.0, 794.0, 793.0, 795.0, 795.0, 794.0, 793.0, 794.0, 795.0, 796.0, 795.0, 794.0, 793.0, 794.0, 792.0, 793.0],
      "WindowWidth": [1688.0, 1689.0, 1683.0, 1687.0, 1685.0, 1686.0, 1685.0, 1685.0, 1685.0, 1685.0, 1686.0, 1689.0, 1686.0, 1686.0, 1682.0, 1682.0, 1685.0, 1675.0, 1681.0, 1685.0, 1685.0, 1682.0, 1686.0, 1684.0, 1685.0, 1689.0, 1690.0, 1685.0, 1683.0, 1685.0, 1688.0, 1691.0, 1681.0, 1676.0, 1675.0, 1687.0, 1686.0, 1678.0, 1681.0, 1680.0, 1670.0, 1677.0, 1675.0, 1675.0, 1679.0, 1684.0, 1679.0, 1679.0, 1690.0, 1687.0, 1689.0, 1690.0, 1686.0, 1681.0, 1683.0, 1688.0, 1689.0, 1694.0, 1687.0, 1686.0, 1680.0, 1678.0, 1681.0, 1694.0, 1685.0, 1686.0, 1683.0, 1684.0, 1681.0, 1686.0, 1683.0, 1682.0, 1681.0, 1686.0, 1685.0, 1685.0, 1685.0, 1683.0, 1682.0, 1679.0, 1678.0, 1681.0, 1683.0, 1679.0, 1685.0, 1682.0, 1688.0, 1696.0, 1689.0, 1692.0, 1691.0, 1686.0, 1681.0, 1677.0, 1689.0, 1684.0, 1681.0, 1680.0, 1692.0, 1688.0, 1682.0, 1689.0, 1684.0, 1691.0, 1683.0, 1688.0, 1686.0, 1686.0, 1689.0, 1677.0, 1679.0, 1677.0, 1680.0, 1681.0, 1683.0, 1681.0, 1680.0, 1683.0, 1688.0, 1687.0, 1682.0, 1681.0, 1693.0, 1688.0, 1688.0, 1688.0, 1682.0, 1689.0, 1680.0, 1686.0, 1682.0, 1677.0, 1677.0, 1684.0, 1691.0, 1678.0, 1687.0, 1686.0, 1691.0, 1684.0, 1679.0, 1674.0, 1680.0, 1676.0, 1683.0, 1677.0, 1678.0, 1676.0, 1677.0, 1677.0, 1677.0, 1678.0, 1675.0, 1673.0, 1675.0, 1679.0, 1678.0, 1683.0, 1674.0, 1675.0, 1679.0, 1680.0, 1681.0, 1684.0, 1676.0, 1676.0, 1676.0, 1677.0, 1682.0, 1683.0, 1685.0, 1679.0, 1680.0, 1681.0, 1684.0, 1686.0, 1684.0, 1683.0, 1686.0, 1685.0, 1678.0, 1678.0, 1681.0, 1681.0, 1676.0, 1679.0, 1683.0, 1687.0, 1682.0, 1683.0, 1686.0, 1688.0, 1686.0, 1684.0, 1681.0, 1683.0, 1680.0, 1675.0, 1678.0, 1684.0, 1678.0, 1680.0, 1682.0, 1687.0, 1684.0, 1686.0, 1689.0, 1688.0, 1687.0, 1686.0, 1680.0, 1681.0, 1684.0, 1678.0, 1678.0, 1685.0, 1678.0, 1683.0, 1680.0, 1685.0, 1685.0, 1682.0, 1679.0, 1682.0, 1686.0, 1687.0, 1684.0, 1683.0, 1681.0, 1682.0, 1677.0, 1681.0]
    },
    "slices": {}
  }
}