{
  "AcquisitionMatrixPE": 100,
  "AcquisitionNumber": 1,
  "AcquisitionTime": "14:02:51.562500",
  "BandwidthPerPixelPhaseEncode": 18.519,
  "BaseResolution": 100,
  "BodyPartExamined": "BRAIN",
  "ConsistencyInfo": "N4_VE11C_LATEST_20160120",
  "ConversionSoftware": "dcm2niix",
  "ConversionSoftwareVersion": "v1.0.20180622 GCC4.9.2",
  "DerivedVendorReportedEchoSpacing": 0.000539986,
  "DeviceSerialNumber": "166078",
  "DwellTime": 2.1e-06,
  "EchoTime": 0.034,
  "EchoTrainLength": 100,
  "EffectiveEchoSpacing": 0.000539986,
  "FlipAngle": 90,
  "ImageOrientationPatientDICOM": [0.999953, 0.000844496, 0.00965445, 1.33268e-08, 0.996196, -0.0871409],
  "ImageType": [
    "ORIGINAL",
    "PRIMARY",
    "M",
    "ND",
    "MOSAIC"
],
  "InPlanePhaseEncodingDirectionDICOM": "COL",
  "InstitutionAddress": "Street_StreetNo_Bei_Jing_District_CN_ZIP",
  "InstitutionName": "BeiJing_Normal_University",
  "InstitutionalDepartmentName": "Department",
  "MRAcquisitionType": "2D",
  "MagneticFieldStrength": 3,
  "Manufacturer": "Siemens",
  "ManufacturersModelName": "Prisma",
  "Modality": "MR",
  "MultibandAccelerationFactor": 3,
  "PartialFourier": 1,
  "PatientPosition": "HFS",
  "PercentPhaseFOV": 100,
  "PhaseEncodingDirection": "j-",
  "PhaseEncodingSteps": 100,
  "PhaseResolution": 1,
  "PixelBandwidth": 2380,
  "ProcedureStepDescription": "BNU_P2018_64CH_Liu.Jia",
  "ProtocolName": "bold_100x100_s3_2x2x2_232",
  "PulseSequenceDetails": "%SiemensSeq%_ep2d_bold",
  "ReceiveCoilActiveElements": "HC1-7;NC1",
  "ReceiveCoilName": "HeadNeck_64",
  "ReconMatrixPE": 100,
  "RepetitionTime": 2,
  "SAR": 0.0668335,
  "ScanOptions": "FS",
  "ScanningSequence": "EP",
  "SequenceName": "_epfid2d1_100",
  "SequenceVariant": "SK",
  "SeriesDescription": "bold_100x100_s3_2x2x2_232",
  "SeriesNumber": 3,
  "ShimSetting": [-5484, -11497, -1295, 400, -117, -315, -149, 0],
  "SliceThickness": 2,
  "SliceTiming": [1.485, 0, 0.99, 0.0825, 1.0725, 0.165, 1.155, 0.2475, 1.2375, 0.33, 1.32, 0.4125, 1.4025, 0.5775, 1.5675, 0.66, 1.65, 0.7425, 1.7325, 0.825, 1.815, 0.9075, 1.8975, 0.495, 1.485, 0, 0.99, 0.0825, 1.0725, 0.165, 1.155, 0.2475, 1.2375, 0.33, 1.32, 0.4125, 1.4025, 0.5775, 1.5675, 0.66, 1.65, 0.7425, 1.7325, 0.825, 1.815, 0.9075, 1.8975, 0.495, 1.485, 0, 0.99, 0.0825, 1.0725, 0.165, 1.155, 0.2475, 1.2375, 0.33, 1.32, 0.4125, 1.4025, 0.5775, 1.5675, 0.66, 1.65, 0.7425, 1.7325, 0.825, 1.815, 0.9075, 1.8975, 0.495],
  "SoftwareVersions": "syngo_MR_E11",
  "SpacingBetweenSlices": 2,
  "StationName": "AWP166078",
  "TaskName": "motor",
  "TotalReadoutTime": 0.0534586,
  "TxRefAmp": 250.586,
  "dcmmeta_affine": [
    [-1.999906063079834, 2.665363574294588e-08, 0.019382629543542862, 99.37073516845703],
    [-0.0016889926046133041, 1.9923919439315796, -0.1742735505104065, -87.31105041503906],
    [0.019308900460600853, 0.1742817461490631, 1.9922983646392822, -79.05585479736328],
    [0.0, 0.0, 0.0, 1.0]
],
  "dcmmeta_reorient_transform": [
    [0.0, -1.0, 0.0, 99.0],
    [1.0, 0.0, 0.0, 0.0],
    [0.0, 0.0, 1.0, 0.0],
    [0.0, 0.0, 0.0, 1.0]
],
  "dcmmeta_shape": [100, 100, 72, 232],
  "dcmmeta_slice_dim": 2,
  "dcmmeta_version": 0.6,
  "global": {
    "const": {
      "AcquisitionMatrix": [100, 0, 0, 100],
      "AngioFlag": "N",
      "BitsAllocated": 16,
      "BitsStored": 12,
      "BodyPartExamined": "BRAIN",
      "Columns": 900,
      "EchoNumbers": 1,
      "EchoTime": 34.0,
      "EchoTrainLength": 100,
      "FlipAngle": 90.0,
      "HighBit": 11,
      "ImageOrientationPatient": [0.99995303810592, 0.00084449632395, 0.00965445020197, 1.3326818e-08, 0.9961959992175, -0.0871408695334],
      "ImagePositionPatient": [-899.33318217823, -907.56815260657, 0.18717162437471],
      "ImageType": [
        "ORIGINAL",
        "PRIMARY",
        "M",
        "ND",
        "MOSAIC"
],
      "ImagedNucleus": "1H",
      "ImagingFrequency": 123.257789,
      "InPlanePhaseEncodingDirection": "COL",
      "MRAcquisitionType": "2D",
      "MagneticFieldStrength": 3.0,
      "Manufacturer": "SIEMENS",
      "ManufacturerModelName": "Prisma",
      "Modality": "MR",
      "NumberOfAverages": 1.0,
      "NumberOfPhaseEncodingSteps": 100,
      "PercentPhaseFieldOfView": 100.0,
      "PercentSampling": 100.0,
      "PerformedProcedureStepStartTime": "135940.009000",
      "PhotometricInterpretation": "MONOCHROME2",
      "PixelBandwidth": 2380.0,
      "PixelRepresentation": 0,
      "PixelSpacing": [2.0, 2.0],
      "ProtocolName": "bold_100x100_s3_2x2x2_232",
      "RepetitionTime": 2000.0,
      "Rows": 900,
      "SAR": 0.06683349429632,
      "SamplesPerPixel": 1,
      "ScanOptions": "FS",
      "ScanningSequence": "EP",
      "SequenceName": "*epfid2d1_100",
      "SequenceVariant": "SK",
      "SeriesDescription": "bold_100x100_s3_2x2x2_232",
      "SeriesNumber": 3,
      "SeriesTime": "140253.472000",
      "SliceLocation": -70.180392200044,
      "SliceThickness": 2.0,
      "SmallestImagePixelValue": 0,
      "SoftwareVersions": "syngo MR E11",
      "SpacingBetweenSlices": 1.9999999634008,
      "SpecificCharacterSet": "ISO_IR 100",
      "StudyID": "1",
      "StudyTime": "135939.955000",
      "TransmitCoilName": "Body",
      "VariableFlipAngleFlag": "N",
      "WindowCenterWidthExplanation": "Algo1",
      "dBdt": 0.0},
    "slices": {}
  },
  "time": {
    "samples": {
      "AcquisitionNumber": [1, 2, 3, 4, 5, 6, 7, 8, 9, 10, 11, 12, 13, 14, 15, 16, 17, 18, 19, 20, 21, 22, 23, 24, 25, 26, 27, 28, 29, 30, 31, 32, 33, 34, 35, 36, 37, 38, 39, 40, 41, 42, 43, 44, 45, 46, 47, 48, 49, 50, 51, 52, 53, 54, 55, 56, 57, 58, 59, 60, 61, 62, 63, 64, 65, 66, 67, 68, 69, 70, 71, 72, 73, 74, 75, 76, 77, 78, 79, 80, 81, 82, 83, 84, 85, 86, 87, 88, 89, 90, 91, 92, 93, 94, 95, 96, 97, 98, 99, 100, 101, 102, 103, 104, 105, 106, 107, 108, 109, 110, 111, 112, 113, 114, 115, 116, 117, 118, 119, 120, 121, 122, 123, 124, 125, 126, 127, 128, 129, 130, 131, 132, 133, 134, 135, 136, 137, 138, 139, 140, 141, 142, 143, 144, 145, 146, 147, 148, 149, 150, 151, 152, 153, 154, 155, 156, 157, 158, 159, 160, 161, 162, 163, 164, 165, 166, 167, 168, 169, 170, 171, 172, 173, 174, 175, 176, 177, 178, 179, 180, 181, 182, 183, 184, 185, 186, 187, 188, 189, 190, 191, 192, 193, 194, 195, 196, 197, 198, 199, 200, 201, 202, 203, 204, 205, 206, 207, 208, 209, 210, 211, 212, 213, 214, 215, 216, 217, 218, 219, 220, 221, 222, 223, 224, 225, 226, 227, 228, 229, 230, 231, 232],
      "AcquisitionTime": ["140251.562500", "140253.562500", "140255.562500", "140257.562500", "140259.562500", "140301.562500", "140303.562500", "140305.562500", "140307.562500", "140309.562500", "140311.562500", "140313.562500", "140315.562500", "140317.562500", "140319.562500", "140321.562500", "140323.562500", "140325.562500", "140327.562500", "140329.562500", "140331.562500", "140333.562500", "140335.562500", "140337.562500", "140339.562500", "140341.562500", "140343.562500", "140345.562500", "140347.562500", "140349.562500", "140351.562500", "140353.562500", "140355.562500", "140357.562500", "140359.562500", "140401.562500", "140403.562500", "140405.562500", "140407.562500", "140409.562500", "140411.562500", "140413.562500", "140415.562500", "140417.562500", "140419.562500", "140421.562500", "140423.562500", "140425.562500", "140427.562500", "140429.562500", "140431.562500", "140433.562500", "140435.562500", "140437.562500", "140439.562500", "140441.562500", "140443.562500", "140445.562500", "140447.562500", "140449.562500", "140451.562500", "140453.562500", "140455.562500", "140457.562500", "140459.562500", "140501.562500", "140503.562500", "140505.562500", "140507.562500", "140509.562500", "140511.562500", "140513.562500", "140515.562500", "140517.562500", "140519.562500", "140521.562500", "140523.562500", "140525.562500", "140527.562500", "140529.562500", "140531.562500", "140533.562500", "140535.562500", "140537.562500", "140539.562500", "140541.562500", "140543.562500", "140545.562500", "140547.562500", "140549.562500", "140551.562500", "140553.562500", "140555.562500", "140557.562500", "140559.562500", "140601.562500", "140603.562500", "140605.562500", "140607.562500", "140609.562500", "140611.562500", "140613.562500", "140615.562500", "140617.562500", "140619.562500", "140621.562500", "140623.562500", "140625.562500", "140627.562500", "140629.562500", "140631.562500", "140633.562500", "140635.562500", "140637.562500", "140639.562500", "140641.562500", "140643.562500", "140645.562500", "140647.562500", "140649.562500", "140651.562500", "140653.562500", "140655.562500", "140657.562500", "140659.562500", "140701.562500", "140703.562500", "140705.562500", "140707.562500", "140709.562500", "140711.562500", "140713.562500", "140715.562500", "140717.562500", "140719.562500", "140721.562500", "140723.562500", "140725.562500", "140727.562500", "140729.562500", "140731.562500", "140733.562500", "140735.562500", "140737.562500", "140739.562500", "140741.562500", "140743.562500", "140745.562500", "140747.562500", "140749.562500", "140751.562500", "140753.562500", "140755.562500", "140757.562500", "140759.562500", "140801.562500", "140803.562500", "140805.562500", "140807.562500", "140809.562500", "140811.562500", "140813.562500", "140815.562500", "140817.562500", "140819.562500", "140821.562500", "140823.562500", "140825.562500", "140827.562500", "140829.562500", "140831.562500", "140833.562500", "140835.562500", "140837.562500", "140839.562500", "140841.562500", "140843.562500", "140845.562500", "140847.562500", "140849.562500", "140851.562500", "140853.562500", "140855.562500", "140857.562500", "140859.562500", "140901.562500", "140903.562500", "140905.562500", "140907.562500", "140909.562500", "140911.562500", "140913.562500", "140915.562500", "140917.562500", "140919.562500", "140921.562500", "140923.562500", "140925.562500", "140927.562500", "140929.562500", "140931.562500", "140933.562500", "140935.562500", "140937.562500", "140939.562500", "140941.562500", "140943.562500", "140945.562500", "140947.562500", "140949.562500", "140951.562500", "140953.562500", "140955.562500", "140957.562500", "140959.562500", "141001.562500", "141003.562500", "141005.562500", "141007.562500", "141009.562500", "141011.562500", "141013.562500", "141015.562500", "141017.562500", "141019.562500", "141021.562500", "141023.562500", "141025.562500", "141027.562500", "141029.562500", "141031.562500", "141033.562500"],
      "ContentTime": ["140253.476000", "140255.470000", "140257.470000", "140259.471000", "140300.971000", "140303.472000", "140305.471000", "140307.471000", "140309.471000", "140311.471000", "140313.470000", "140315.470000", "140317.472000", "140319.472000", "140321.471000", "140323.471000", "140325.471000", "140327.471000", "140329.470000", "140331.470000", "140333.470000", "140335.471000", "140336.971000", "140339.471000", "140340.971000", "140343.471000", "140345.471000", "140346.970000", "140349.470000", "140351.471000", "140353.471000", "140355.471000", "140357.471000", "140359.472000", "140401.471000", "140402.972000", "140405.470000", "140407.471000", "140409.471000", "140411.472000", "140412.971000", "140415.471000", "140417.472000", "140419.471000", "140421.472000", "140423.470000", "140425.470000", "140427.471000", "140429.472000", "140431.472000", "140433.471000", "140435.471000", "140437.471000", "140439.470000", "140441.471000", "140443.472000", "140445.472000", "140447.471000", "140448.971000", "140451.471000", "140453.472000", "140455.472000", "140457.471000", "140459.470000", "140500.971000", "140503.471000", "140504.971000", "140506.971000", "140508.972000", "140510.971000", "140513.471000", "140515.471000", "140517.471000", "140519.471000", "140520.971000", "140522.971000", "140525.472000", "140526.971000", "140529.472000", "140531.471000", "140533.470000", "140535.470000", "140537.471000", "140539.472000", "140541.471000", "140542.971000", "140545.471000", "140547.471000", "140549.470000", "140551.470000", "140553.472000", "140555.471000", "140557.471000", "140559.471000", "140600.971000", "140603.471000", "140605.472000", "140607.470000", "140609.471000", "140611.472000", "140613.472000", "140615.471000", "140617.471000", "140618.972000", "140621.471000", "140623.472000", "140625.470000", "140627.470000", "140629.471000", "140631.471000", "140632.971000", "140635.472000", "140637.471000", "140639.472000", "140641.472000", "140643.471000", "140645.471000", "140646.971000", "140649.471000", "140651.472000", "140653.471000", "140655.471000", "140657.471000", "140659.470000", "140701.470000", "140703.472000", "140705.471000", "140707.471000", "140708.972000", "140711.472000", "140713.471000", "140715.472000", "140717.470000", "140719.471000", "140721.471000", "140723.471000", "140725.471000", "140727.472000", "140729.471000", "140731.472000", "140733.471000", "140734.970000", "140737.470000", "140739.472000", "140741.472000", "140743.471000", "140745.472000", "140747.472000", "140749.472000", "140751.472000", "140753.470000", "140755.470000", "140757.471000", "140759.471000", "140801.472000", "140803.472000", "140805.471000", "140807.471000", "140809.470000", "140810.970000", "140812.970000", "140815.472000", "140817.472000", "140818.971000", "140821.471000", "140823.472000", "140825.472000", "140827.471000", "140829.470000", "140831.471000", "140833.471000", "140835.472000", "140837.471000", "140839.472000", "140840.971000", "140843.472000", "140845.470000", "140847.471000", "140849.471000", "140851.472000", "140853.471000", "140855.472000", "140857.471000", "140859.471000", "140901.471000", "140903.471000", "140905.470000", "140907.471000", "140909.472000", "140911.472000", "140912.972000", "140915.471000", "140917.480000", "140918.972000", "140921.471000", "140923.472000", "140925.472000", "140926.971000", "140929.471000", "140931.471000", "140932.971000", "140935.472000", "140937.490000", "140939.470000", "140940.971000", "140942.971000", "140945.472000", "140947.471000", "140949.472000", "140951.472000", "140953.471000", "140955.470000", "140957.471000", "140959.472000", "141000.971000", "141003.472000", "141005.472000", "141007.471000", "141009.472000", "141011.471000", "141013.471000", "141015.470000", "141017.472000", "141019.472000", "141021.472000", "141023.472000", "141025.471000", "141027.472000", "141029.471000", "141031.471000", "141033.472000", "141034.944000"],
      "InstanceCreationTime": ["140253.476000", "140255.470000", "140257.470000", "140259.471000", "140300.971000", "140303.472000", "140305.471000", "140307.471000", "140309.471000", "140311.471000", "140313.470000", "140315.470000", "140317.472000", "140319.472000", "140321.471000", "140323.471000", "140325.471000", "140327.471000", "140329.470000", "140331.470000", "140333.470000", "140335.471000", "140336.971000", "140339.471000", "140340.971000", "140343.471000", "140345.471000", "140346.970000", "140349.470000", "140351.471000", "140353.471000", "140355.471000", "140357.471000", "140359.472000", "140401.471000", "140402.972000", "140405.470000", "140407.471000", "140409.471000", "140411.472000", "140412.971000", "140415.471000", "140417.472000", "140419.471000", "140421.472000", "140423.470000", "140425.470000", "140427.471000", "140429.472000", "140431.472000", "140433.471000", "140435.471000", "140437.471000", "140439.470000", "140441.471000", "140443.472000", "140445.472000", "140447.471000", "140448.971000", "140451.471000", "140453.472000", "140455.472000", "140457.471000", "140459.470000", "140500.971000", "140503.471000", "140504.971000", "140506.971000", "140508.972000", "140510.971000", "140513.471000", "140515.471000", "140517.471000", "140519.471000", "140520.971000", "140522.971000", "140525.472000", "140526.971000", "140529.472000", "140531.471000", "140533.470000", "140535.470000", "140537.471000", "140539.472000", "140541.471000", "140542.971000", "140545.471000", "140547.471000", "140549.470000", "140551.470000", "140553.472000", "140555.471000", "140557.471000", "140559.471000", "140600.971000", "140603.471000", "140605.472000", "140607.470000", "140609.471000", "140611.472000", "140613.472000", "140615.471000", "140617.471000", "140618.972000", "140621.471000", "140623.472000", "140625.470000", "140627.470000", "140629.471000", "140631.471000", "140632.971000", "140635.472000", "140637.471000", "140639.472000", "140641.472000", "140643.471000", "140645.471000", "140646.971000", "140649.471000", "140651.472000", "140653.471000", "140655.471000", "140657.471000", "140659.470000", "140701.470000", "140703.472000", "140705.471000", "140707.471000", "140708.972000", "140711.472000", "140713.471000", "140715.472000", "140717.470000", "140719.471000", "140721.471000", "140723.471000", "140725.471000", "140727.472000", "140729.471000", "140731.472000", "140733.471000", "140734.970000", "140737.470000", "140739.472000", "140741.472000", "140743.471000", "140745.472000", "140747.472000", "140749.472000", "140751.472000", "140753.470000", "140755.470000", "140757.471000", "140759.471000", "140801.472000", "140803.472000", "140805.471000", "140807.471000", "140809.470000", "140810.970000", "140812.970000", "140815.472000", "140817.472000", "140818.971000", "140821.471000", "140823.472000", "140825.472000", "140827.471000", "140829.470000", "140831.471000", "140833.471000", "140835.472000", "140837.471000", "140839.472000", "140840.971000", "140843.472000", "140845.470000", "140847.471000", "140849.471000", "140851.472000", "140853.471000", "140855.472000", "140857.471000", "140859.471000", "140901.471000", "140903.471000", "140905.470000", "140907.471000", "140909.472000", "140911.472000", "140912.972000", "140915.471000", "140917.480000", "140918.972000", "140921.471000", "140923.472000", "140925.472000", "140926.971000", "140929.471000", "140931.471000", "140932.971000", "140935.472000", "140937.490000", "140939.470000", "140940.971000", "140942.971000", "140945.472000", "140947.471000", "140949.472000", "140951.472000", "140953.471000", "140955.470000", "140957.471000", "140959.472000", "141000.971000", "141003.472000", "141005.472000", "141007.471000", "141009.472000", "141011.471000", "141013.471000", "141015.470000", "141017.472000", "141019.472000", "141021.472000", "141023.472000", "141025.471000", "141027.472000", "141029.471000", "141031.471000", "141033.472000", "141034.944000"],
      "InstanceNumber": [1, 2, 3, 4, 5, 6, 7, 8, 9, 10, 11, 12, 13, 14, 15, 16, 17, 18, 19, 20, 21, 22, 23, 24, 25, 26, 27, 28, 29, 30, 31, 32, 33, 34, 35, 36, 37, 38, 39, 40, 41, 42, 43, 44, 45, 46, 47, 48, 49, 50, 51, 52, 53, 54, 55, 56, 57, 58, 59, 60, 61, 62, 63, 64, 65, 66, 67, 68, 69, 70, 71, 72, 73, 74, 75, 76, 77, 78, 79, 80, 81, 82, 83, 84, 85, 86, 87, 88, 89, 90, 91, 92, 93, 94, 95, 96, 97, 98, 99, 100, 101, 102, 103, 104, 105, 106, 107, 108, 109, 110, 111, 112, 113, 114, 115, 116, 117, 118, 119, 120, 121, 122, 123, 124, 125, 126, 127, 128, 129, 130, 131, 132, 133, 134, 135, 136, 137, 138, 139, 140, 141, 142, 143, 144, 145, 146, 147, 148, 149, 150, 151, 152, 153, 154, 155, 156, 157, 158, 159, 160, 161, 162, 163, 164, 165, 166, 167, 168, 169, 170, 171, 172, 173, 174, 175, 176, 177, 178, 179, 180, 181, 182, 183, 184, 185, 186, 187, 188, 189, 190, 191, 192, 193, 194, 195, 196, 197, 198, 199, 200, 201, 202, 203, 204, 205, 206, 207, 208, 209, 210, 211, 212, 213, 214, 215, 216, 217, 218, 219, 220, 221, 222, 223, 224, 225, 226, 227, 228, 229, 230, 231, 232],
      "LargestImagePixelValue": [3386, 3241, 3299, 3364, 3252, 3185, 3390, 3337, 3354, 3349, 3371, 3339, 3324, 3363, 3360, 3373, 3346, 3355, 3380, 3380, 3393, 3403, 3386, 3374, 3271, 3341, 3389, 3385, 3284, 3266, 3368, 3457, 3437, 3457, 3307, 3124, 3248, 3357, 3103, 3399, 3414, 3367, 3360, 3456, 3412, 3403, 3417, 3426, 3391, 3390, 3278, 3259, 3261, 3254, 3185, 3173, 3297, 3274, 3223, 3250, 3275, 3219, 3282, 3161, 3276, 3304, 3308, 3252, 3300, 3286, 3311, 3319, 3304, 3050, 3079, 3191, 3198, 3185, 3186, 3156, 3221, 3223, 3222, 3190, 3175, 3206, 3070, 3193, 3178, 3170, 3186, 2930, 3228, 3180, 3174, 3115, 3115, 3067, 3088, 3191, 3212, 3204, 3183, 3176, 3123, 3171, 3313, 3263, 3080, 3379, 3309, 3127, 3050, 3010, 2996, 3116, 3046, 2985, 3015, 3099, 3068, 3040, 3173, 3244, 3042, 3147, 3250, 3140, 3471, 3083, 3075, 3132, 3249, 3150, 3091, 3112, 3064, 3126, 3173, 3121, 3212, 3180, 3132, 3068, 3071, 3123, 3092, 3020, 2972, 3186, 3081, 3152, 3194, 3053, 3137, 3271, 3099, 3122, 3210, 3064, 3126, 3221, 3201, 3084, 3253, 3155, 3214, 3186, 3184, 3095, 3072, 3232, 3118, 3101, 3165, 3139, 3089, 3209, 3156, 3179, 3195, 3180, 3179, 3189, 3335, 3207, 3209, 3208, 3350, 3358, 3351, 3195, 3196, 3241, 3107, 3228, 3156, 3127, 3165, 3006, 3017, 3293, 3023, 3092, 3073, 3101, 3032, 3124, 3064, 3183, 3087, 3160, 2979, 3072, 3101, 3129, 3115, 3080, 3139, 3187, 3135, 3168, 3124, 3218, 3061, 3132, 3220, 3001, 3048, 3158, 3062, 2991],
      "WindowCenter": [791.0, 788.0, 788.0, 789.0, 789.0, 788.0, 790.0, 789.0, 789.0, 790.0, 790.0, 790.0, 789.0, 789.0, 789.0, 790.0, 789.0, 790.0, 790.0, 791.0, 790.0, 790.0, 790.0, 790.0, 790.0, 791.0, 792.0, 793.0, 792.0, 791.0, 791.0, 791.0, 791.0, 792.0, 792.0, 791.0, 792.0, 793.0, 790.0, 789.0, 791.0, 791.0, 790.0, 790.0, 788.0, 788.0, 788.0, 788.0, 787.0, 782.0, 791.0, 787.0, 788.0, 789.0, 787.0, 786.0, 791.0, 789.0, 788.0, 789.0, 790.0, 790.0, 791.0, 790.0, 791.0, 791.0, 791.0, 790.0, 791.0, 790.0, 790.0, 789.0, 788.0, 777.0, 780.0, 784.0, 785.0, 784.0, 787.0, 787.0, 789.0, 789.0, 790.0, 790.0, 790.0, 790.0, 789.0, 790.0, 790.0, 788.0, 790.0, 787.0, 789.0, 790.0, 790.0, 790.0, 790.0, 791.0, 791.0, 793.0, 793.0, 792.0, 791.0, 790.0, 788.0, 788.0, 790.0, 789.0, 787.0, 791.0, 790.0, 788.0, 787.0, 788.0, 788.0, 789.0, 787.0, 787.0, 788.0, 788.0, 787.0, 787.0, 789.0, 789.0, 786.0, 787.0, 789.0, 788.0, 792.0, 789.0, 790.0, 790.0, 791.0, 790.0, 789.0, 788.0, 787.0, 787.0, 788.0, 787.0, 789.0, 789.0, 788.0, 788.0, 789.0, 789.0, 789.0, 789.0, 788.0, 790.0, 789.0, 790.0, 790.0, 786.0, 785.0, 786.0, 785.0, 789.0, 787.0, 788.0, 789.0, 790.0, 790.0, 788.0, 790.0, 789.0, 790.0, 790.0, 789.0, 788.0, 788.0, 789.0, 788.0, 788.0, 789.0, 789.0, 787.0, 782.0, 786.0, 786.0, 786.0, 789.0, 791.0, 790.0, 790.0, 787.0, 788.0, 789.0, 791.0, 791.0, 791.0, 790.0, 789.0, 790.0, 787.0, 790.0, 789.0, 788.0, 788.0, 786.0, 786.0, 788.0, 785.0, 786.0, 786.0, 787.0, 788.0, 789.0, 789.0, 793.0, 792.0, 793.0, 789.0, 791.0, 792.0, 793.0, 792.0, 791.0, 790.0, 791.0, 789.0, 789.0, 788.0, 789.0, 787.0, 789.0, 789.0, 785.0, 785.0, 787.0, 786.0, 785.0],
      "WindowWidth": [1678.0, 1670.0, 1670.0, 1674.0, 1672.0, 1671.0, 1675.0, 1673.0, 1672.0, 1674.0, 1675.0, 1674.0, 1672.0, 1672.0, 1673.0, 1674.0, 1673.0, 1676.0, 1676.0, 1677.0, 1676.0, 1675.0, 1675.0, 1676.0, 1675.0, 1677.0, 1680.0, 1682.0, 1679.0, 1676.0, 1677.0, 1677.0, 1677.0, 1680.0, 1681.0, 1678.0, 1680.0, 1682.0, 1674.0, 1673.0, 1676.0, 1676.0, 1674.0, 1674.0, 1670.0, 1668.0, 1669.0, 1668.0, 1668.0, 1656.0, 1676.0, 1667.0, 1669.0, 1672.0, 1667.0, 1665.0, 1677.0, 1672.0, 1670.0, 1673.0, 1674.0, 1675.0, 1676.0, 1674.0, 1676.0, 1677.0, 1678.0, 1675.0, 1676.0, 1675.0, 1674.0, 1672.0, 1671.0, 1644.0, 1651.0, 1659.0, 1662.0, 1661.0, 1669.0, 1668.0, 1671.0, 1672.0, 1674.0, 1676.0, 1675.0, 1675.0, 1673.0, 1675.0, 1674.0, 1671.0, 1673.0, 1667.0, 1671.0, 1674.0, 1674.0, 1673.0, 1674.0, 1676.0, 1677.0, 1682.0, 1681.0, 1679.0, 1676.0, 1672.0, 1669.0, 1670.0, 1674.0, 1671.0, 1667.0, 1675.0, 1674.0, 1668.0, 1668.0, 1670.0, 1668.0, 1670.0, 1667.0, 1666.0, 1668.0, 1668.0, 1666.0, 1667.0, 1670.0, 1672.0, 1663.0, 1666.0, 1671.0, 1669.0, 1678.0, 1671.0, 1674.0, 1674.0, 1676.0, 1674.0, 1670.0, 1669.0, 1666.0, 1666.0, 1668.0, 1667.0, 1670.0, 1670.0, 1670.0, 1669.0, 1670.0, 1671.0, 1671.0, 1670.0, 1668.0, 1672.0, 1670.0, 1672.0, 1672.0, 1663.0, 1661.0, 1666.0, 1660.0, 1670.0, 1667.0, 1669.0, 1671.0, 1672.0, 1673.0, 1668.0, 1671.0, 1671.0, 1673.0, 1673.0, 1671.0, 1668.0, 1668.0, 1671.0, 1668.0, 1668.0, 1670.0, 1670.0, 1666.0, 1654.0, 1662.0, 1662.0, 1663.0, 1670.0, 1676.0, 1672.0, 1675.0, 1666.0, 1668.0, 1672.0, 1675.0, 1676.0, 1677.0, 1672.0, 1670.0, 1673.0, 1667.0, 1673.0, 1670.0, 1668.0, 1668.0, 1665.0, 1663.0, 1668.0, 1663.0, 1665.0, 1665.0, 1667.0, 1668.0, 1671.0, 1671.0, 1680.0, 1677.0, 1680.0, 1670.0, 1675.0, 1678.0, 1680.0, 1677.0, 1674.0, 1673.0, 1675.0, 1671.0, 1671.0, 1668.0, 1670.0, 1667.0, 1670.0, 1670.0, 1661.0, 1661.0, 1665.0, 1663.0, 1661.0]
    },
    "slices": {}
  }
}