{
  "AcquisitionMatrixPE": 100,
  "AcquisitionNumber": 1,
  "AcquisitionTime": "14:20:10.382500",
  "BandwidthPerPixelPhaseEncode": 18.519,
  "BaseResolution": 100,
  "BodyPartExamined": "BRAIN",
  "ConsistencyInfo": "N4_VE11C_LATEST_20160120",
  "ConversionSoftware": "dcm2niix",
  "ConversionSoftwareVersion": "v1.0.20180622 GCC4.9.2",
  "DerivedVendorReportedEchoSpacing": 0.000539986,
  "DeviceSerialNumber": "166078",
  "DwellTime": 2.1e-06,
  "EchoTime": 0.034,
  "EchoTrainLength": 100,
  "EffectiveEchoSpacing": 0.000539986,
  "FlipAngle": 90,
  "ImageOrientationPatientDICOM": [0.999953, 0.000844496, 0.00965445, 1.33268e-08, 0.996196, -0.0871409],
  "ImageType": [
    "ORIGINAL",
    "PRIMARY",
    "M",
    "ND",
    "MOSAIC"
],
  "InPlanePhaseEncodingDirectionDICOM": "COL",
  "InstitutionAddress": "Street_StreetNo_Bei_Jing_District_CN_ZIP",
  "InstitutionName": "BeiJing_Normal_University",
  "InstitutionalDepartmentName": "Department",
  "MRAcquisitionType": "2D",
  "MagneticFieldStrength": 3,
  "Manufacturer": "Siemens",
  "ManufacturersModelName": "Prisma",
  "Modality": "MR",
  "MultibandAccelerationFactor": 3,
  "PartialFourier": 1,
  "PatientPosition": "HFS",
  "PercentPhaseFOV": 100,
  "PhaseEncodingDirection": "j-",
  "PhaseEncodingSteps": 100,
  "PhaseResolution": 1,
  "PixelBandwidth": 2380,
  "ProcedureStepDescription": "BNU_P2018_64CH_Liu.Jia",
  "ProtocolName": "bold_100x100_s3_2x2x2_232",
  "PulseSequenceDetails": "%SiemensSeq%_ep2d_bold",
  "ReceiveCoilActiveElements": "HC1-7;NC1",
  "ReceiveCoilName": "HeadNeck_64",
  "ReconMatrixPE": 100,
  "RepetitionTime": 2,
  "SAR": 0.0668335,
  "ScanOptions": "FS",
  "ScanningSequence": "EP",
  "SequenceName": "_epfid2d1_100",
  "SequenceVariant": "SK",
  "SeriesDescription": "bold_100x100_s3_2x2x2_232",
  "SeriesNumber": 5,
  "ShimSetting": [-5484, -11497, -1295, 400, -117, -315, -149, 0],
  "SliceThickness": 2,
  "SliceTiming": [1.485, 0, 0.99, 0.0825, 1.0725, 0.165, 1.155, 0.2475, 1.2375, 0.33, 1.32, 0.4125, 1.4025, 0.5775, 1.5675, 0.66, 1.65, 0.7425, 1.7325, 0.825, 1.815, 0.9075, 1.8975, 0.495, 1.485, 0, 0.99, 0.0825, 1.0725, 0.165, 1.155, 0.2475, 1.2375, 0.33, 1.32, 0.4125, 1.4025, 0.5775, 1.5675, 0.66, 1.65, 0.7425, 1.7325, 0.825, 1.815, 0.9075, 1.8975, 0.495, 1.485, 0, 0.99, 0.0825, 1.0725, 0.165, 1.155, 0.2475, 1.2375, 0.33, 1.32, 0.4125, 1.4025, 0.5775, 1.5675, 0.66, 1.65, 0.7425, 1.7325, 0.825, 1.815, 0.9075, 1.8975, 0.495],
  "SoftwareVersions": "syngo_MR_E11",
  "SpacingBetweenSlices": 2,
  "StationName": "AWP166078",
  "TaskName": "motor",
  "TotalReadoutTime": 0.0534586,
  "TxRefAmp": 250.586,
  "dcmmeta_affine": [
    [-1.999906063079834, 2.665363574294588e-08, 0.019382629543542862, 99.37073516845703],
    [-0.0016889926046133041, 1.9923919439315796, -0.1742735505104065, -87.31105041503906],
    [0.019308900460600853, 0.1742817461490631, 1.9922983646392822, -79.05585479736328],
    [0.0, 0.0, 0.0, 1.0]
],
  "dcmmeta_reorient_transform": [
    [0.0, -1.0, 0.0, 99.0],
    [1.0, 0.0, 0.0, 0.0],
    [0.0, 0.0, 1.0, 0.0],
    [0.0, 0.0, 0.0, 1.0]
],
  "dcmmeta_shape": [100, 100, 72, 232],
  "dcmmeta_slice_dim": 2,
  "dcmmeta_version": 0.6,
  "global": {
    "const": {
      "AcquisitionMatrix": [100, 0, 0, 100],
      "AngioFlag": "N",
      "BitsAllocated": 16,
      "BitsStored": 12,
      "BodyPartExamined": "BRAIN",
      "Columns": 900,
      "EchoNumbers": 1,
      "EchoTime": 34.0,
      "EchoTrainLength": 100,
      "FlipAngle": 90.0,
      "HighBit": 11,
      "ImageOrientationPatient": [0.99995303810592, 0.00084449632395, 0.00965445020197, 1.3326818e-08, 0.9961959992175, -0.0871408695334],
      "ImagePositionPatient": [-899.33318217823, -907.56815260657, 0.18717162437471],
      "ImageType": [
        "ORIGINAL",
        "PRIMARY",
        "M",
        "ND",
        "MOSAIC"
],
      "ImagedNucleus": "1H",
      "ImagingFrequency": 123.257804,
      "InPlanePhaseEncodingDirection": "COL",
      "MRAcquisitionType": "2D",
      "MagneticFieldStrength": 3.0,
      "Manufacturer": "SIEMENS",
      "ManufacturerModelName": "Prisma",
      "Modality": "MR",
      "NumberOfAverages": 1.0,
      "NumberOfPhaseEncodingSteps": 100,
      "PercentPhaseFieldOfView": 100.0,
      "PercentSampling": 100.0,
      "PerformedProcedureStepStartTime": "135940.009000",
      "PhotometricInterpretation": "MONOCHROME2",
      "PixelBandwidth": 2380.0,
      "PixelRepresentation": 0,
      "PixelSpacing": [2.0, 2.0],
      "ProtocolName": "bold_100x100_s3_2x2x2_232",
      "RepetitionTime": 2000.0,
      "Rows": 900,
      "SAR": 0.06683349429632,
      "SamplesPerPixel": 1,
      "ScanOptions": "FS",
      "ScanningSequence": "EP",
      "SequenceName": "*epfid2d1_100",
      "SequenceVariant": "SK",
      "SeriesDescription": "bold_100x100_s3_2x2x2_232",
      "SeriesNumber": 5,
      "SeriesTime": "142012.909000",
      "SliceLocation": -70.180392200044,
      "SliceThickness": 2.0,
      "SmallestImagePixelValue": 0,
      "SoftwareVersions": "syngo MR E11",
      "SpacingBetweenSlices": 1.9999999634008,
      "SpecificCharacterSet": "ISO_IR 100",
      "StudyID": "1",
      "StudyTime": "135939.955000",
      "TransmitCoilName": "Body",
      "VariableFlipAngleFlag": "N",
      "WindowCenterWidthExplanation": "Algo1",
      "dBdt": 0.0},
    "slices": {}
  },
  "time": {
    "samples": {
      "AcquisitionNumber": [1, 2, 3, 4, 5, 6, 7, 8, 9, 10, 11, 12, 13, 14, 15, 16, 17, 18, 19, 20, 21, 22, 23, 24, 25, 26, 27, 28, 29, 30, 31, 32, 33, 34, 35, 36, 37, 38, 39, 40, 41, 42, 43, 44, 45, 46, 47, 48, 49, 50, 51, 52, 53, 54, 55, 56, 57, 58, 59, 60, 61, 62, 63, 64, 65, 66, 67, 68, 69, 70, 71, 72, 73, 74, 75, 76, 77, 78, 79, 80, 81, 82, 83, 84, 85, 86, 87, 88, 89, 90, 91, 92, 93, 94, 95, 96, 97, 98, 99, 100, 101, 102, 103, 104, 105, 106, 107, 108, 109, 110, 111, 112, 113, 114, 115, 116, 117, 118, 119, 120, 121, 122, 123, 124, 125, 126, 127, 128, 129, 130, 131, 132, 133, 134, 135, 136, 137, 138, 139, 140, 141, 142, 143, 144, 145, 146, 147, 148, 149, 150, 151, 152, 153, 154, 155, 156, 157, 158, 159, 160, 161, 162, 163, 164, 165, 166, 167, 168, 169, 170, 171, 172, 173, 174, 175, 176, 177, 178, 179, 180, 181, 182, 183, 184, 185, 186, 187, 188, 189, 190, 191, 192, 193, 194, 195, 196, 197, 198, 199, 200, 201, 202, 203, 204, 205, 206, 207, 208, 209, 210, 211, 212, 213, 214, 215, 216, 217, 218, 219, 220, 221, 222, 223, 224, 225, 226, 227, 228, 229, 230, 231, 232],
      "AcquisitionTime": ["142010.382500", "142012.382500", "142014.382500", "142016.382500", "142018.382500", "142020.382500", "142022.382500", "142024.382500", "142026.382500", "142028.382500", "142030.382500", "142032.382500", "142034.382500", "142036.382500", "142038.382500", "142040.382500", "142042.382500", "142044.382500", "142046.382500", "142048.382500", "142050.382500", "142052.382500", "142054.382500", "142056.382500", "142058.382500", "142100.382500", "142102.382500", "142104.382500", "142106.382500", "142108.382500", "142110.382500", "142112.382500", "142114.382500", "142116.382500", "142118.382500", "142120.382500", "142122.382500", "142124.382500", "142126.382500", "142128.382500", "142130.382500", "142132.382500", "142134.382500", "142136.382500", "142138.382500", "142140.382500", "142142.382500", "142144.382500", "142146.382500", "142148.382500", "142150.382500", "142152.382500", "142154.382500", "142156.382500", "142158.382500", "142200.382500", "142202.382500", "142204.382500", "142206.382500", "142208.382500", "142210.382500", "142212.382500", "142214.382500", "142216.382500", "142218.382500", "142220.382500", "142222.382500", "142224.382500", "142226.382500", "142228.382500", "142230.382500", "142232.382500", "142234.382500", "142236.382500", "142238.382500", "142240.382500", "142242.382500", "142244.382500", "142246.382500", "142248.382500", "142250.382500", "142252.382500", "142254.382500", "142256.382500", "142258.382500", "142300.382500", "142302.382500", "142304.382500", "142306.382500", "142308.382500", "142310.382500", "142312.382500", "142314.382500", "142316.382500", "142318.382500", "142320.382500", "142322.382500", "142324.382500", "142326.382500", "142328.382500", "142330.382500", "142332.382500", "142334.382500", "142336.382500", "142338.382500", "142340.382500", "142342.382500", "142344.382500", "142346.382500", "142348.382500", "142350.382500", "142352.382500", "142354.382500", "142356.382500", "142358.382500", "142400.382500", "142402.382500", "142404.382500", "142406.382500", "142408.382500", "142410.382500", "142412.382500", "142414.382500", "142416.382500", "142418.382500", "142420.382500", "142422.382500", "142424.382500", "142426.382500", "142428.382500", "142430.382500", "142432.382500", "142434.382500", "142436.382500", "142438.382500", "142440.382500", "142442.382500", "142444.382500", "142446.382500", "142448.382500", "142450.382500", "142452.382500", "142454.382500", "142456.382500", "142458.382500", "142500.382500", "142502.382500", "142504.382500", "142506.382500", "142508.382500", "142510.382500", "142512.382500", "142514.382500", "142516.382500", "142518.382500", "142520.382500", "142522.382500", "142524.382500", "142526.382500", "142528.382500", "142530.382500", "142532.382500", "142534.382500", "142536.382500", "142538.382500", "142540.382500", "142542.382500", "142544.382500", "142546.382500", "142548.382500", "142550.382500", "142552.382500", "142554.382500", "142556.382500", "142558.382500", "142600.382500", "142602.382500", "142604.382500", "142606.382500", "142608.382500", "142610.382500", "142612.382500", "142614.382500", "142616.382500", "142618.382500", "142620.382500", "142622.382500", "142624.382500", "142626.382500", "142628.382500", "142630.382500", "142632.382500", "142634.382500", "142636.382500", "142638.382500", "142640.382500", "142642.382500", "142644.382500", "142646.382500", "142648.382500", "142650.382500", "142652.382500", "142654.382500", "142656.382500", "142658.382500", "142700.382500", "142702.382500", "142704.382500", "142706.382500", "142708.382500", "142710.382500", "142712.382500", "142714.382500", "142716.382500", "142718.382500", "142720.382500", "142722.382500", "142724.382500", "142726.382500", "142728.382500", "142730.382500", "142732.382500", "142734.382500", "142736.382500", "142738.382500", "142740.382500", "142742.382500", "142744.382500", "142746.382500", "142748.382500", "142750.382500", "142752.382500"],
      "ContentTime": ["142012.912000", "142014.407000", "142016.407000", "142018.408000", "142020.407000", "142022.407000", "142024.407000", "142026.407000", "142028.408000", "142030.409000", "142032.407000", "142034.407000", "142036.407000", "142038.407000", "142040.408000", "142042.407000", "142044.408000", "142046.408000", "142048.407000", "142050.407000", "142052.407000", "142054.407000", "142056.407000", "142058.407000", "142100.407000", "142102.407000", "142104.409000", "142106.407000", "142108.407000", "142110.408000", "142112.407000", "142114.407000", "142116.407000", "142118.407000", "142120.409000", "142122.408000", "142124.407000", "142126.407000", "142128.407000", "142130.407000", "142132.408000", "142134.407000", "142136.407000", "142138.408000", "142140.409000", "142142.407000", "142144.407000", "142146.408000", "142148.407000", "142150.407000", "142152.407000", "142154.407000", "142156.408000", "142158.407000", "142200.407000", "142202.407000", "142204.407000", "142206.407000", "142208.408000", "142210.407000", "142212.407000", "142214.408000", "142216.407000", "142218.408000", "142220.407000", "142222.407000", "142224.407000", "142226.407000", "142228.407000", "142230.409000", "142232.908000", "142234.408000", "142236.407000", "142238.407000", "142240.407000", "142242.407000", "142244.407000", "142246.407000", "142248.409000", "142250.408000", "142252.407000", "142254.407000", "142256.907000", "142258.407000", "142300.407000", "142302.407000", "142304.408000", "142306.408000", "142308.407000", "142310.407000", "142312.408000", "142314.407000", "142316.407000", "142318.408000", "142320.408000", "142322.408000", "142324.409000", "142326.407000", "142328.408000", "142330.407000", "142332.407000", "142334.407000", "142336.408000", "142338.407000", "142340.408000", "142342.409000", "142344.407000", "142346.407000", "142348.407000", "142350.407000", "142352.407000", "142354.407000", "142356.408000", "142358.408000", "142400.409000", "142402.407000", "142404.407000", "142406.407000", "142408.407000", "142410.408000", "142412.407000", "142414.407000", "142416.408000", "142418.407000", "142420.407000", "142422.407000", "142424.407000", "142426.407000", "142428.408000", "142430.408000", "142432.409000", "142434.408000", "142436.407000", "142438.407000", "142440.407000", "142442.407000", "142444.407000", "142446.407000", "142448.407000", "142450.408000", "142452.408000", "142454.407000", "142456.408000", "142458.407000", "142500.907000", "142502.407000", "142504.407000", "142506.407000", "142508.409000", "142510.409000", "142512.407000", "142514.407000", "142516.407000", "142518.408000", "142520.407000", "142522.407000", "142524.408000", "142526.408000", "142528.408000", "142530.408000", "142532.407000", "142534.407000", "142536.408000", "142538.407000", "142540.408000", "142542.408000", "142544.408000", "142546.407000", "142548.407000", "142550.408000", "142552.408000", "142554.407000", "142556.408000", "142558.408000", "142600.408000", "142602.408000", "142604.408000", "142606.407000", "142608.407000", "142610.407000", "142612.407000", "142614.407000", "142616.407000", "142618.408000", "142620.408000", "142622.407000", "142624.407000", "142626.412000", "142628.407000", "142630.407000", "142632.408000", "142634.408000", "142636.408000", "142638.407000", "142640.407000", "142642.408000", "142644.408000", "142646.407000", "142648.407000", "142650.407000", "142652.409000", "142654.408000", "142656.407000", "142658.407000", "142700.407000", "142702.407000", "142704.407000", "142706.407000", "142708.407000", "142710.408000", "142712.408000", "142714.407000", "142716.407000", "142718.407000", "142720.407000", "142722.408000", "142724.408000", "142726.407000", "142728.408000", "142730.409000", "142732.407000", "142734.407000", "142736.408000", "142738.408000", "142740.407000", "142742.407000", "142744.408000", "142746.408000", "142748.407000", "142750.408000", "142752.407000", "142754.222000"],
      "InstanceCreationTime": ["142012.912000", "142014.407000", "142016.407000", "142018.408000", "142020.407000", "142022.407000", "142024.407000", "142026.407000", "142028.408000", "142030.409000", "142032.407000", "142034.407000", "142036.407000", "142038.407000", "142040.408000", "142042.407000", "142044.408000", "142046.408000", "142048.407000", "142050.407000", "142052.407000", "142054.407000", "142056.407000", "142058.407000", "142100.407000", "142102.407000", "142104.409000", "142106.407000", "142108.407000", "142110.408000", "142112.407000", "142114.407000", "142116.407000", "142118.407000", "142120.409000", "142122.408000", "142124.407000", "142126.407000", "142128.407000", "142130.407000", "142132.408000", "142134.407000", "142136.407000", "142138.408000", "142140.409000", "142142.407000", "142144.407000", "142146.408000", "142148.407000", "142150.407000", "142152.407000", "142154.407000", "142156.408000", "142158.407000", "142200.407000", "142202.407000", "142204.407000", "142206.407000", "142208.408000", "142210.407000", "142212.407000", "142214.408000", "142216.407000", "142218.408000", "142220.407000", "142222.407000", "142224.407000", "142226.407000", "142228.407000", "142230.409000", "142232.908000", "142234.408000", "142236.407000", "142238.407000", "142240.407000", "142242.407000", "142244.407000", "142246.407000", "142248.409000", "142250.408000", "142252.407000", "142254.407000", "142256.907000", "142258.407000", "142300.407000", "142302.407000", "142304.408000", "142306.408000", "142308.407000", "142310.407000", "142312.408000", "142314.407000", "142316.407000", "142318.408000", "142320.408000", "142322.408000", "142324.409000", "142326.407000", "142328.408000", "142330.407000", "142332.407000", "142334.407000", "142336.408000", "142338.407000", "142340.408000", "142342.409000", "142344.407000", "142346.407000", "142348.407000", "142350.407000", "142352.407000", "142354.407000", "142356.408000", "142358.408000", "142400.409000", "142402.407000", "142404.407000", "142406.407000", "142408.407000", "142410.408000", "142412.407000", "142414.407000", "142416.408000", "142418.407000", "142420.407000", "142422.407000", "142424.407000", "142426.407000", "142428.408000", "142430.408000", "142432.409000", "142434.408000", "142436.407000", "142438.407000", "142440.407000", "142442.407000", "142444.407000", "142446.407000", "142448.407000", "142450.408000", "142452.408000", "142454.407000", "142456.408000", "142458.407000", "142500.907000", "142502.407000", "142504.407000", "142506.407000", "142508.409000", "142510.409000", "142512.407000", "142514.407000", "142516.407000", "142518.408000", "142520.407000", "142522.407000", "142524.408000", "142526.408000", "142528.408000", "142530.408000", "142532.407000", "142534.407000", "142536.408000", "142538.407000", "142540.408000", "142542.408000", "142544.408000", "142546.407000", "142548.407000", "142550.408000", "142552.408000", "142554.407000", "142556.408000", "142558.408000", "142600.408000", "142602.408000", "142604.408000", "142606.407000", "142608.407000", "142610.407000", "142612.407000", "142614.407000", "142616.407000", "142618.408000", "142620.408000", "142622.407000", "142624.407000", "142626.412000", "142628.407000", "142630.407000", "142632.408000", "142634.408000", "142636.408000", "142638.407000", "142640.407000", "142642.408000", "142644.408000", "142646.407000", "142648.407000", "142650.407000", "142652.409000", "142654.408000", "142656.407000", "142658.407000", "142700.407000", "142702.407000", "142704.407000", "142706.407000", "142708.407000", "142710.408000", "142712.408000", "142714.407000", "142716.407000", "142718.407000", "142720.407000", "142722.408000", "142724.408000", "142726.407000", "142728.408000", "142730.409000", "142732.407000", "142734.407000", "142736.408000", "142738.408000", "142740.407000", "142742.407000", "142744.408000", "142746.408000", "142748.407000", "142750.408000", "142752.407000", "142754.222000"],
      "InstanceNumber": [1, 2, 3, 4, 5, 6, 7, 8, 9, 10, 11, 12, 13, 14, 15, 16, 17, 18, 19, 20, 21, 22, 23, 24, 25, 26, 27, 28, 29, 30, 31, 32, 33, 34, 35, 36, 37, 38, 39, 40, 41, 42, 43, 44, 45, 46, 47, 48, 49, 50, 51, 52, 53, 54, 55, 56, 57, 58, 59, 60, 61, 62, 63, 64, 65, 66, 67, 68, 69, 70, 71, 72, 73, 74, 75, 76, 77, 78, 79, 80, 81, 82, 83, 84, 85, 86, 87, 88, 89, 90, 91, 92, 93, 94, 95, 96, 97, 98, 99, 100, 101, 102, 103, 104, 105, 106, 107, 108, 109, 110, 111, 112, 113, 114, 115, 116, 117, 118, 119, 120, 121, 122, 123, 124, 125, 126, 127, 128, 129, 130, 131, 132, 133, 134, 135, 136, 137, 138, 139, 140, 141, 142, 143, 144, 145, 146, 147, 148, 149, 150, 151, 152, 153, 154, 155, 156, 157, 158, 159, 160, 161, 162, 163, 164, 165, 166, 167, 168, 169, 170, 171, 172, 173, 174, 175, 176, 177, 178, 179, 180, 181, 182, 183, 184, 185, 186, 187, 188, 189, 190, 191, 192, 193, 194, 195, 196, 197, 198, 199, 200, 201, 202, 203, 204, 205, 206, 207, 208, 209, 210, 211, 212, 213, 214, 215, 216, 217, 218, 219, 220, 221, 222, 223, 224, 225, 226, 227, 228, 229, 230, 231, 232],
      "LargestImagePixelValue": [3367, 3475, 3292, 3281, 3355, 3287, 3329, 3353, 3301, 3230, 3192, 3194, 3155, 3267, 3159, 3088, 3337, 3222, 3256, 3261, 3274, 3329, 3262, 3318, 3303, 3217, 3174, 3285, 3498, 3479, 3551, 3479, 3271, 3310, 3356, 3242, 3348, 3316, 3286, 3383, 3387, 3324, 3349, 3308, 3308, 3373, 3504, 3393, 3423, 3490, 3277, 3247, 3451, 3205, 3291, 3352, 3254, 3172, 3446, 3129, 3524, 3508, 3442, 3519, 3459, 3322, 3527, 3305, 3359, 3473, 3272, 3293, 3442, 3471, 3549, 3343, 3297, 3240, 3291, 3297, 3424, 3305, 3186, 3265, 3237, 3252, 3267, 3324, 3237, 3220, 3419, 3319, 3239, 3230, 3400, 3317, 3248, 3269, 3294, 3310, 3318, 3303, 3297, 3357, 3146, 3384, 3221, 3774, 3298, 3184, 3227, 3211, 3246, 3293, 3324, 3181, 3365, 3343, 3230, 3282, 3283, 3484, 3213, 3428, 3175, 3423, 3379, 3194, 3437, 3317, 3218, 3378, 3275, 3346, 3333, 3341, 3357, 3499, 3557, 3312, 3595, 3293, 3380, 3627, 3383, 3471, 3516, 3437, 3173, 3141, 3449, 3484, 3243, 3505, 3361, 3478, 3448, 3415, 3505, 3460, 3389, 3364, 3495, 3524, 3504, 3341, 3606, 3201, 3494, 3586, 3216, 3333, 3438, 3294, 3353, 3111, 3102, 3163, 3214, 3129, 3295, 3144, 3273, 3420, 3380, 3247, 3374, 3435, 3274, 3315, 3178, 3104, 3431, 3378, 3431, 3196, 3433, 3425, 3486, 3345, 3212, 3263, 3189, 3362, 3451, 3587, 3427, 3266, 3127, 3454, 3210, 3311, 3194, 3197, 3210, 3169, 3233, 3252, 3508, 3816, 3234, 3218, 3361, 3242, 3253, 3304, 3428, 3336, 3436, 3480, 3475, 3268],
      "WindowCenter": [792.0, 792.0, 790.0, 790.0, 790.0, 789.0, 789.0, 790.0, 789.0, 790.0, 790.0, 790.0, 789.0, 790.0, 789.0, 789.0, 792.0, 793.0, 793.0, 793.0, 792.0, 792.0, 791.0, 790.0, 790.0, 790.0, 789.0, 789.0, 791.0, 791.0, 792.0, 791.0, 789.0, 790.0, 790.0, 789.0, 789.0, 790.0, 790.0, 791.0, 792.0, 791.0, 792.0, 791.0, 791.0, 791.0, 792.0, 791.0, 792.0, 793.0, 791.0, 790.0, 792.0, 790.0, 792.0, 792.0, 791.0, 791.0, 792.0, 791.0, 794.0, 793.0, 792.0, 793.0, 793.0, 792.0, 794.0, 792.0, 792.0, 794.0, 793.0, 792.0, 793.0, 794.0, 794.0, 792.0, 792.0, 791.0, 793.0, 792.0, 794.0, 785.0, 790.0, 791.0, 792.0, 791.0, 792.0, 791.0, 791.0, 792.0, 794.0, 792.0, 792.0, 791.0, 794.0, 795.0, 793.0, 795.0, 796.0, 795.0, 794.0, 793.0, 793.0, 793.0, 791.0, 792.0, 790.0, 795.0, 791.0, 790.0, 791.0, 791.0, 791.0, 792.0, 792.0, 791.0, 794.0, 794.0, 793.0, 793.0, 793.0, 794.0, 791.0, 793.0, 791.0, 793.0, 791.0, 790.0, 792.0, 791.0, 792.0, 795.0, 794.0, 794.0, 794.0, 793.0, 792.0, 793.0, 794.0, 792.0, 794.0, 791.0, 792.0, 794.0, 793.0, 793.0, 795.0, 795.0, 793.0, 793.0, 794.0, 795.0, 791.0, 794.0, 792.0, 794.0, 794.0, 793.0, 795.0, 795.0, 793.0, 793.0, 794.0, 794.0, 794.0, 793.0, 795.0, 791.0, 794.0, 793.0, 791.0, 793.0, 794.0, 792.0, 792.0, 790.0, 790.0, 792.0, 793.0, 792.0, 793.0, 792.0, 792.0, 794.0, 793.0, 792.0, 791.0, 792.0, 791.0, 791.0, 789.0, 789.0, 791.0, 792.0, 793.0, 791.0, 793.0, 794.0, 795.0, 794.0, 792.0, 793.0, 793.0, 794.0, 794.0, 795.0, 794.0, 792.0, 791.0, 794.0, 792.0, 792.0, 791.0, 791.0, 791.0, 791.0, 792.0, 792.0, 797.0, 799.0, 794.0, 794.0, 795.0, 793.0, 794.0, 795.0, 797.0, 796.0, 797.0, 797.0, 797.0, 794.0],
      "WindowWidth": [1681.0, 1680.0, 1674.0, 1675.0, 1676.0, 1672.0, 1673.0, 1674.0, 1673.0, 1675.0, 1674.0, 1674.0, 1671.0, 1674.0, 1672.0, 1672.0, 1679.0, 1681.0, 1683.0, 1682.0, 1680.0, 1679.0, 1676.0, 1676.0, 1673.0, 1675.0, 1672.0, 1673.0, 1678.0, 1677.0, 1678.0, 1677.0, 1673.0, 1675.0, 1675.0, 1671.0, 1673.0, 1673.0, 1674.0, 1677.0, 1680.0, 1678.0, 1678.0, 1677.0, 1675.0, 1676.0, 1680.0, 1676.0, 1678.0, 1681.0, 1677.0, 1675.0, 1680.0, 1676.0, 1679.0, 1680.0, 1677.0, 1677.0, 1680.0, 1676.0, 1683.0, 1682.0, 1680.0, 1682.0, 1682.0, 1681.0, 1686.0, 1680.0, 1680.0, 1685.0, 1682.0, 1679.0, 1683.0, 1685.0, 1685.0, 1679.0, 1678.0, 1678.0, 1681.0, 1680.0, 1684.0, 1664.0, 1675.0, 1677.0, 1681.0, 1678.0, 1679.0, 1677.0, 1676.0, 1678.0, 1684.0, 1680.0, 1679.0, 1678.0, 1683.0, 1685.0, 1682.0, 1688.0, 1689.0, 1687.0, 1684.0, 1683.0, 1681.0, 1682.0, 1676.0, 1678.0, 1673.0, 1685.0, 1675.0, 1674.0, 1675.0, 1676.0, 1677.0, 1678.0, 1679.0, 1677.0, 1684.0, 1684.0, 1682.0, 1683.0, 1681.0, 1683.0, 1676.0, 1681.0, 1676.0, 1681.0, 1676.0, 1674.0, 1678.0, 1676.0, 1678.0, 1686.0, 1684.0, 1684.0, 1682.0, 1680.0, 1679.0, 1682.0, 1682.0, 1677.0, 1683.0, 1676.0, 1678.0, 1684.0, 1681.0, 1682.0, 1686.0, 1685.0, 1681.0, 1680.0, 1683.0, 1685.0, 1677.0, 1682.0, 1679.0, 1683.0, 1682.0, 1682.0, 1686.0, 1684.0, 1682.0, 1680.0, 1684.0, 1683.0, 1683.0, 1680.0, 1685.0, 1676.0, 1684.0, 1681.0, 1676.0, 1682.0, 1683.0, 1679.0, 1678.0, 1673.0, 1673.0, 1678.0, 1682.0, 1679.0, 1682.0, 1678.0, 1678.0, 1683.0, 1683.0, 1678.0, 1676.0, 1679.0, 1676.0, 1677.0, 1672.0, 1671.0, 1676.0, 1679.0, 1682.0, 1675.0, 1681.0, 1683.0, 1687.0, 1683.0, 1680.0, 1683.0, 1681.0, 1683.0, 1685.0, 1686.0, 1683.0, 1679.0, 1676.0, 1683.0, 1677.0, 1680.0, 1676.0, 1675.0, 1676.0, 1676.0, 1679.0, 1678.0, 1690.0, 1694.0, 1683.0, 1681.0, 1684.0, 1680.0, 1683.0, 1685.0, 1688.0, 1687.0, 1689.0, 1690.0, 1690.0, 1683.0]
    },
    "slices": {}
  }
}