{
  "AcquisitionMatrixPE": 100,
  "AcquisitionNumber": 1,
  "AcquisitionTime": "10:36:55.192500",
  "BandwidthPerPixelPhaseEncode": 18.519,
  "BaseResolution": 100,
  "BodyPartExamined": "BRAIN",
  "ConsistencyInfo": "N4_VE11C_LATEST_20160120",
  "ConversionSoftware": "dcm2niix",
  "ConversionSoftwareVersion": "v1.0.20180622 GCC4.9.2",
  "DerivedVendorReportedEchoSpacing": 0.000539986,
  "DeviceSerialNumber": "166078",
  "DwellTime": 2.1e-06,
  "EchoTime": 0.034,
  "EchoTrainLength": 100,
  "EffectiveEchoSpacing": 0.000539986,
  "FlipAngle": 90,
  "ImageOrientationPatientDICOM": [0.999979, -0.00107239, -0.00641372, 1.23984e-08, 0.986309, -0.164911],
  "ImageType": [
    "ORIGINAL",
    "PRIMARY",
    "M",
    "ND",
    "MOSAIC"
],
  "InPlanePhaseEncodingDirectionDICOM": "COL",
  "InstitutionAddress": "Street_StreetNo_Bei_Jing_District_CN_ZIP",
  "InstitutionName": "BeiJing_Normal_University",
  "InstitutionalDepartmentName": "Department",
  "MRAcquisitionType": "2D",
  "MagneticFieldStrength": 3,
  "Manufacturer": "Siemens",
  "ManufacturersModelName": "Prisma",
  "Modality": "MR",
  "MultibandAccelerationFactor": 3,
  "PartialFourier": 1,
  "PatientPosition": "HFS",
  "PercentPhaseFOV": 100,
  "PhaseEncodingDirection": "j-",
  "PhaseEncodingSteps": 100,
  "PhaseResolution": 1,
  "PixelBandwidth": 2380,
  "ProcedureStepDescription": "BNU_P2018_64CH_Liu.Jia",
  "ProtocolName": "bold_100x100_s3_2x2x2_232",
  "PulseSequenceDetails": "%SiemensSeq%_ep2d_bold",
  "ReceiveCoilActiveElements": "HC1-7;NC1",
  "ReceiveCoilName": "HeadNeck_64",
  "ReconMatrixPE": 100,
  "RepetitionTime": 2,
  "SAR": 0.0651932,
  "ScanOptions": "FS",
  "ScanningSequence": "EP",
  "SequenceName": "_epfid2d1_100",
  "SequenceVariant": "SK",
  "SeriesDescription": "bold_100x100_s3_2x2x2_232",
  "SeriesNumber": 4,
  "ShimSetting": [-5469, -11488, -1267, 314, -46, -424, -214, 30],
  "SliceThickness": 2,
  "SliceTiming": [1.485, 0, 0.99, 0.0825, 1.0725, 0.165, 1.155, 0.2475, 1.2375, 0.33, 1.32, 0.4125, 1.4025, 0.5775, 1.5675, 0.66, 1.65, 0.7425, 1.7325, 0.825, 1.815, 0.9075, 1.8975, 0.495, 1.485, 0, 0.99, 0.0825, 1.0725, 0.165, 1.155, 0.2475, 1.2375, 0.33, 1.32, 0.4125, 1.4025, 0.5775, 1.5675, 0.66, 1.65, 0.7425, 1.7325, 0.825, 1.815, 0.9075, 1.8975, 0.495, 1.485, 0, 0.99, 0.0825, 1.0725, 0.165, 1.155, 0.2475, 1.2375, 0.33, 1.32, 0.4125, 1.4025, 0.5775, 1.5675, 0.66, 1.65, 0.7425, 1.7325, 0.825, 1.815, 0.9075, 1.8975, 0.495],
  "SoftwareVersions": "syngo_MR_E11",
  "SpacingBetweenSlices": 2,
  "StationName": "AWP166078",
  "TaskName": "motor",
  "TotalReadoutTime": 0.0534586,
  "TxRefAmp": 206.696,
  "dcmmeta_affine": [
    [-1.9999576807022095, 2.4796767306156653e-08, -0.013005504384636879, 100.3551025390625],
    [0.0021447711624205112, 1.9726170301437378, -0.32981443405151367, -83.07438659667969],
    [-0.012827434577047825, 0.3298214077949524, 1.972575306892395, -68.90153503417969],
    [0.0, 0.0, 0.0, 1.0]
],
  "dcmmeta_reorient_transform": [
    [0.0, -1.0, 0.0, 99.0],
    [1.0, 0.0, 0.0, 0.0],
    [0.0, 0.0, 1.0, 0.0],
    [0.0, 0.0, 0.0, 1.0]
],
  "dcmmeta_shape": [100, 100, 72, 232],
  "dcmmeta_slice_dim": 2,
  "dcmmeta_version": 0.6,
  "global": {
    "const": {
      "AcquisitionMatrix": [100, 0, 0, 100],
      "AngioFlag": "N",
      "BitsAllocated": 16,
      "BitsStored": 12,
      "BodyPartExamined": "BRAIN",
      "Columns": 900,
      "EchoNumbers": 1,
      "EchoTime": 34.0,
      "EchoTrainLength": 100,
      "FlipAngle": 90.0,
      "HighBit": 11,
      "ImageOrientationPatient": [0.99997885688495, -0.0010723856066, -0.0064137175004, 1.2398384e-08, 0.98630850194284, -0.164910700063],
      "ImagePositionPatient": [-900.3381976701, -900.4035895644, 100.81031534569],
      "ImageType": [
        "ORIGINAL",
        "PRIMARY",
        "M",
        "ND",
        "MOSAIC"
],
      "ImagedNucleus": "1H",
      "ImagingFrequency": 123.257814,
      "InPlanePhaseEncodingDirection": "COL",
      "LargestImagePixelValue": 4095,
      "MRAcquisitionType": "2D",
      "MagneticFieldStrength": 3.0,
      "Manufacturer": "SIEMENS",
      "ManufacturerModelName": "Prisma",
      "Modality": "MR",
      "NumberOfAverages": 1.0,
      "NumberOfPhaseEncodingSteps": 100,
      "PercentPhaseFieldOfView": 100.0,
      "PercentSampling": 100.0,
      "PerformedProcedureStepStartTime": "101232.260000",
      "PhotometricInterpretation": "MONOCHROME2",
      "PixelBandwidth": 2380.0,
      "PixelRepresentation": 0,
      "PixelSpacing": [2.0, 2.0],
      "ProtocolName": "bold_100x100_s3_2x2x2_232",
      "RepetitionTime": 2000.0,
      "Rows": 900,
      "SAR": 0.0651931953326,
      "SamplesPerPixel": 1,
      "ScanOptions": "FS",
      "ScanningSequence": "EP",
      "SequenceName": "*epfid2d1_100",
      "SequenceVariant": "SK",
      "SeriesDescription": "bold_100x100_s3_2x2x2_232",
      "SeriesNumber": 4,
      "SeriesTime": "103657.681000",
      "SliceLocation": -54.909753893639,
      "SliceThickness": 2.0,
      "SmallestImagePixelValue": 0,
      "SoftwareVersions": "syngo MR E11",
      "SpacingBetweenSlices": 2.0000000361413,
      "SpecificCharacterSet": "ISO_IR 100",
      "StudyID": "1",
      "StudyTime": "101232.158000",
      "TransmitCoilName": "Body",
      "VariableFlipAngleFlag": "N",
      "WindowCenterWidthExplanation": "Algo1",
      "dBdt": 0.0},
    "slices": {}
  },
  "time": {
    "samples": {
      "AcquisitionNumber": [1, 2, 3, 4, 5, 6, 7, 8, 9, 10, 11, 12, 13, 14, 15, 16, 17, 18, 19, 20, 21, 22, 23, 24, 25, 26, 27, 28, 29, 30, 31, 32, 33, 34, 35, 36, 37, 38, 39, 40, 41, 42, 43, 44, 45, 46, 47, 48, 49, 50, 51, 52, 53, 54, 55, 56, 57, 58, 59, 60, 61, 62, 63, 64, 65, 66, 67, 68, 69, 70, 71, 72, 73, 74, 75, 76, 77, 78, 79, 80, 81, 82, 83, 84, 85, 86, 87, 88, 89, 90, 91, 92, 93, 94, 95, 96, 97, 98, 99, 100, 101, 102, 103, 104, 105, 106, 107, 108, 109, 110, 111, 112, 113, 114, 115, 116, 117, 118, 119, 120, 121, 122, 123, 124, 125, 126, 127, 128, 129, 130, 131, 132, 133, 134, 135, 136, 137, 138, 139, 140, 141, 142, 143, 144, 145, 146, 147, 148, 149, 150, 151, 152, 153, 154, 155, 156, 157, 158, 159, 160, 161, 162, 163, 164, 165, 166, 167, 168, 169, 170, 171, 172, 173, 174, 175, 176, 177, 178, 179, 180, 181, 182, 183, 184, 185, 186, 187, 188, 189, 190, 191, 192, 193, 194, 195, 196, 197, 198, 199, 200, 201, 202, 203, 204, 205, 206, 207, 208, 209, 210, 211, 212, 213, 214, 215, 216, 217, 218, 219, 220, 221, 222, 223, 224, 225, 226, 227, 228, 229, 230, 231, 232],
      "AcquisitionTime": ["103655.192500", "103657.192500", "103659.192500", "103701.192500", "103703.192500", "103705.192500", "103707.192500", "103709.192500", "103711.192500", "103713.192500", "103715.192500", "103717.192500", "103719.192500", "103721.192500", "103723.192500", "103725.192500", "103727.192500", "103729.192500", "103731.192500", "103733.192500", "103735.192500", "103737.192500", "103739.192500", "103741.192500", "103743.192500", "103745.192500", "103747.192500", "103749.192500", "103751.192500", "103753.192500", "103755.192500", "103757.192500", "103759.192500", "103801.192500", "103803.192500", "103805.192500", "103807.192500", "103809.192500", "103811.192500", "103813.192500", "103815.192500", "103817.192500", "103819.192500", "103821.192500", "103823.192500", "103825.192500", "103827.192500", "103829.192500", "103831.192500", "103833.192500", "103835.192500", "103837.192500", "103839.192500", "103841.192500", "103843.192500", "103845.192500", "103847.192500", "103849.192500", "103851.192500", "103853.192500", "103855.192500", "103857.192500", "103859.192500", "103901.192500", "103903.192500", "103905.192500", "103907.192500", "103909.192500", "103911.192500", "103913.192500", "103915.192500", "103917.192500", "103919.192500", "103921.192500", "103923.192500", "103925.192500", "103927.192500", "103929.192500", "103931.192500", "103933.192500", "103935.192500", "103937.192500", "103939.192500", "103941.192500", "103943.192500", "103945.192500", "103947.192500", "103949.192500", "103951.192500", "103953.192500", "103955.192500", "103957.192500", "103959.192500", "104001.192500", "104003.192500", "104005.192500", "104007.192500", "104009.192500", "104011.192500", "104013.192500", "104015.192500", "104017.192500", "104019.192500", "104021.192500", "104023.192500", "104025.192500", "104027.192500", "104029.192500", "104031.192500", "104033.192500", "104035.192500", "104037.192500", "104039.192500", "104041.192500", "104043.192500", "104045.192500", "104047.192500", "104049.192500", "104051.192500", "104053.192500", "104055.192500", "104057.192500", "104059.192500", "104101.192500", "104103.192500", "104105.192500", "104107.192500", "104109.192500", "104111.192500", "104113.192500", "104115.192500", "104117.192500", "104119.192500", "104121.192500", "104123.192500", "104125.192500", "104127.192500", "104129.192500", "104131.192500", "104133.192500", "104135.192500", "104137.192500", "104139.192500", "104141.192500", "104143.192500", "104145.192500", "104147.192500", "104149.192500", "104151.192500", "104153.192500", "104155.192500", "104157.192500", "104159.192500", "104201.192500", "104203.192500", "104205.192500", "104207.192500", "104209.192500", "104211.192500", "104213.192500", "104215.192500", "104217.192500", "104219.192500", "104221.192500", "104223.192500", "104225.192500", "104227.192500", "104229.192500", "104231.192500", "104233.192500", "104235.192500", "104237.192500", "104239.192500", "104241.192500", "104243.192500", "104245.192500", "104247.192500", "104249.192500", "104251.192500", "104253.192500", "104255.192500", "104257.192500", "104259.192500", "104301.192500", "104303.192500", "104305.192500", "104307.192500", "104309.192500", "104311.192500", "104313.192500", "104315.192500", "104317.192500", "104319.192500", "104321.192500", "104323.192500", "104325.192500", "104327.192500", "104329.192500", "104331.192500", "104333.192500", "104335.192500", "104337.192500", "104339.192500", "104341.192500", "104343.192500", "104345.192500", "104347.192500", "104349.192500", "104351.192500", "104353.192500", "104355.192500", "104357.192500", "104359.192500", "104401.192500", "104403.192500", "104405.192500", "104407.192500", "104409.192500", "104411.192500", "104413.192500", "104415.192500", "104417.192500", "104419.192500", "104421.192500", "104423.192500", "104425.192500", "104427.192500", "104429.192500", "104431.192500", "104433.192500", "104435.192500", "104437.192500"],
      "ContentTime": ["103657.684000", "103659.180000", "103701.181000", "103703.180000", "103705.179000", "103707.179000", "103709.179000", "103711.179000", "103713.179000", "103715.180000", "103717.180000", "103719.180000", "103721.180000", "103723.179000", "103725.179000", "103727.180000", "103729.179000", "103731.180000", "103733.180000", "103735.180000", "103737.180000", "103739.179000", "103741.180000", "103743.179000", "103745.179000", "103747.180000", "103749.179000", "103751.180000", "103753.180000", "103755.181000", "103757.179000", "103759.179000", "103801.179000", "103803.179000", "103805.180000", "103807.179000", "103809.181000", "103811.180000", "103813.181000", "103815.180000", "103817.179000", "103819.179000", "103821.179000", "103823.180000", "103825.180000", "103827.180000", "103829.180000", "103831.181000", "103833.179000", "103835.180000", "103837.179000", "103839.179000", "103841.179000", "103843.180000", "103845.180000", "103847.181000", "103849.179000", "103851.179000", "103853.179000", "103855.179000", "103857.179000", "103859.180000", "103901.180000", "103903.180000", "103905.180000", "103907.180000", "103909.179000", "103911.179000", "103913.179000", "103915.180000", "103917.179000", "103919.180000", "103921.180000", "103923.180000", "103925.179000", "103927.179000", "103929.179000", "103931.179000", "103933.179000", "103935.180000", "103937.180000", "103939.180000", "103941.181000", "103943.180000", "103945.179000", "103947.179000", "103949.179000", "103951.180000", "103953.181000", "103955.180000", "103957.181000", "103959.180000", "104001.179000", "104003.179000", "104005.179000", "104007.180000", "104009.179000", "104011.181000", "104013.180000", "104015.181000", "104017.179000", "104019.179000", "104021.179000", "104023.179000", "104025.180000", "104027.179000", "104029.180000", "104031.181000", "104033.180000", "104035.180000", "104037.179000", "104039.180000", "104041.180000", "104043.180000", "104045.180000", "104047.180000", "104049.180000", "104051.181000", "104053.179000", "104055.179000", "104057.180000", "104059.179000", "104101.179000", "104103.180000", "104105.180000", "104107.180000", "104109.179000", "104111.179000", "104113.179000", "104115.179000", "104117.179000", "104119.180000", "104121.181000", "104123.180000", "104125.180000", "104127.179000", "104129.180000", "104131.179000", "104133.180000", "104135.180000", "104137.179000", "104139.180000", "104141.180000", "104143.180000", "104145.179000", "104147.179000", "104149.180000", "104151.179000", "104153.179000", "104155.181000", "104157.180000", "104159.180000", "104201.180000", "104203.179000", "104205.179000", "104207.179000", "104209.179000", "104211.180000", "104213.181000", "104215.181000", "104217.181000", "104219.179000", "104221.180000", "104223.179000", "104225.179000", "104227.187000", "104229.179000", "104231.180000", "104233.180000", "104235.181000", "104237.180000", "104239.179000", "104241.180000", "104243.179000", "104245.179000", "104247.181000", "104249.180000", "104251.180000", "104253.180000", "104255.199000", "104257.179000", "104259.179000", "104301.179000", "104303.179000", "104305.181000", "104307.181000", "104309.181000", "104311.180000", "104313.179000", "104315.179000", "104317.180000", "104319.180000", "104321.180000", "104323.180000", "104325.180000", "104327.180000", "104329.180000", "104331.180000", "104333.180000", "104335.179000", "104337.180000", "104339.179000", "104341.181000", "104343.181000", "104345.181000", "104347.179000", "104349.179000", "104351.179000", "104353.179000", "104355.179000", "104357.180000", "104359.181000", "104401.180000", "104403.181000", "104405.179000", "104407.180000", "104409.179000", "104411.180000", "104413.179000", "104415.181000", "104417.180000", "104419.180000", "104421.180000", "104423.179000", "104425.179000", "104427.179000", "104429.179000", "104431.179000", "104433.180000", "104435.180000", "104437.180000", "104438.862000"],
      "InstanceCreationTime": ["103657.684000", "103659.180000", "103701.181000", "103703.180000", "103705.179000", "103707.179000", "103709.179000", "103711.179000", "103713.179000", "103715.180000", "103717.180000", "103719.180000", "103721.180000", "103723.179000", "103725.179000", "103727.180000", "103729.179000", "103731.180000", "103733.180000", "103735.180000", "103737.180000", "103739.179000", "103741.180000", "103743.179000", "103745.179000", "103747.180000", "103749.179000", "103751.180000", "103753.180000", "103755.181000", "103757.179000", "103759.179000", "103801.179000", "103803.179000", "103805.180000", "103807.179000", "103809.181000", "103811.180000", "103813.181000", "103815.180000", "103817.179000", "103819.179000", "103821.179000", "103823.180000", "103825.180000", "103827.180000", "103829.180000", "103831.181000", "103833.179000", "103835.180000", "103837.179000", "103839.179000", "103841.179000", "103843.180000", "103845.180000", "103847.181000", "103849.179000", "103851.179000", "103853.179000", "103855.179000", "103857.179000", "103859.180000", "103901.180000", "103903.180000", "103905.180000", "103907.180000", "103909.179000", "103911.179000", "103913.179000", "103915.180000", "103917.179000", "103919.180000", "103921.180000", "103923.180000", "103925.179000", "103927.179000", "103929.179000", "103931.179000", "103933.179000", "103935.180000", "103937.180000", "103939.180000", "103941.181000", "103943.180000", "103945.179000", "103947.179000", "103949.179000", "103951.180000", "103953.181000", "103955.180000", "103957.181000", "103959.180000", "104001.179000", "104003.179000", "104005.179000", "104007.180000", "104009.179000", "104011.181000", "104013.180000", "104015.181000", "104017.179000", "104019.179000", "104021.179000", "104023.179000", "104025.180000", "104027.179000", "104029.180000", "104031.181000", "104033.180000", "104035.180000", "104037.179000", "104039.180000", "104041.180000", "104043.180000", "104045.180000", "104047.180000", "104049.180000", "104051.181000", "104053.179000", "104055.179000", "104057.180000", "104059.179000", "104101.179000", "104103.180000", "104105.180000", "104107.180000", "104109.179000", "104111.179000", "104113.179000", "104115.179000", "104117.179000", "104119.180000", "104121.181000", "104123.180000", "104125.180000", "104127.179000", "104129.180000", "104131.179000", "104133.180000", "104135.180000", "104137.179000", "104139.180000", "104141.180000", "104143.180000", "104145.179000", "104147.179000", "104149.180000", "104151.179000", "104153.179000", "104155.181000", "104157.180000", "104159.180000", "104201.180000", "104203.179000", "104205.179000", "104207.179000", "104209.179000", "104211.180000", "104213.181000", "104215.181000", "104217.181000", "104219.179000", "104221.180000", "104223.179000", "104225.179000", "104227.187000", "104229.179000", "104231.180000", "104233.180000", "104235.181000", "104237.180000", "104239.179000", "104241.180000", "104243.179000", "104245.179000", "104247.181000", "104249.180000", "104251.180000", "104253.180000", "104255.199000", "104257.179000", "104259.179000", "104301.179000", "104303.179000", "104305.181000", "104307.181000", "104309.181000", "104311.180000", "104313.179000", "104315.179000", "104317.180000", "104319.180000", "104321.180000", "104323.180000", "104325.180000", "104327.180000", "104329.180000", "104331.180000", "104333.180000", "104335.179000", "104337.180000", "104339.179000", "104341.181000", "104343.181000", "104345.181000", "104347.179000", "104349.179000", "104351.179000", "104353.179000", "104355.179000", "104357.180000", "104359.181000", "104401.180000", "104403.181000", "104405.179000", "104407.180000", "104409.179000", "104411.180000", "104413.179000", "104415.181000", "104417.180000", "104419.180000", "104421.180000", "104423.179000", "104425.179000", "104427.179000", "104429.179000", "104431.179000", "104433.180000", "104435.180000", "104437.180000", "104438.862000"],
      "InstanceNumber": [1, 2, 3, 4, 5, 6, 7, 8, 9, 10, 11, 12, 13, 14, 15, 16, 17, 18, 19, 20, 21, 22, 23, 24, 25, 26, 27, 28, 29, 30, 31, 32, 33, 34, 35, 36, 37, 38, 39, 40, 41, 42, 43, 44, 45, 46, 47, 48, 49, 50, 51, 52, 53, 54, 55, 56, 57, 58, 59, 60, 61, 62, 63, 64, 65, 66, 67, 68, 69, 70, 71, 72, 73, 74, 75, 76, 77, 78, 79, 80, 81, 82, 83, 84, 85, 86, 87, 88, 89, 90, 91, 92, 93, 94, 95, 96, 97, 98, 99, 100, 101, 102, 103, 104, 105, 106, 107, 108, 109, 110, 111, 112, 113, 114, 115, 116, 117, 118, 119, 120, 121, 122, 123, 124, 125, 126, 127, 128, 129, 130, 131, 132, 133, 134, 135, 136, 137, 138, 139, 140, 141, 142, 143, 144, 145, 146, 147, 148, 149, 150, 151, 152, 153, 154, 155, 156, 157, 158, 159, 160, 161, 162, 163, 164, 165, 166, 167, 168, 169, 170, 171, 172, 173, 174, 175, 176, 177, 178, 179, 180, 181, 182, 183, 184, 185, 186, 187, 188, 189, 190, 191, 192, 193, 194, 195, 196, 197, 198, 199, 200, 201, 202, 203, 204, 205, 206, 207, 208, 209, 210, 211, 212, 213, 214, 215, 216, 217, 218, 219, 220, 221, 222, 223, 224, 225, 226, 227, 228, 229, 230, 231, 232],
      "WindowCenter": [830.0, 828.0, 827.0, 827.0, 826.0, 826.0, 826.0, 826.0, 827.0, 827.0, 828.0, 827.0, 826.0, 826.0, 827.0, 827.0, 827.0, 828.0, 828.0, 829.0, 830.0, 830.0, 830.0, 830.0, 829.0, 829.0, 829.0, 830.0, 829.0, 829.0, 828.0, 828.0, 828.0, 829.0, 829.0, 829.0, 828.0, 828.0, 828.0, 829.0, 829.0, 829.0, 829.0, 830.0, 830.0, 829.0, 828.0, 828.0, 828.0, 828.0, 828.0, 829.0, 829.0, 829.0, 828.0, 828.0, 827.0, 828.0, 829.0, 830.0, 829.0, 829.0, 828.0, 828.0, 828.0, 827.0, 827.0, 826.0, 824.0, 823.0, 823.0, 823.0, 825.0, 825.0, 827.0, 829.0, 829.0, 829.0, 829.0, 828.0, 828.0, 828.0, 829.0, 830.0, 829.0, 829.0, 829.0, 828.0, 828.0, 829.0, 829.0, 830.0, 830.0, 829.0, 829.0, 829.0, 828.0, 830.0, 831.0, 832.0, 832.0, 831.0, 830.0, 830.0, 828.0, 826.0, 824.0, 823.0, 823.0, 826.0, 828.0, 829.0, 829.0, 829.0, 830.0, 830.0, 829.0, 828.0, 828.0, 828.0, 828.0, 829.0, 829.0, 829.0, 829.0, 828.0, 828.0, 829.0, 830.0, 829.0, 828.0, 829.0, 829.0, 829.0, 829.0, 828.0, 828.0, 828.0, 828.0, 828.0, 828.0, 828.0, 828.0, 829.0, 830.0, 831.0, 831.0, 830.0, 830.0, 829.0, 829.0, 828.0, 828.0, 828.0, 827.0, 827.0, 827.0, 828.0, 828.0, 827.0, 826.0, 827.0, 827.0, 828.0, 829.0, 829.0, 828.0, 827.0, 827.0, 827.0, 827.0, 827.0, 828.0, 827.0, 827.0, 827.0, 827.0, 827.0, 827.0, 827.0, 828.0, 827.0, 826.0, 826.0, 826.0, 828.0, 829.0, 830.0, 830.0, 829.0, 829.0, 828.0, 828.0, 828.0, 828.0, 829.0, 829.0, 829.0, 829.0, 828.0, 828.0, 828.0, 828.0, 829.0, 829.0, 828.0, 827.0, 826.0, 826.0, 827.0, 827.0, 827.0, 827.0, 827.0, 827.0, 827.0, 827.0, 826.0, 826.0, 827.0, 828.0, 829.0, 829.0, 829.0, 828.0, 828.0, 828.0, 829.0, 828.0, 827.0, 827.0, 827.0],
      "WindowWidth": [1885.0, 1879.0, 1875.0, 1874.0, 1871.0, 1871.0, 1872.0, 1872.0, 1875.0, 1875.0, 1877.0, 1875.0, 1873.0, 1872.0, 1875.0, 1876.0, 1876.0, 1877.0, 1879.0, 1882.0, 1883.0, 1884.0, 1885.0, 1884.0, 1882.0, 1880.0, 1881.0, 1884.0, 1882.0, 1881.0, 1879.0, 1877.0, 1878.0, 1881.0, 1881.0, 1881.0, 1880.0, 1879.0, 1880.0, 1880.0, 1881.0, 1882.0, 1882.0, 1885.0, 1886.0, 1883.0, 1879.0, 1878.0, 1878.0, 1878.0, 1880.0, 1883.0, 1881.0, 1881.0, 1877.0, 1877.0, 1875.0, 1879.0, 1882.0, 1883.0, 1883.0, 1881.0, 1879.0, 1879.0, 1878.0, 1876.0, 1875.0, 1872.0, 1867.0, 1863.0, 1863.0, 1864.0, 1868.0, 1870.0, 1876.0, 1880.0, 1882.0, 1882.0, 1881.0, 1878.0, 1877.0, 1879.0, 1882.0, 1883.0, 1882.0, 1881.0, 1879.0, 1878.0, 1878.0, 1881.0, 1882.0, 1883.0, 1882.0, 1881.0, 1879.0, 1881.0, 1878.0, 1885.0, 1885.0, 1891.0, 1890.0, 1887.0, 1883.0, 1883.0, 1877.0, 1870.0, 1863.0, 1861.0, 1863.0, 1870.0, 1877.0, 1881.0, 1880.0, 1882.0, 1883.0, 1883.0, 1881.0, 1878.0, 1878.0, 1879.0, 1879.0, 1879.0, 1880.0, 1881.0, 1880.0, 1878.0, 1877.0, 1881.0, 1883.0, 1882.0, 1879.0, 1880.0, 1880.0, 1882.0, 1879.0, 1878.0, 1877.0, 1878.0, 1877.0, 1877.0, 1877.0, 1879.0, 1878.0, 1880.0, 1884.0, 1887.0, 1887.0, 1885.0, 1884.0, 1882.0, 1880.0, 1878.0, 1877.0, 1876.0, 1874.0, 1874.0, 1875.0, 1876.0, 1877.0, 1875.0, 1873.0, 1874.0, 1875.0, 1878.0, 1880.0, 1880.0, 1879.0, 1876.0, 1873.0, 1874.0, 1874.0, 1876.0, 1876.0, 1875.0, 1875.0, 1874.0, 1873.0, 1873.0, 1873.0, 1876.0, 1877.0, 1874.0, 1870.0, 1872.0, 1872.0, 1877.0, 1880.0, 1883.0, 1883.0, 1881.0, 1881.0, 1878.0, 1877.0, 1876.0, 1877.0, 1879.0, 1880.0, 1881.0, 1880.0, 1879.0, 1878.0, 1877.0, 1879.0, 1881.0, 1882.0, 1878.0, 1875.0, 1872.0, 1871.0, 1873.0, 1875.0, 1875.0, 1874.0, 1874.0, 1873.0, 1874.0, 1873.0, 1872.0, 1872.0, 1873.0, 1877.0, 1881.0, 1882.0, 1880.0, 1878.0, 1876.0, 1878.0, 1880.0, 1878.0, 1874.0, 1874.0, 1873.0]
    },
    "slices": {}
  }
}