{
  "AcquisitionMatrixPE": 100,
  "AcquisitionNumber": 1,
  "AcquisitionTime": "10:45:26.230000",
  "BandwidthPerPixelPhaseEncode": 18.519,
  "BaseResolution": 100,
  "BodyPartExamined": "BRAIN",
  "ConsistencyInfo": "N4_VE11C_LATEST_20160120",
  "ConversionSoftware": "dcm2niix",
  "ConversionSoftwareVersion": "v1.0.20180622 GCC4.9.2",
  "DerivedVendorReportedEchoSpacing": 0.000539986,
  "DeviceSerialNumber": "166078",
  "DwellTime": 2.1e-06,
  "EchoTime": 0.034,
  "EchoTrainLength": 100,
  "EffectiveEchoSpacing": 0.000539986,
  "FlipAngle": 90,
  "ImageOrientationPatientDICOM": [0.999979, -0.00107239, -0.00641372, 1.23984e-08, 0.986309, -0.164911],
  "ImageType": [
    "ORIGINAL",
    "PRIMARY",
    "M",
    "ND",
    "MOSAIC"
],
  "InPlanePhaseEncodingDirectionDICOM": "COL",
  "InstitutionAddress": "Street_StreetNo_Bei_Jing_District_CN_ZIP",
  "InstitutionName": "BeiJing_Normal_University",
  "InstitutionalDepartmentName": "Department",
  "MRAcquisitionType": "2D",
  "MagneticFieldStrength": 3,
  "Manufacturer": "Siemens",
  "ManufacturersModelName": "Prisma",
  "Modality": "MR",
  "MultibandAccelerationFactor": 3,
  "PartialFourier": 1,
  "PatientPosition": "HFS",
  "PercentPhaseFOV": 100,
  "PhaseEncodingDirection": "j-",
  "PhaseEncodingSteps": 100,
  "PhaseResolution": 1,
  "PixelBandwidth": 2380,
  "ProcedureStepDescription": "BNU_P2018_64CH_Liu.Jia",
  "ProtocolName": "bold_100x100_s3_2x2x2_232",
  "PulseSequenceDetails": "%SiemensSeq%_ep2d_bold",
  "ReceiveCoilActiveElements": "HC1-7;NC1",
  "ReceiveCoilName": "HeadNeck_64",
  "ReconMatrixPE": 100,
  "RepetitionTime": 2,
  "SAR": 0.0651932,
  "ScanOptions": "FS",
  "ScanningSequence": "EP",
  "SequenceName": "_epfid2d1_100",
  "SequenceVariant": "SK",
  "SeriesDescription": "bold_100x100_s3_2x2x2_232",
  "SeriesNumber": 5,
  "ShimSetting": [-5469, -11488, -1267, 314, -46, -424, -214, 30],
  "SliceThickness": 2,
  "SliceTiming": [1.485, 0, 0.99, 0.0825, 1.0725, 0.165, 1.155, 0.2475, 1.2375, 0.33, 1.32, 0.4125, 1.4025, 0.5775, 1.5675, 0.66, 1.65, 0.7425, 1.7325, 0.825, 1.815, 0.9075, 1.8975, 0.495, 1.485, 0, 0.99, 0.0825, 1.0725, 0.165, 1.155, 0.2475, 1.2375, 0.33, 1.32, 0.4125, 1.4025, 0.5775, 1.5675, 0.66, 1.65, 0.7425, 1.7325, 0.825, 1.815, 0.9075, 1.8975, 0.495, 1.485, 0, 0.99, 0.0825, 1.0725, 0.165, 1.155, 0.2475, 1.2375, 0.33, 1.32, 0.4125, 1.4025, 0.5775, 1.5675, 0.66, 1.65, 0.7425, 1.7325, 0.825, 1.815, 0.9075, 1.8975, 0.495],
  "SoftwareVersions": "syngo_MR_E11",
  "SpacingBetweenSlices": 2,
  "StationName": "AWP166078",
  "TaskName": "motor",
  "TotalReadoutTime": 0.0534586,
  "TxRefAmp": 206.696,
  "dcmmeta_affine": [
    [-1.9999576807022095, 2.4796767306156653e-08, -0.013005504384636879, 100.3551025390625],
    [0.0021447711624205112, 1.9726170301437378, -0.32981443405151367, -83.07438659667969],
    [-0.012827434577047825, 0.3298214077949524, 1.972575306892395, -68.90153503417969],
    [0.0, 0.0, 0.0, 1.0]
],
  "dcmmeta_reorient_transform": [
    [0.0, -1.0, 0.0, 99.0],
    [1.0, 0.0, 0.0, 0.0],
    [0.0, 0.0, 1.0, 0.0],
    [0.0, 0.0, 0.0, 1.0]
],
  "dcmmeta_shape": [100, 100, 72, 232],
  "dcmmeta_slice_dim": 2,
  "dcmmeta_version": 0.6,
  "global": {
    "const": {
      "AcquisitionMatrix": [100, 0, 0, 100],
      "AngioFlag": "N",
      "BitsAllocated": 16,
      "BitsStored": 12,
      "BodyPartExamined": "BRAIN",
      "Columns": 900,
      "EchoNumbers": 1,
      "EchoTime": 34.0,
      "EchoTrainLength": 100,
      "FlipAngle": 90.0,
      "HighBit": 11,
      "ImageOrientationPatient": [0.99997885688495, -0.0010723856066, -0.0064137175004, 1.2398384e-08, 0.98630850194284, -0.164910700063],
      "ImagePositionPatient": [-900.3381976701, -900.4035895644, 100.81031534569],
      "ImageType": [
        "ORIGINAL",
        "PRIMARY",
        "M",
        "ND",
        "MOSAIC"
],
      "ImagedNucleus": "1H",
      "ImagingFrequency": 123.257821,
      "InPlanePhaseEncodingDirection": "COL",
      "LargestImagePixelValue": 4095,
      "MRAcquisitionType": "2D",
      "MagneticFieldStrength": 3.0,
      "Manufacturer": "SIEMENS",
      "ManufacturerModelName": "Prisma",
      "Modality": "MR",
      "NumberOfAverages": 1.0,
      "NumberOfPhaseEncodingSteps": 100,
      "PercentPhaseFieldOfView": 100.0,
      "PercentSampling": 100.0,
      "PerformedProcedureStepStartTime": "101232.260000",
      "PhotometricInterpretation": "MONOCHROME2",
      "PixelBandwidth": 2380.0,
      "PixelRepresentation": 0,
      "PixelSpacing": [2.0, 2.0],
      "ProtocolName": "bold_100x100_s3_2x2x2_232",
      "RepetitionTime": 2000.0,
      "Rows": 900,
      "SAR": 0.0651931953326,
      "SamplesPerPixel": 1,
      "ScanOptions": "FS",
      "ScanningSequence": "EP",
      "SequenceName": "*epfid2d1_100",
      "SequenceVariant": "SK",
      "SeriesDescription": "bold_100x100_s3_2x2x2_232",
      "SeriesNumber": 5,
      "SeriesTime": "104528.947000",
      "SliceLocation": -54.909753893639,
      "SliceThickness": 2.0,
      "SmallestImagePixelValue": 0,
      "SoftwareVersions": "syngo MR E11",
      "SpacingBetweenSlices": 2.0000000361413,
      "SpecificCharacterSet": "ISO_IR 100",
      "StudyID": "1",
      "StudyTime": "101232.158000",
      "TransmitCoilName": "Body",
      "VariableFlipAngleFlag": "N",
      "WindowCenterWidthExplanation": "Algo1",
      "dBdt": 0.0},
    "slices": {}
  },
  "time": {
    "samples": {
      "AcquisitionNumber": [1, 2, 3, 4, 5, 6, 7, 8, 9, 10, 11, 12, 13, 14, 15, 16, 17, 18, 19, 20, 21, 22, 23, 24, 25, 26, 27, 28, 29, 30, 31, 32, 33, 34, 35, 36, 37, 38, 39, 40, 41, 42, 43, 44, 45, 46, 47, 48, 49, 50, 51, 52, 53, 54, 55, 56, 57, 58, 59, 60, 61, 62, 63, 64, 65, 66, 67, 68, 69, 70, 71, 72, 73, 74, 75, 76, 77, 78, 79, 80, 81, 82, 83, 84, 85, 86, 87, 88, 89, 90, 91, 92, 93, 94, 95, 96, 97, 98, 99, 100, 101, 102, 103, 104, 105, 106, 107, 108, 109, 110, 111, 112, 113, 114, 115, 116, 117, 118, 119, 120, 121, 122, 123, 124, 125, 126, 127, 128, 129, 130, 131, 132, 133, 134, 135, 136, 137, 138, 139, 140, 141, 142, 143, 144, 145, 146, 147, 148, 149, 150, 151, 152, 153, 154, 155, 156, 157, 158, 159, 160, 161, 162, 163, 164, 165, 166, 167, 168, 169, 170, 171, 172, 173, 174, 175, 176, 177, 178, 179, 180, 181, 182, 183, 184, 185, 186, 187, 188, 189, 190, 191, 192, 193, 194, 195, 196, 197, 198, 199, 200, 201, 202, 203, 204, 205, 206, 207, 208, 209, 210, 211, 212, 213, 214, 215, 216, 217, 218, 219, 220, 221, 222, 223, 224, 225, 226, 227, 228, 229, 230, 231, 232],
      "AcquisitionTime": ["104526.230000", "104528.230000", "104530.230000", "104532.230000", "104534.230000", "104536.230000", "104538.230000", "104540.230000", "104542.230000", "104544.230000", "104546.230000", "104548.230000", "104550.230000", "104552.230000", "104554.230000", "104556.230000", "104558.230000", "104600.230000", "104602.230000", "104604.230000", "104606.230000", "104608.230000", "104610.230000", "104612.230000", "104614.230000", "104616.230000", "104618.230000", "104620.230000", "104622.230000", "104624.230000", "104626.230000", "104628.230000", "104630.230000", "104632.230000", "104634.230000", "104636.230000", "104638.230000", "104640.230000", "104642.230000", "104644.230000", "104646.230000", "104648.230000", "104650.230000", "104652.230000", "104654.230000", "104656.230000", "104658.230000", "104700.230000", "104702.230000", "104704.230000", "104706.230000", "104708.230000", "104710.230000", "104712.230000", "104714.230000", "104716.230000", "104718.230000", "104720.230000", "104722.230000", "104724.230000", "104726.230000", "104728.230000", "104730.230000", "104732.230000", "104734.230000", "104736.230000", "104738.230000", "104740.230000", "104742.230000", "104744.230000", "104746.230000", "104748.230000", "104750.230000", "104752.230000", "104754.230000", "104756.230000", "104758.230000", "104800.230000", "104802.230000", "104804.230000", "104806.230000", "104808.230000", "104810.230000", "104812.230000", "104814.230000", "104816.230000", "104818.230000", "104820.230000", "104822.230000", "104824.230000", "104826.230000", "104828.230000", "104830.230000", "104832.230000", "104834.230000", "104836.230000", "104838.230000", "104840.230000", "104842.230000", "104844.230000", "104846.230000", "104848.230000", "104850.230000", "104852.230000", "104854.230000", "104856.230000", "104858.230000", "104900.230000", "104902.230000", "104904.230000", "104906.230000", "104908.230000", "104910.230000", "104912.230000", "104914.230000", "104916.230000", "104918.230000", "104920.230000", "104922.230000", "104924.230000", "104926.230000", "104928.230000", "104930.230000", "104932.230000", "104934.230000", "104936.230000", "104938.230000", "104940.230000", "104942.230000", "104944.230000", "104946.230000", "104948.230000", "104950.230000", "104952.230000", "104954.230000", "104956.230000", "104958.230000", "105000.230000", "105002.230000", "105004.230000", "105006.230000", "105008.230000", "105010.230000", "105012.230000", "105014.230000", "105016.230000", "105018.230000", "105020.230000", "105022.230000", "105024.230000", "105026.230000", "105028.230000", "105030.230000", "105032.230000", "105034.230000", "105036.230000", "105038.230000", "105040.230000", "105042.230000", "105044.230000", "105046.230000", "105048.230000", "105050.230000", "105052.230000", "105054.230000", "105056.230000", "105058.230000", "105100.230000", "105102.230000", "105104.230000", "105106.230000", "105108.230000", "105110.230000", "105112.230000", "105114.230000", "105116.230000", "105118.230000", "105120.230000", "105122.230000", "105124.230000", "105126.230000", "105128.230000", "105130.230000", "105132.230000", "105134.230000", "105136.230000", "105138.230000", "105140.230000", "105142.230000", "105144.230000", "105146.230000", "105148.230000", "105150.230000", "105152.230000", "105154.230000", "105156.230000", "105158.230000", "105200.230000", "105202.230000", "105204.230000", "105206.230000", "105208.230000", "105210.230000", "105212.230000", "105214.230000", "105216.230000", "105218.230000", "105220.230000", "105222.230000", "105224.230000", "105226.230000", "105228.230000", "105230.230000", "105232.230000", "105234.230000", "105236.230000", "105238.230000", "105240.230000", "105242.230000", "105244.230000", "105246.230000", "105248.230000", "105250.230000", "105252.230000", "105254.230000", "105256.230000", "105258.230000", "105300.230000", "105302.230000", "105304.230000", "105306.230000", "105308.230000"],
      "ContentTime": ["104528.950000", "104530.447000", "104532.446000", "104534.445000", "104536.445000", "104538.445000", "104540.445000", "104542.447000", "104544.446000", "104546.447000", "104548.446000", "104550.446000", "104552.445000", "104554.445000", "104556.445000", "104558.445000", "104600.446000", "104602.446000", "104604.446000", "104606.447000", "104608.445000", "104610.445000", "104612.445000", "104614.445000", "104616.445000", "104618.446000", "104620.447000", "104622.447000", "104624.446000", "104626.445000", "104628.446000", "104630.445000", "104632.445000", "104634.445000", "104636.446000", "104638.447000", "104640.447000", "104642.446000", "104644.446000", "104646.445000", "104648.445000", "104650.445000", "104652.447000", "104654.447000", "104656.447000", "104658.447000", "104700.446000", "104702.446000", "104704.445000", "104706.445000", "104708.445000", "104710.446000", "104712.446000", "104714.446000", "104716.446000", "104718.446000", "104720.445000", "104722.445000", "104724.445000", "104726.446000", "104728.446000", "104730.446000", "104732.446000", "104734.446000", "104736.445000", "104738.445000", "104740.445000", "104742.445000", "104744.446000", "104746.446000", "104748.447000", "104750.447000", "104752.446000", "104754.445000", "104756.446000", "104758.445000", "104800.445000", "104802.446000", "104804.446000", "104806.447000", "104808.446000", "104810.447000", "104812.445000", "104814.445000", "104816.445000", "104818.445000", "104820.447000", "104822.446000", "104824.446000", "104826.446000", "104828.446000", "104830.445000", "104832.445000", "104834.445000", "104836.445000", "104838.447000", "104840.446000", "104842.446000", "104844.446000", "104846.445000", "104848.445000", "104850.445000", "104852.445000", "104854.447000", "104856.446000", "104858.446000", "104900.447000", "104902.446000", "104904.445000", "104906.445000", "104908.445000", "104910.445000", "104912.446000", "104914.446000", "104916.446000", "104918.447000", "104920.447000", "104922.445000", "104924.445000", "104926.445000", "104928.446000", "104930.446000", "104932.447000", "104934.447000", "104936.446000", "104938.445000", "104940.445000", "104942.446000", "104944.445000", "104946.446000", "104948.446000", "104950.446000", "104952.447000", "104954.446000", "104956.446000", "104958.446000", "105000.445000", "105002.445000", "105004.446000", "105006.446000", "105008.447000", "105010.446000", "105012.447000", "105014.446000", "105016.446000", "105018.447000", "105020.445000", "105022.447000", "105024.446000", "105026.446000", "105028.447000", "105030.446000", "105032.446000", "105034.445000", "105036.445000", "105038.445000", "105040.446000", "105042.446000", "105044.446000", "105046.447000", "105048.445000", "105050.445000", "105052.446000", "105054.446000", "105056.446000", "105058.447000", "105100.446000", "105102.446000", "105104.446000", "105106.445000", "105108.445000", "105110.445000", "105112.445000", "105114.446000", "105116.446000", "105118.446000", "105120.446000", "105122.446000", "105124.445000", "105126.445000", "105128.445000", "105130.445000", "105132.446000", "105134.446000", "105136.446000", "105138.446000", "105140.446000", "105142.446000", "105144.446000", "105146.445000", "105148.446000", "105150.447000", "105152.446000", "105154.447000", "105156.446000", "105158.446000", "105200.446000", "105202.445000", "105204.458000", "105206.446000", "105208.446000", "105210.446000", "105212.446000", "105214.446000", "105216.446000", "105218.445000", "105220.446000", "105222.446000", "105224.447000", "105226.446000", "105228.447000", "105230.446000", "105232.447000", "105234.445000", "105236.446000", "105238.446000", "105240.445000", "105242.446000", "105244.446000", "105246.447000", "105248.446000", "105250.447000", "105252.446000", "105254.446000", "105256.446000", "105258.445000", "105300.446000", "105302.446000", "105304.446000", "105306.446000", "105308.446000", "105310.201000"],
      "InstanceCreationTime": ["104528.950000", "104530.447000", "104532.446000", "104534.445000", "104536.445000", "104538.445000", "104540.445000", "104542.447000", "104544.446000", "104546.447000", "104548.446000", "104550.446000", "104552.445000", "104554.445000", "104556.445000", "104558.445000", "104600.446000", "104602.446000", "104604.446000", "104606.447000", "104608.445000", "104610.445000", "104612.445000", "104614.445000", "104616.445000", "104618.446000", "104620.447000", "104622.447000", "104624.446000", "104626.445000", "104628.446000", "104630.445000", "104632.445000", "104634.445000", "104636.446000", "104638.447000", "104640.447000", "104642.446000", "104644.446000", "104646.445000", "104648.445000", "104650.445000", "104652.447000", "104654.447000", "104656.447000", "104658.447000", "104700.446000", "104702.446000", "104704.445000", "104706.445000", "104708.445000", "104710.446000", "104712.446000", "104714.446000", "104716.446000", "104718.446000", "104720.445000", "104722.445000", "104724.445000", "104726.446000", "104728.446000", "104730.446000", "104732.446000", "104734.446000", "104736.445000", "104738.445000", "104740.445000", "104742.445000", "104744.446000", "104746.446000", "104748.447000", "104750.447000", "104752.446000", "104754.445000", "104756.446000", "104758.445000", "104800.445000", "104802.446000", "104804.446000", "104806.447000", "104808.446000", "104810.447000", "104812.445000", "104814.445000", "104816.445000", "104818.445000", "104820.447000", "104822.446000", "104824.446000", "104826.446000", "104828.446000", "104830.445000", "104832.445000", "104834.445000", "104836.445000", "104838.447000", "104840.446000", "104842.446000", "104844.446000", "104846.445000", "104848.445000", "104850.445000", "104852.445000", "104854.447000", "104856.446000", "104858.446000", "104900.447000", "104902.446000", "104904.445000", "104906.445000", "104908.445000", "104910.445000", "104912.446000", "104914.446000", "104916.446000", "104918.447000", "104920.447000", "104922.445000", "104924.445000", "104926.445000", "104928.446000", "104930.446000", "104932.447000", "104934.447000", "104936.446000", "104938.445000", "104940.445000", "104942.446000", "104944.445000", "104946.446000", "104948.446000", "104950.446000", "104952.447000", "104954.446000", "104956.446000", "104958.446000", "105000.445000", "105002.445000", "105004.446000", "105006.446000", "105008.447000", "105010.446000", "105012.447000", "105014.446000", "105016.446000", "105018.447000", "105020.445000", "105022.447000", "105024.446000", "105026.446000", "105028.447000", "105030.446000", "105032.446000", "105034.445000", "105036.445000", "105038.445000", "105040.446000", "105042.446000", "105044.446000", "105046.447000", "105048.445000", "105050.445000", "105052.446000", "105054.446000", "105056.446000", "105058.447000", "105100.446000", "105102.446000", "105104.446000", "105106.445000", "105108.445000", "105110.445000", "105112.445000", "105114.446000", "105116.446000", "105118.446000", "105120.446000", "105122.446000", "105124.445000", "105126.445000", "105128.445000", "105130.445000", "105132.446000", "105134.446000", "105136.446000", "105138.446000", "105140.446000", "105142.446000", "105144.446000", "105146.445000", "105148.446000", "105150.447000", "105152.446000", "105154.447000", "105156.446000", "105158.446000", "105200.446000", "105202.445000", "105204.458000", "105206.446000", "105208.446000", "105210.446000", "105212.446000", "105214.446000", "105216.446000", "105218.445000", "105220.446000", "105222.446000", "105224.447000", "105226.446000", "105228.447000", "105230.446000", "105232.447000", "105234.445000", "105236.446000", "105238.446000", "105240.445000", "105242.446000", "105244.446000", "105246.447000", "105248.446000", "105250.447000", "105252.446000", "105254.446000", "105256.446000", "105258.445000", "105300.446000", "105302.446000", "105304.446000", "105306.446000", "105308.446000", "105310.201000"],
      "InstanceNumber": [1, 2, 3, 4, 5, 6, 7, 8, 9, 10, 11, 12, 13, 14, 15, 16, 17, 18, 19, 20, 21, 22, 23, 24, 25, 26, 27, 28, 29, 30, 31, 32, 33, 34, 35, 36, 37, 38, 39, 40, 41, 42, 43, 44, 45, 46, 47, 48, 49, 50, 51, 52, 53, 54, 55, 56, 57, 58, 59, 60, 61, 62, 63, 64, 65, 66, 67, 68, 69, 70, 71, 72, 73, 74, 75, 76, 77, 78, 79, 80, 81, 82, 83, 84, 85, 86, 87, 88, 89, 90, 91, 92, 93, 94, 95, 96, 97, 98, 99, 100, 101, 102, 103, 104, 105, 106, 107, 108, 109, 110, 111, 112, 113, 114, 115, 116, 117, 118, 119, 120, 121, 122, 123, 124, 125, 126, 127, 128, 129, 130, 131, 132, 133, 134, 135, 136, 137, 138, 139, 140, 141, 142, 143, 144, 145, 146, 147, 148, 149, 150, 151, 152, 153, 154, 155, 156, 157, 158, 159, 160, 161, 162, 163, 164, 165, 166, 167, 168, 169, 170, 171, 172, 173, 174, 175, 176, 177, 178, 179, 180, 181, 182, 183, 184, 185, 186, 187, 188, 189, 190, 191, 192, 193, 194, 195, 196, 197, 198, 199, 200, 201, 202, 203, 204, 205, 206, 207, 208, 209, 210, 211, 212, 213, 214, 215, 216, 217, 218, 219, 220, 221, 222, 223, 224, 225, 226, 227, 228, 229, 230, 231, 232],
      "WindowCenter": [828.0, 827.0, 826.0, 825.0, 825.0, 825.0, 824.0, 824.0, 824.0, 824.0, 824.0, 825.0, 826.0, 827.0, 826.0, 826.0, 827.0, 828.0, 828.0, 828.0, 828.0, 828.0, 828.0, 828.0, 828.0, 829.0, 830.0, 830.0, 830.0, 829.0, 829.0, 829.0, 828.0, 829.0, 829.0, 829.0, 830.0, 830.0, 830.0, 829.0, 828.0, 828.0, 827.0, 827.0, 826.0, 827.0, 827.0, 827.0, 827.0, 828.0, 828.0, 829.0, 829.0, 830.0, 830.0, 830.0, 829.0, 828.0, 827.0, 826.0, 826.0, 826.0, 825.0, 826.0, 826.0, 827.0, 828.0, 829.0, 829.0, 829.0, 828.0, 827.0, 826.0, 827.0, 828.0, 828.0, 827.0, 827.0, 826.0, 826.0, 826.0, 826.0, 827.0, 829.0, 830.0, 830.0, 830.0, 829.0, 829.0, 828.0, 828.0, 827.0, 827.0, 827.0, 827.0, 826.0, 827.0, 827.0, 828.0, 830.0, 830.0, 828.0, 827.0, 828.0, 828.0, 828.0, 826.0, 825.0, 825.0, 825.0, 826.0, 826.0, 825.0, 826.0, 827.0, 828.0, 829.0, 828.0, 827.0, 826.0, 824.0, 822.0, 822.0, 823.0, 823.0, 823.0, 823.0, 825.0, 826.0, 827.0, 827.0, 827.0, 827.0, 827.0, 826.0, 826.0, 825.0, 825.0, 826.0, 827.0, 827.0, 826.0, 826.0, 827.0, 827.0, 826.0, 825.0, 824.0, 823.0, 824.0, 825.0, 824.0, 824.0, 825.0, 826.0, 827.0, 827.0, 826.0, 826.0, 825.0, 825.0, 826.0, 826.0, 827.0, 828.0, 829.0, 828.0, 828.0, 827.0, 827.0, 827.0, 827.0, 826.0, 826.0, 826.0, 825.0, 825.0, 825.0, 825.0, 826.0, 825.0, 826.0, 826.0, 827.0, 827.0, 827.0, 827.0, 828.0, 828.0, 828.0, 828.0, 828.0, 826.0, 827.0, 828.0, 828.0, 828.0, 827.0, 826.0, 825.0, 826.0, 826.0, 827.0, 827.0, 827.0, 827.0, 827.0, 827.0, 827.0, 827.0, 827.0, 827.0, 827.0, 827.0, 827.0, 827.0, 827.0, 827.0, 826.0, 826.0, 826.0, 827.0, 827.0, 827.0, 827.0, 826.0, 827.0, 826.0, 827.0, 827.0, 826.0, 825.0],
      "WindowWidth": [1879.0, 1875.0, 1872.0, 1869.0, 1868.0, 1867.0, 1866.0, 1866.0, 1865.0, 1864.0, 1866.0, 1870.0, 1873.0, 1874.0, 1873.0, 1873.0, 1874.0, 1877.0, 1879.0, 1879.0, 1877.0, 1877.0, 1877.0, 1878.0, 1878.0, 1880.0, 1883.0, 1883.0, 1883.0, 1881.0, 1879.0, 1879.0, 1878.0, 1880.0, 1881.0, 1882.0, 1884.0, 1884.0, 1883.0, 1880.0, 1877.0, 1878.0, 1876.0, 1876.0, 1873.0, 1875.0, 1874.0, 1874.0, 1875.0, 1877.0, 1877.0, 1882.0, 1882.0, 1884.0, 1886.0, 1885.0, 1882.0, 1879.0, 1874.0, 1873.0, 1871.0, 1871.0, 1870.0, 1870.0, 1872.0, 1876.0, 1877.0, 1881.0, 1883.0, 1882.0, 1877.0, 1875.0, 1871.0, 1874.0, 1877.0, 1878.0, 1876.0, 1874.0, 1873.0, 1873.0, 1872.0, 1873.0, 1876.0, 1880.0, 1883.0, 1884.0, 1883.0, 1882.0, 1881.0, 1880.0, 1877.0, 1876.0, 1876.0, 1875.0, 1874.0, 1873.0, 1874.0, 1876.0, 1881.0, 1886.0, 1884.0, 1879.0, 1876.0, 1877.0, 1879.0, 1877.0, 1872.0, 1869.0, 1867.0, 1869.0, 1873.0, 1871.0, 1868.0, 1871.0, 1873.0, 1879.0, 1879.0, 1877.0, 1875.0, 1871.0, 1863.0, 1859.0, 1859.0, 1861.0, 1862.0, 1862.0, 1863.0, 1866.0, 1871.0, 1873.0, 1873.0, 1874.0, 1874.0, 1873.0, 1872.0, 1870.0, 1869.0, 1869.0, 1871.0, 1874.0, 1875.0, 1872.0, 1871.0, 1873.0, 1875.0, 1872.0, 1867.0, 1863.0, 1863.0, 1866.0, 1866.0, 1865.0, 1866.0, 1868.0, 1871.0, 1874.0, 1874.0, 1872.0, 1870.0, 1868.0, 1869.0, 1871.0, 1873.0, 1876.0, 1878.0, 1881.0, 1876.0, 1877.0, 1875.0, 1876.0, 1875.0, 1874.0, 1872.0, 1870.0, 1870.0, 1868.0, 1867.0, 1867.0, 1869.0, 1870.0, 1869.0, 1870.0, 1872.0, 1873.0, 1874.0, 1874.0, 1875.0, 1876.0, 1878.0, 1877.0, 1878.0, 1877.0, 1871.0, 1876.0, 1878.0, 1878.0, 1877.0, 1873.0, 1870.0, 1868.0, 1870.0, 1872.0, 1875.0, 1875.0, 1875.0, 1874.0, 1873.0, 1872.0, 1873.0, 1873.0, 1875.0, 1876.0, 1876.0, 1876.0, 1874.0, 1874.0, 1875.0, 1873.0, 1872.0, 1872.0, 1872.0, 1874.0, 1874.0, 1874.0, 1873.0, 1872.0, 1873.0, 1872.0, 1874.0, 1873.0, 1871.0, 1867.0]
    },
    "slices": {}
  }
}