{
  "AcquisitionMatrixPE": 100,
  "AcquisitionNumber": 1,
  "AcquisitionTime": "11:46:14.845000",
  "BandwidthPerPixelPhaseEncode": 18.519,
  "BaseResolution": 100,
  "BodyPartExamined": "BRAIN",
  "ConsistencyInfo": "N4_VE11C_LATEST_20160120",
  "ConversionSoftware": "dcm2niix",
  "ConversionSoftwareVersion": "v1.0.20180622 GCC4.9.2",
  "DerivedVendorReportedEchoSpacing": 0.000539986,
  "DeviceSerialNumber": "166078",
  "DwellTime": 2.1e-06,
  "EchoTime": 0.034,
  "EchoTrainLength": 100,
  "EffectiveEchoSpacing": 0.000539986,
  "FlipAngle": 90,
  "ImageOrientationPatientDICOM": [0.996696, 0.0468745, -0.0663325, -0.0539791, 0.992496, -0.109719],
  "ImageType": [
    "ORIGINAL",
    "PRIMARY",
    "M",
    "ND",
    "MOSAIC"
],
  "InPlanePhaseEncodingDirectionDICOM": "COL",
  "InstitutionAddress": "Street_StreetNo_Bei_Jing_District_CN_ZIP",
  "InstitutionName": "BeiJing_Normal_University",
  "InstitutionalDepartmentName": "Department",
  "MRAcquisitionType": "2D",
  "MagneticFieldStrength": 3,
  "Manufacturer": "Siemens",
  "ManufacturersModelName": "Prisma",
  "Modality": "MR",
  "MultibandAccelerationFactor": 3,
  "PartialFourier": 1,
  "PatientPosition": "HFS",
  "PercentPhaseFOV": 100,
  "PhaseEncodingDirection": "j-",
  "PhaseEncodingSteps": 100,
  "PhaseResolution": 1,
  "PixelBandwidth": 2380,
  "ProcedureStepDescription": "BNU_P2018_64CH_Liu.Jia",
  "ProtocolName": "bold_100x100_s3_2x2x2_232",
  "PulseSequenceDetails": "%SiemensSeq%_ep2d_bold",
  "ReceiveCoilActiveElements": "HC1-7;NC1",
  "ReceiveCoilName": "HeadNeck_64",
  "ReconMatrixPE": 100,
  "RepetitionTime": 2,
  "SAR": 0.0741035,
  "ScanOptions": "FS",
  "ScanningSequence": "EP",
  "SequenceName": "_epfid2d1_100",
  "SequenceVariant": "SK",
  "SeriesDescription": "bold_100x100_s3_2x2x2_232",
  "SeriesNumber": 3,
  "ShimSetting": [-5498, -11526, -1254, 473, -18, -151, -81, -28],
  "SliceThickness": 2,
  "SliceTiming": [1.485, 0, 0.99, 0.0825, 1.0725, 0.165, 1.155, 0.2475, 1.2375, 0.33, 1.32, 0.4125, 1.4025, 0.5775, 1.5675, 0.66, 1.65, 0.7425, 1.7325, 0.825, 1.815, 0.9075, 1.8975, 0.495, 1.485, 0, 0.99, 0.0825, 1.0725, 0.165, 1.155, 0.2475, 1.2375, 0.33, 1.32, 0.4125, 1.4025, 0.5775, 1.5675, 0.66, 1.65, 0.7425, 1.7325, 0.825, 1.815, 0.9075, 1.8975, 0.495, 1.485, 0, 0.99, 0.0825, 1.0725, 0.165, 1.155, 0.2475, 1.2375, 0.33, 1.32, 0.4125, 1.4025, 0.5775, 1.5675, 0.66, 1.65, 0.7425, 1.7325, 0.825, 1.815, 0.9075, 1.8975, 0.495],
  "SoftwareVersions": "syngo_MR_E11",
  "SpacingBetweenSlices": 2,
  "StationName": "AWP166078",
  "TaskName": "motor",
  "TotalReadoutTime": 0.0534586,
  "TxRefAmp": 219.324,
  "dcmmeta_affine": [
    [-1.9933918714523315, -0.10795816779136658, -0.12138346582651138, 108.14205169677734],
    [-0.09374906867742538, 1.9849916696548462, -0.22587449848651886, -81.34037780761719],
    [-0.13266508281230927, 0.21943840384483337, 1.9834935665130615, -68.9841079711914],
    [0.0, 0.0, 0.0, 1.0]
],
  "dcmmeta_reorient_transform": [
    [0.0, -1.0, 0.0, 99.0],
    [1.0, 0.0, 0.0, 0.0],
    [0.0, 0.0, 1.0, 0.0],
    [0.0, 0.0, 0.0, 1.0]
],
  "dcmmeta_shape": [100, 100, 72, 232],
  "dcmmeta_slice_dim": 2,
  "dcmmeta_version": 0.6,
  "global": {
    "const": {
      "AcquisitionMatrix": [100, 0, 0, 100],
      "AngioFlag": "N",
      "BitsAllocated": 16,
      "BitsStored": 12,
      "BodyPartExamined": "BRAIN",
      "Columns": 900,
      "EchoNumbers": 1,
      "EchoTime": 34.0,
      "EchoTrainLength": 100,
      "FlipAngle": 90.0,
      "HighBit": 11,
      "ImageOrientationPatient": [0.99669592756879, 0.04687453277164, -0.0663325421285, -0.053979082344, 0.99249582124458, -0.1097192028833],
      "ImagePositionPatient": [-851.62767012458, -946.67007780039, 93.581687087744],
      "ImageType": [
        "ORIGINAL",
        "PRIMARY",
        "M",
        "ND",
        "MOSAIC"
],
      "ImagedNucleus": "1H",
      "ImagingFrequency": 123.257806,
      "InPlanePhaseEncodingDirection": "COL",
      "MRAcquisitionType": "2D",
      "MagneticFieldStrength": 3.0,
      "Manufacturer": "SIEMENS",
      "ManufacturerModelName": "Prisma",
      "Modality": "MR",
      "NumberOfAverages": 1.0,
      "NumberOfPhaseEncodingSteps": 100,
      "PercentPhaseFieldOfView": 100.0,
      "PercentSampling": 100.0,
      "PerformedProcedureStepStartTime": "113657.749000",
      "PhotometricInterpretation": "MONOCHROME2",
      "PixelBandwidth": 2380.0,
      "PixelRepresentation": 0,
      "PixelSpacing": [2.0, 2.0],
      "ProtocolName": "bold_100x100_s3_2x2x2_232",
      "RepetitionTime": 2000.0,
      "Rows": 900,
      "SAR": 0.07410345233941,
      "SamplesPerPixel": 1,
      "ScanOptions": "FS",
      "ScanningSequence": "EP",
      "SequenceName": "*epfid2d1_100",
      "SequenceVariant": "SK",
      "SeriesDescription": "bold_100x100_s3_2x2x2_232",
      "SeriesNumber": 3,
      "SeriesTime": "114617.699000",
      "SliceLocation": -65.791740477221,
      "SliceThickness": 2.0,
      "SmallestImagePixelValue": 0,
      "SoftwareVersions": "syngo MR E11",
      "SpacingBetweenSlices": 1.9999999622644,
      "SpecificCharacterSet": "ISO_IR 100",
      "StudyID": "1",
      "StudyTime": "113657.661000",
      "TransmitCoilName": "Body",
      "VariableFlipAngleFlag": "N",
      "WindowCenterWidthExplanation": "Algo1",
      "dBdt": 0.0},
    "slices": {}
  },
  "time": {
    "samples": {
      "AcquisitionNumber": [1, 2, 3, 4, 5, 6, 7, 8, 9, 10, 11, 12, 13, 14, 15, 16, 17, 18, 19, 20, 21, 22, 23, 24, 25, 26, 27, 28, 29, 30, 31, 32, 33, 34, 35, 36, 37, 38, 39, 40, 41, 42, 43, 44, 45, 46, 47, 48, 49, 50, 51, 52, 53, 54, 55, 56, 57, 58, 59, 60, 61, 62, 63, 64, 65, 66, 67, 68, 69, 70, 71, 72, 73, 74, 75, 76, 77, 78, 79, 80, 81, 82, 83, 84, 85, 86, 87, 88, 89, 90, 91, 92, 93, 94, 95, 96, 97, 98, 99, 100, 101, 102, 103, 104, 105, 106, 107, 108, 109, 110, 111, 112, 113, 114, 115, 116, 117, 118, 119, 120, 121, 122, 123, 124, 125, 126, 127, 128, 129, 130, 131, 132, 133, 134, 135, 136, 137, 138, 139, 140, 141, 142, 143, 144, 145, 146, 147, 148, 149, 150, 151, 152, 153, 154, 155, 156, 157, 158, 159, 160, 161, 162, 163, 164, 165, 166, 167, 168, 169, 170, 171, 172, 173, 174, 175, 176, 177, 178, 179, 180, 181, 182, 183, 184, 185, 186, 187, 188, 189, 190, 191, 192, 193, 194, 195, 196, 197, 198, 199, 200, 201, 202, 203, 204, 205, 206, 207, 208, 209, 210, 211, 212, 213, 214, 215, 216, 217, 218, 219, 220, 221, 222, 223, 224, 225, 226, 227, 228, 229, 230, 231, 232],
      "AcquisitionTime": ["114614.845000", "114616.845000", "114618.845000", "114620.845000", "114622.845000", "114624.845000", "114626.845000", "114628.845000", "114630.845000", "114632.845000", "114634.845000", "114636.845000", "114638.845000", "114640.845000", "114642.845000", "114644.845000", "114646.845000", "114648.845000", "114650.845000", "114652.845000", "114654.845000", "114656.845000", "114658.845000", "114700.845000", "114702.845000", "114704.845000", "114706.845000", "114708.845000", "114710.845000", "114712.845000", "114714.845000", "114716.845000", "114718.845000", "114720.845000", "114722.845000", "114724.845000", "114726.845000", "114728.845000", "114730.845000", "114732.845000", "114734.845000", "114736.845000", "114738.845000", "114740.845000", "114742.845000", "114744.845000", "114746.845000", "114748.845000", "114750.845000", "114752.845000", "114754.845000", "114756.845000", "114758.845000", "114800.845000", "114802.845000", "114804.845000", "114806.845000", "114808.845000", "114810.845000", "114812.845000", "114814.845000", "114816.845000", "114818.845000", "114820.845000", "114822.845000", "114824.845000", "114826.845000", "114828.845000", "114830.845000", "114832.845000", "114834.845000", "114836.845000", "114838.845000", "114840.845000", "114842.845000", "114844.845000", "114846.845000", "114848.845000", "114850.845000", "114852.845000", "114854.845000", "114856.845000", "114858.845000", "114900.845000", "114902.845000", "114904.845000", "114906.845000", "114908.845000", "114910.845000", "114912.845000", "114914.845000", "114916.845000", "114918.845000", "114920.845000", "114922.845000", "114924.845000", "114926.845000", "114928.845000", "114930.845000", "114932.845000", "114934.845000", "114936.845000", "114938.845000", "114940.845000", "114942.845000", "114944.845000", "114946.845000", "114948.845000", "114950.845000", "114952.845000", "114954.845000", "114956.845000", "114958.845000", "115000.845000", "115002.845000", "115004.845000", "115006.845000", "115008.845000", "115010.845000", "115012.845000", "115014.845000", "115016.845000", "115018.845000", "115020.845000", "115022.845000", "115024.845000", "115026.845000", "115028.845000", "115030.845000", "115032.845000", "115034.845000", "115036.845000", "115038.845000", "115040.845000", "115042.845000", "115044.845000", "115046.845000", "115048.845000", "115050.845000", "115052.845000", "115054.845000", "115056.845000", "115058.845000", "115100.845000", "115102.845000", "115104.845000", "115106.845000", "115108.845000", "115110.845000", "115112.845000", "115114.845000", "115116.845000", "115118.845000", "115120.845000", "115122.845000", "115124.845000", "115126.845000", "115128.845000", "115130.845000", "115132.845000", "115134.845000", "115136.845000", "115138.845000", "115140.845000", "115142.845000", "115144.845000", "115146.845000", "115148.845000", "115150.845000", "115152.845000", "115154.845000", "115156.845000", "115158.845000", "115200.845000", "115202.845000", "115204.845000", "115206.845000", "115208.845000", "115210.845000", "115212.845000", "115214.845000", "115216.845000", "115218.845000", "115220.845000", "115222.845000", "115224.845000", "115226.845000", "115228.845000", "115230.845000", "115232.845000", "115234.845000", "115236.845000", "115238.845000", "115240.845000", "115242.845000", "115244.845000", "115246.845000", "115248.845000", "115250.845000", "115252.845000", "115254.845000", "115256.845000", "115258.845000", "115300.845000", "115302.845000", "115304.845000", "115306.845000", "115308.845000", "115310.845000", "115312.845000", "115314.845000", "115316.845000", "115318.845000", "115320.845000", "115322.845000", "115324.845000", "115326.845000", "115328.845000", "115330.845000", "115332.845000", "115334.845000", "115336.845000", "115338.845000", "115340.845000", "115342.845000", "115344.845000", "115346.845000", "115348.845000", "115350.845000", "115352.845000", "115354.845000", "115356.845000"],
      "ContentTime": ["114617.702000", "114619.198000", "114621.198000", "114623.198000", "114625.199000", "114627.198000", "114629.198000", "114631.199000", "114633.198000", "114635.198000", "114637.198000", "114639.198000", "114641.198000", "114643.198000", "114645.198000", "114647.198000", "114649.198000", "114651.198000", "114653.198000", "114655.198000", "114657.198000", "114659.199000", "114701.198000", "114703.198000", "114705.198000", "114707.198000", "114709.198000", "114711.198000", "114713.198000", "114715.198000", "114717.198000", "114719.198000", "114721.198000", "114723.198000", "114725.198000", "114727.198000", "114729.198000", "114731.198000", "114733.198000", "114735.199000", "114737.198000", "114739.198000", "114741.198000", "114743.198000", "114745.198000", "114747.198000", "114749.198000", "114751.198000", "114753.198000", "114755.198000", "114757.198000", "114759.199000", "114801.198000", "114803.198000", "114805.198000", "114807.198000", "114809.198000", "114811.198000", "114813.198000", "114815.199000", "114817.198000", "114819.198000", "114821.198000", "114823.198000", "114825.199000", "114827.198000", "114829.198000", "114831.198000", "114833.198000", "114835.198000", "114837.198000", "114839.198000", "114841.198000", "114843.199000", "114845.199000", "114847.199000", "114849.199000", "114851.198000", "114853.199000", "114855.198000", "114857.198000", "114859.198000", "114901.199000", "114903.199000", "114905.199000", "114907.199000", "114909.198000", "114911.198000", "114913.198000", "114915.199000", "114917.198000", "114919.198000", "114921.199000", "114923.198000", "114925.198000", "114927.199000", "114929.198000", "114931.198000", "114933.198000", "114935.198000", "114937.199000", "114939.199000", "114941.198000", "114943.198000", "114945.198000", "114947.198000", "114949.198000", "114951.198000", "114953.198000", "114955.200000", "114957.198000", "114959.199000", "115001.198000", "115003.198000", "115005.199000", "115007.198000", "115009.199000", "115011.198000", "115013.198000", "115015.199000", "115017.198000", "115019.198000", "115021.199000", "115023.198000", "115025.199000", "115027.198000", "115029.198000", "115031.199000", "115033.198000", "115035.199000", "115037.199000", "115039.199000", "115041.214000", "115043.198000", "115045.199000", "115047.199000", "115049.199000", "115051.199000", "115053.198000", "115055.198000", "115057.199000", "115059.198000", "115101.199000", "115103.199000", "115105.199000", "115107.198000", "115109.199000", "115111.198000", "115113.198000", "115115.199000", "115117.198000", "115119.198000", "115121.198000", "115123.198000", "115125.199000", "115127.199000", "115129.199000", "115131.198000", "115133.198000", "115135.198000", "115137.199000", "115139.199000", "115141.198000", "115143.199000", "115145.198000", "115147.198000", "115149.198000", "115151.198000", "115153.198000", "115155.198000", "115157.199000", "115159.199000", "115201.198000", "115203.198000", "115205.198000", "115207.199000", "115209.199000", "115211.199000", "115213.198000", "115215.200000", "115217.199000", "115219.198000", "115221.198000", "115223.198000", "115225.198000", "115227.199000", "115229.198000", "115231.198000", "115233.199000", "115235.199000", "115237.199000", "115239.199000", "115241.198000", "115243.198000", "115245.199000", "115247.198000", "115249.198000", "115251.198000", "115253.199000", "115255.199000", "115257.198000", "115259.198000", "115301.198000", "115303.198000", "115305.198000", "115307.199000", "115309.198000", "115311.198000", "115313.199000", "115315.199000", "115317.199000", "115319.198000", "115321.198000", "115323.199000", "115325.200000", "115327.199000", "115329.199000", "115331.199000", "115333.198000", "115335.198000", "115337.198000", "115339.199000", "115341.198000", "115343.199000", "115345.198000", "115347.199000", "115349.199000", "115351.198000", "115353.198000", "115355.198000", "115357.198000", "115358.966000"],
      "InstanceCreationTime": ["114617.702000", "114619.198000", "114621.198000", "114623.198000", "114625.199000", "114627.198000", "114629.198000", "114631.199000", "114633.198000", "114635.198000", "114637.198000", "114639.198000", "114641.198000", "114643.198000", "114645.198000", "114647.198000", "114649.198000", "114651.198000", "114653.198000", "114655.198000", "114657.198000", "114659.199000", "114701.198000", "114703.198000", "114705.198000", "114707.198000", "114709.198000", "114711.198000", "114713.198000", "114715.198000", "114717.198000", "114719.198000", "114721.198000", "114723.198000", "114725.198000", "114727.198000", "114729.198000", "114731.198000", "114733.198000", "114735.199000", "114737.198000", "114739.198000", "114741.198000", "114743.198000", "114745.198000", "114747.198000", "114749.198000", "114751.198000", "114753.198000", "114755.198000", "114757.198000", "114759.199000", "114801.198000", "114803.198000", "114805.198000", "114807.198000", "114809.198000", "114811.198000", "114813.198000", "114815.199000", "114817.198000", "114819.198000", "114821.198000", "114823.198000", "114825.199000", "114827.198000", "114829.198000", "114831.198000", "114833.198000", "114835.198000", "114837.198000", "114839.198000", "114841.198000", "114843.199000", "114845.199000", "114847.199000", "114849.199000", "114851.198000", "114853.199000", "114855.198000", "114857.198000", "114859.198000", "114901.199000", "114903.199000", "114905.199000", "114907.199000", "114909.198000", "114911.198000", "114913.198000", "114915.199000", "114917.198000", "114919.198000", "114921.199000", "114923.198000", "114925.198000", "114927.199000", "114929.198000", "114931.198000", "114933.198000", "114935.198000", "114937.199000", "114939.199000", "114941.198000", "114943.198000", "114945.198000", "114947.198000", "114949.198000", "114951.198000", "114953.198000", "114955.200000", "114957.198000", "114959.199000", "115001.198000", "115003.198000", "115005.199000", "115007.198000", "115009.199000", "115011.198000", "115013.198000", "115015.199000", "115017.198000", "115019.198000", "115021.199000", "115023.198000", "115025.199000", "115027.198000", "115029.198000", "115031.199000", "115033.198000", "115035.199000", "115037.199000", "115039.199000", "115041.214000", "115043.198000", "115045.199000", "115047.199000", "115049.199000", "115051.199000", "115053.198000", "115055.198000", "115057.199000", "115059.198000", "115101.199000", "115103.199000", "115105.199000", "115107.198000", "115109.199000", "115111.198000", "115113.198000", "115115.199000", "115117.198000", "115119.198000", "115121.198000", "115123.198000", "115125.199000", "115127.199000", "115129.199000", "115131.198000", "115133.198000", "115135.198000", "115137.199000", "115139.199000", "115141.198000", "115143.199000", "115145.198000", "115147.198000", "115149.198000", "115151.198000", "115153.198000", "115155.198000", "115157.199000", "115159.199000", "115201.198000", "115203.198000", "115205.198000", "115207.199000", "115209.199000", "115211.199000", "115213.198000", "115215.200000", "115217.199000", "115219.198000", "115221.198000", "115223.198000", "115225.198000", "115227.199000", "115229.198000", "115231.198000", "115233.199000", "115235.199000", "115237.199000", "115239.199000", "115241.198000", "115243.198000", "115245.199000", "115247.198000", "115249.198000", "115251.198000", "115253.199000", "115255.199000", "115257.198000", "115259.198000", "115301.198000", "115303.198000", "115305.198000", "115307.199000", "115309.198000", "115311.198000", "115313.199000", "115315.199000", "115317.199000", "115319.198000", "115321.198000", "115323.199000", "115325.200000", "115327.199000", "115329.199000", "115331.199000", "115333.198000", "115335.198000", "115337.198000", "115339.199000", "115341.198000", "115343.199000", "115345.198000", "115347.199000", "115349.199000", "115351.198000", "115353.198000", "115355.198000", "115357.198000", "115358.966000"],
      "InstanceNumber": [1, 2, 3, 4, 5, 6, 7, 8, 9, 10, 11, 12, 13, 14, 15, 16, 17, 18, 19, 20, 21, 22, 23, 24, 25, 26, 27, 28, 29, 30, 31, 32, 33, 34, 35, 36, 37, 38, 39, 40, 41, 42, 43, 44, 45, 46, 47, 48, 49, 50, 51, 52, 53, 54, 55, 56, 57, 58, 59, 60, 61, 62, 63, 64, 65, 66, 67, 68, 69, 70, 71, 72, 73, 74, 75, 76, 77, 78, 79, 80, 81, 82, 83, 84, 85, 86, 87, 88, 89, 90, 91, 92, 93, 94, 95, 96, 97, 98, 99, 100, 101, 102, 103, 104, 105, 106, 107, 108, 109, 110, 111, 112, 113, 114, 115, 116, 117, 118, 119, 120, 121, 122, 123, 124, 125, 126, 127, 128, 129, 130, 131, 132, 133, 134, 135, 136, 137, 138, 139, 140, 141, 142, 143, 144, 145, 146, 147, 148, 149, 150, 151, 152, 153, 154, 155, 156, 157, 158, 159, 160, 161, 162, 163, 164, 165, 166, 167, 168, 169, 170, 171, 172, 173, 174, 175, 176, 177, 178, 179, 180, 181, 182, 183, 184, 185, 186, 187, 188, 189, 190, 191, 192, 193, 194, 195, 196, 197, 198, 199, 200, 201, 202, 203, 204, 205, 206, 207, 208, 209, 210, 211, 212, 213, 214, 215, 216, 217, 218, 219, 220, 221, 222, 223, 224, 225, 226, 227, 228, 229, 230, 231, 232],
      "LargestImagePixelValue": [2805, 2704, 2685, 2673, 2679, 2668, 2677, 2659, 2666, 2677, 2638, 2654, 2674, 2652, 2683, 2665, 2678, 2651, 2625, 2656, 2604, 2704, 2621, 2714, 2526, 2582, 2639, 2623, 2544, 2527, 2490, 2523, 2553, 2506, 2511, 2508, 2538, 2514, 2495, 2521, 2495, 2432, 2754, 2555, 2629, 2597, 2686, 2635, 2742, 2502, 2609, 2526, 2758, 2507, 2753, 2523, 2644, 2639, 2632, 2587, 2650, 2709, 2451, 2497, 2525, 2565, 2531, 2527, 2519, 2531, 2528, 2551, 2543, 2468, 2496, 2501, 2449, 2471, 2523, 2564, 2617, 2572, 2581, 2578, 2716, 2585, 2676, 2688, 2677, 2660, 2573, 2487, 2450, 2450, 2558, 2519, 2376, 2571, 2613, 2619, 2682, 2608, 2640, 2598, 2540, 2679, 2673, 2675, 2539, 2604, 2601, 2602, 2596, 2546, 2627, 2565, 2578, 2581, 2570, 2504, 2535, 2538, 2583, 2500, 2544, 2565, 2591, 2653, 2618, 2716, 2697, 2671, 2724, 2604, 2566, 2638, 2575, 2570, 2647, 2585, 2534, 2488, 2554, 2500, 2575, 2677, 2594, 2584, 2538, 2609, 2672, 2631, 2585, 2595, 2752, 2698, 2716, 2674, 2751, 2628, 2598, 2527, 2534, 2598, 2587, 2576, 2599, 2567, 2515, 2716, 2577, 2595, 2585, 2543, 2522, 2568, 2545, 2569, 2605, 2551, 2615, 2590, 2559, 2592, 2538, 2893, 2677, 2610, 2616, 2583, 2631, 2633, 2743, 2700, 2605, 2595, 2567, 2546, 2563, 2572, 2601, 2576, 2605, 2580, 2555, 2532, 2558, 2508, 2469, 2549, 2532, 2586, 2583, 2591, 2664, 2611, 2616, 2635, 2569, 2591, 2629, 2677, 2552, 2595, 2506, 2484, 2550, 2567, 2571, 2552, 2579, 2568],
      "WindowCenter": [722.0, 720.0, 720.0, 720.0, 721.0, 721.0, 720.0, 720.0, 721.0, 722.0, 722.0, 721.0, 722.0, 723.0, 724.0, 724.0, 719.0, 723.0, 724.0, 723.0, 720.0, 723.0, 720.0, 723.0, 719.0, 720.0, 720.0, 719.0, 716.0, 714.0, 715.0, 715.0, 715.0, 717.0, 719.0, 718.0, 716.0, 715.0, 714.0, 714.0, 716.0, 714.0, 712.0, 722.0, 721.0, 719.0, 720.0, 720.0, 711.0, 713.0, 719.0, 717.0, 717.0, 715.0, 718.0, 716.0, 717.0, 717.0, 718.0, 716.0, 715.0, 716.0, 714.0, 717.0, 716.0, 715.0, 715.0, 714.0, 714.0, 714.0, 715.0, 715.0, 715.0, 716.0, 719.0, 717.0, 713.0, 711.0, 711.0, 711.0, 714.0, 714.0, 713.0, 713.0, 716.0, 715.0, 717.0, 717.0, 718.0, 718.0, 717.0, 713.0, 711.0, 712.0, 713.0, 712.0, 709.0, 703.0, 718.0, 715.0, 713.0, 711.0, 713.0, 711.0, 712.0, 717.0, 718.0, 716.0, 713.0, 714.0, 714.0, 714.0, 713.0, 717.0, 719.0, 716.0, 715.0, 716.0, 716.0, 714.0, 715.0, 716.0, 717.0, 713.0, 713.0, 715.0, 715.0, 716.0, 717.0, 717.0, 718.0, 717.0, 716.0, 713.0, 715.0, 716.0, 709.0, 717.0, 716.0, 714.0, 714.0, 713.0, 712.0, 711.0, 713.0, 717.0, 716.0, 714.0, 713.0, 714.0, 717.0, 716.0, 715.0, 710.0, 716.0, 722.0, 715.0, 720.0, 718.0, 718.0, 717.0, 715.0, 715.0, 714.0, 713.0, 715.0, 716.0, 715.0, 715.0, 719.0, 720.0, 719.0, 716.0, 714.0, 713.0, 713.0, 713.0, 713.0, 716.0, 715.0, 714.0, 713.0, 714.0, 716.0, 706.0, 726.0, 726.0, 723.0, 721.0, 720.0, 721.0, 722.0, 700.0, 721.0, 722.0, 722.0, 719.0, 718.0, 717.0, 716.0, 716.0, 717.0, 716.0, 713.0, 712.0, 711.0, 711.0, 711.0, 710.0, 710.0, 712.0, 712.0, 709.0, 712.0, 713.0, 713.0, 715.0, 717.0, 717.0, 717.0, 716.0, 717.0, 716.0, 716.0, 716.0, 718.0, 718.0, 716.0, 716.0, 715.0, 716.0, 715.0],
      "WindowWidth": [1558.0, 1553.0, 1552.0, 1553.0, 1556.0, 1556.0, 1552.0, 1552.0, 1555.0, 1559.0, 1559.0, 1556.0, 1558.0, 1561.0, 1563.0, 1564.0, 1550.0, 1563.0, 1565.0, 1562.0, 1553.0, 1560.0, 1554.0, 1560.0, 1550.0, 1554.0, 1552.0, 1550.0, 1543.0, 1538.0, 1538.0, 1540.0, 1540.0, 1544.0, 1550.0, 1548.0, 1541.0, 1537.0, 1536.0, 1537.0, 1543.0, 1537.0, 1536.0, 1558.0, 1554.0, 1549.0, 1552.0, 1551.0, 1529.0, 1536.0, 1548.0, 1543.0, 1544.0, 1538.0, 1547.0, 1543.0, 1543.0, 1545.0, 1547.0, 1540.0, 1539.0, 1540.0, 1536.0, 1544.0, 1542.0, 1540.0, 1539.0, 1537.0, 1536.0, 1538.0, 1539.0, 1540.0, 1538.0, 1543.0, 1550.0, 1545.0, 1534.0, 1530.0, 1529.0, 1529.0, 1535.0, 1536.0, 1534.0, 1533.0, 1540.0, 1537.0, 1542.0, 1543.0, 1545.0, 1548.0, 1544.0, 1535.0, 1529.0, 1530.0, 1533.0, 1530.0, 1524.0, 1509.0, 1545.0, 1538.0, 1534.0, 1527.0, 1532.0, 1529.0, 1532.0, 1543.0, 1545.0, 1541.0, 1534.0, 1535.0, 1535.0, 1536.0, 1534.0, 1545.0, 1549.0, 1542.0, 1538.0, 1541.0, 1540.0, 1536.0, 1538.0, 1541.0, 1543.0, 1534.0, 1533.0, 1537.0, 1537.0, 1539.0, 1542.0, 1545.0, 1547.0, 1544.0, 1540.0, 1533.0, 1538.0, 1542.0, 1522.0, 1543.0, 1540.0, 1535.0, 1535.0, 1532.0, 1531.0, 1528.0, 1533.0, 1544.0, 1541.0, 1535.0, 1532.0, 1535.0, 1542.0, 1541.0, 1538.0, 1525.0, 1544.0, 1557.0, 1540.0, 1550.0, 1545.0, 1546.0, 1544.0, 1540.0, 1539.0, 1536.0, 1534.0, 1539.0, 1541.0, 1538.0, 1537.0, 1550.0, 1553.0, 1550.0, 1540.0, 1535.0, 1535.0, 1534.0, 1532.0, 1534.0, 1543.0, 1539.0, 1537.0, 1534.0, 1536.0, 1542.0, 1517.0, 1571.0, 1570.0, 1560.0, 1555.0, 1553.0, 1555.0, 1556.0, 1500.0, 1556.0, 1557.0, 1557.0, 1550.0, 1547.0, 1544.0, 1542.0, 1542.0, 1543.0, 1540.0, 1534.0, 1531.0, 1527.0, 1528.0, 1529.0, 1526.0, 1527.0, 1530.0, 1529.0, 1523.0, 1529.0, 1532.0, 1533.0, 1539.0, 1543.0, 1545.0, 1543.0, 1541.0, 1543.0, 1540.0, 1541.0, 1542.0, 1547.0, 1548.0, 1541.0, 1540.0, 1539.0, 1540.0, 1539.0]
    },
    "slices": {}
  }
}