{
  "AcquisitionMatrixPE": 100,
  "AcquisitionNumber": 1,
  "AcquisitionTime": "12:32:23.810000",
  "BandwidthPerPixelPhaseEncode": 18.519,
  "BaseResolution": 100,
  "BodyPartExamined": "BRAIN",
  "ConsistencyInfo": "N4_VE11C_LATEST_20160120",
  "ConversionSoftware": "dcm2niix",
  "ConversionSoftwareVersion": "v1.0.20180622 GCC4.9.2",
  "DerivedVendorReportedEchoSpacing": 0.000539986,
  "DeviceSerialNumber": "166078",
  "DwellTime": 2.1e-06,
  "EchoTime": 0.034,
  "EchoTrainLength": 100,
  "EffectiveEchoSpacing": 0.000539986,
  "FlipAngle": 90,
  "ImageOrientationPatientDICOM": [0.996696, 0.0468745, -0.0663325, -0.0539791, 0.992496, -0.109719],
  "ImageType": [
    "ORIGINAL",
    "PRIMARY",
    "M",
    "ND",
    "MOSAIC"
],
  "InPlanePhaseEncodingDirectionDICOM": "COL",
  "InstitutionAddress": "Street_StreetNo_Bei_Jing_District_CN_ZIP",
  "InstitutionName": "BeiJing_Normal_University",
  "InstitutionalDepartmentName": "Department",
  "MRAcquisitionType": "2D",
  "MagneticFieldStrength": 3,
  "Manufacturer": "Siemens",
  "ManufacturersModelName": "Prisma",
  "Modality": "MR",
  "MultibandAccelerationFactor": 3,
  "PartialFourier": 1,
  "PatientPosition": "HFS",
  "PercentPhaseFOV": 100,
  "PhaseEncodingDirection": "j-",
  "PhaseEncodingSteps": 100,
  "PhaseResolution": 1,
  "PixelBandwidth": 2380,
  "ProcedureStepDescription": "BNU_P2018_64CH_Liu.Jia",
  "ProtocolName": "bold_100x100_s3_2x2x2_232",
  "PulseSequenceDetails": "%SiemensSeq%_ep2d_bold",
  "ReceiveCoilActiveElements": "HC1-7;NC1",
  "ReceiveCoilName": "HeadNeck_64",
  "ReconMatrixPE": 100,
  "RepetitionTime": 2,
  "SAR": 0.0741035,
  "ScanOptions": "FS",
  "ScanningSequence": "EP",
  "SequenceName": "_epfid2d1_100",
  "SequenceVariant": "SK",
  "SeriesDescription": "bold_100x100_s3_2x2x2_232",
  "SeriesNumber": 10,
  "ShimSetting": [-5498, -11526, -1254, 473, -18, -151, -81, -28],
  "SliceThickness": 2,
  "SliceTiming": [1.485, 0, 0.99, 0.0825, 1.0725, 0.165, 1.155, 0.2475, 1.2375, 0.33, 1.32, 0.4125, 1.4025, 0.5775, 1.5675, 0.66, 1.65, 0.7425, 1.7325, 0.825, 1.815, 0.9075, 1.8975, 0.495, 1.485, 0, 0.99, 0.0825, 1.0725, 0.165, 1.155, 0.2475, 1.2375, 0.33, 1.32, 0.4125, 1.4025, 0.5775, 1.5675, 0.66, 1.65, 0.7425, 1.7325, 0.825, 1.815, 0.9075, 1.8975, 0.495, 1.485, 0, 0.99, 0.0825, 1.0725, 0.165, 1.155, 0.2475, 1.2375, 0.33, 1.32, 0.4125, 1.4025, 0.5775, 1.5675, 0.66, 1.65, 0.7425, 1.7325, 0.825, 1.815, 0.9075, 1.8975, 0.495],
  "SoftwareVersions": "syngo_MR_E11",
  "SpacingBetweenSlices": 2,
  "StationName": "AWP166078",
  "TaskName": "motor",
  "TotalReadoutTime": 0.0534586,
  "TxRefAmp": 219.324,
  "dcmmeta_affine": [
    [-1.9933918714523315, -0.10795816779136658, -0.12138346582651138, 108.14205169677734],
    [-0.09374906867742538, 1.9849916696548462, -0.22587449848651886, -81.34037780761719],
    [-0.13266508281230927, 0.21943840384483337, 1.9834935665130615, -68.9841079711914],
    [0.0, 0.0, 0.0, 1.0]
],
  "dcmmeta_reorient_transform": [
    [0.0, -1.0, 0.0, 99.0],
    [1.0, 0.0, 0.0, 0.0],
    [0.0, 0.0, 1.0, 0.0],
    [0.0, 0.0, 0.0, 1.0]
],
  "dcmmeta_shape": [100, 100, 72, 232],
  "dcmmeta_slice_dim": 2,
  "dcmmeta_version": 0.6,
  "global": {
    "const": {
      "AcquisitionMatrix": [100, 0, 0, 100],
      "AngioFlag": "N",
      "BitsAllocated": 16,
      "BitsStored": 12,
      "BodyPartExamined": "BRAIN",
      "Columns": 900,
      "EchoNumbers": 1,
      "EchoTime": 34.0,
      "EchoTrainLength": 100,
      "FlipAngle": 90.0,
      "HighBit": 11,
      "ImageOrientationPatient": [0.99669592756879, 0.04687453277164, -0.0663325421285, -0.053979082344, 0.99249582124458, -0.1097192028833],
      "ImagePositionPatient": [-851.62767012458, -946.67007780039, 93.581687087744],
      "ImageType": [
        "ORIGINAL",
        "PRIMARY",
        "M",
        "ND",
        "MOSAIC"
],
      "ImagedNucleus": "1H",
      "ImagingFrequency": 123.257826,
      "InPlanePhaseEncodingDirection": "COL",
      "MRAcquisitionType": "2D",
      "MagneticFieldStrength": 3.0,
      "Manufacturer": "SIEMENS",
      "ManufacturerModelName": "Prisma",
      "Modality": "MR",
      "NumberOfAverages": 1.0,
      "NumberOfPhaseEncodingSteps": 100,
      "PercentPhaseFieldOfView": 100.0,
      "PercentSampling": 100.0,
      "PerformedProcedureStepStartTime": "113657.749000",
      "PhotometricInterpretation": "MONOCHROME2",
      "PixelBandwidth": 2380.0,
      "PixelRepresentation": 0,
      "PixelSpacing": [2.0, 2.0],
      "ProtocolName": "bold_100x100_s3_2x2x2_232",
      "RepetitionTime": 2000.0,
      "Rows": 900,
      "SAR": 0.07410345233941,
      "SamplesPerPixel": 1,
      "ScanOptions": "FS",
      "ScanningSequence": "EP",
      "SequenceName": "*epfid2d1_100",
      "SequenceVariant": "SK",
      "SeriesDescription": "bold_100x100_s3_2x2x2_232",
      "SeriesNumber": 10,
      "SeriesTime": "123226.132000",
      "SliceLocation": -65.791740477221,
      "SliceThickness": 2.0,
      "SmallestImagePixelValue": 0,
      "SoftwareVersions": "syngo MR E11",
      "SpacingBetweenSlices": 1.9999999622644,
      "SpecificCharacterSet": "ISO_IR 100",
      "StudyID": "1",
      "StudyTime": "113657.661000",
      "TransmitCoilName": "Body",
      "VariableFlipAngleFlag": "N",
      "WindowCenterWidthExplanation": "Algo1",
      "dBdt": 0.0},
    "slices": {}
  },
  "time": {
    "samples": {
      "AcquisitionNumber": [1, 2, 3, 4, 5, 6, 7, 8, 9, 10, 11, 12, 13, 14, 15, 16, 17, 18, 19, 20, 21, 22, 23, 24, 25, 26, 27, 28, 29, 30, 31, 32, 33, 34, 35, 36, 37, 38, 39, 40, 41, 42, 43, 44, 45, 46, 47, 48, 49, 50, 51, 52, 53, 54, 55, 56, 57, 58, 59, 60, 61, 62, 63, 64, 65, 66, 67, 68, 69, 70, 71, 72, 73, 74, 75, 76, 77, 78, 79, 80, 81, 82, 83, 84, 85, 86, 87, 88, 89, 90, 91, 92, 93, 94, 95, 96, 97, 98, 99, 100, 101, 102, 103, 104, 105, 106, 107, 108, 109, 110, 111, 112, 113, 114, 115, 116, 117, 118, 119, 120, 121, 122, 123, 124, 125, 126, 127, 128, 129, 130, 131, 132, 133, 134, 135, 136, 137, 138, 139, 140, 141, 142, 143, 144, 145, 146, 147, 148, 149, 150, 151, 152, 153, 154, 155, 156, 157, 158, 159, 160, 161, 162, 163, 164, 165, 166, 167, 168, 169, 170, 171, 172, 173, 174, 175, 176, 177, 178, 179, 180, 181, 182, 183, 184, 185, 186, 187, 188, 189, 190, 191, 192, 193, 194, 195, 196, 197, 198, 199, 200, 201, 202, 203, 204, 205, 206, 207, 208, 209, 210, 211, 212, 213, 214, 215, 216, 217, 218, 219, 220, 221, 222, 223, 224, 225, 226, 227, 228, 229, 230, 231, 232],
      "AcquisitionTime": ["123223.810000", "123225.810000", "123227.810000", "123229.810000", "123231.810000", "123233.810000", "123235.810000", "123237.810000", "123239.810000", "123241.810000", "123243.810000", "123245.810000", "123247.810000", "123249.810000", "123251.810000", "123253.810000", "123255.810000", "123257.810000", "123259.810000", "123301.810000", "123303.810000", "123305.810000", "123307.810000", "123309.810000", "123311.810000", "123313.810000", "123315.810000", "123317.810000", "123319.810000", "123321.810000", "123323.810000", "123325.810000", "123327.810000", "123329.810000", "123331.810000", "123333.810000", "123335.810000", "123337.810000", "123339.810000", "123341.810000", "123343.810000", "123345.810000", "123347.810000", "123349.810000", "123351.810000", "123353.810000", "123355.810000", "123357.810000", "123359.810000", "123401.810000", "123403.810000", "123405.810000", "123407.810000", "123409.810000", "123411.810000", "123413.810000", "123415.810000", "123417.810000", "123419.810000", "123421.810000", "123423.810000", "123425.810000", "123427.810000", "123429.810000", "123431.810000", "123433.810000", "123435.810000", "123437.810000", "123439.810000", "123441.810000", "123443.810000", "123445.810000", "123447.810000", "123449.810000", "123451.810000", "123453.810000", "123455.810000", "123457.810000", "123459.810000", "123501.810000", "123503.810000", "123505.810000", "123507.810000", "123509.810000", "123511.810000", "123513.810000", "123515.810000", "123517.810000", "123519.810000", "123521.810000", "123523.810000", "123525.810000", "123527.810000", "123529.810000", "123531.810000", "123533.810000", "123535.810000", "123537.810000", "123539.810000", "123541.810000", "123543.810000", "123545.810000", "123547.810000", "123549.810000", "123551.810000", "123553.810000", "123555.810000", "123557.810000", "123559.810000", "123601.810000", "123603.810000", "123605.810000", "123607.810000", "123609.810000", "123611.810000", "123613.810000", "123615.810000", "123617.810000", "123619.810000", "123621.810000", "123623.810000", "123625.810000", "123627.810000", "123629.810000", "123631.810000", "123633.810000", "123635.810000", "123637.810000", "123639.810000", "123641.810000", "123643.810000", "123645.810000", "123647.810000", "123649.810000", "123651.810000", "123653.810000", "123655.810000", "123657.810000", "123659.810000", "123701.810000", "123703.810000", "123705.810000", "123707.810000", "123709.810000", "123711.810000", "123713.810000", "123715.810000", "123717.810000", "123719.810000", "123721.810000", "123723.810000", "123725.810000", "123727.810000", "123729.810000", "123731.810000", "123733.810000", "123735.810000", "123737.810000", "123739.810000", "123741.810000", "123743.810000", "123745.810000", "123747.810000", "123749.810000", "123751.810000", "123753.810000", "123755.810000", "123757.810000", "123759.810000", "123801.810000", "123803.810000", "123805.810000", "123807.810000", "123809.810000", "123811.810000", "123813.810000", "123815.810000", "123817.810000", "123819.810000", "123821.810000", "123823.810000", "123825.810000", "123827.810000", "123829.810000", "123831.810000", "123833.810000", "123835.810000", "123837.810000", "123839.810000", "123841.810000", "123843.810000", "123845.810000", "123847.810000", "123849.810000", "123851.810000", "123853.810000", "123855.810000", "123857.810000", "123859.810000", "123901.810000", "123903.810000", "123905.810000", "123907.810000", "123909.810000", "123911.810000", "123913.810000", "123915.810000", "123917.810000", "123919.810000", "123921.810000", "123923.810000", "123925.810000", "123927.810000", "123929.810000", "123931.810000", "123933.810000", "123935.810000", "123937.810000", "123939.810000", "123941.810000", "123943.810000", "123945.810000", "123947.810000", "123949.810000", "123951.810000", "123953.810000", "123955.810000", "123957.810000", "123959.810000", "124001.810000", "124003.810000", "124005.810000"],
      "ContentTime": ["123226.136000", "123227.632000", "123229.632000", "123231.633000", "123233.631000", "123235.631000", "123237.631000", "123239.631000", "123241.631000", "123243.632000", "123245.633000", "123247.632000", "123249.633000", "123251.631000", "123253.631000", "123255.631000", "123257.631000", "123259.632000", "123301.632000", "123303.632000", "123305.632000", "123307.632000", "123309.632000", "123311.631000", "123313.632000", "123315.631000", "123317.631000", "123319.632000", "123321.632000", "123323.632000", "123325.631000", "123327.631000", "123329.631000", "123331.631000", "123333.631000", "123335.631000", "123337.632000", "123339.633000", "123341.632000", "123343.631000", "123345.631000", "123347.631000", "123349.631000", "123351.632000", "123353.631000", "123355.633000", "123357.632000", "123359.633000", "123401.631000", "123403.632000", "123405.631000", "123407.631000", "123409.632000", "123411.631000", "123413.633000", "123415.632000", "123417.632000", "123419.632000", "123421.631000", "123423.631000", "123425.632000", "123427.631000", "123429.631000", "123431.632000", "123433.632000", "123435.632000", "123437.632000", "123439.631000", "123441.632000", "123443.631000", "123445.631000", "123447.632000", "123449.633000", "123451.632000", "123453.631000", "123455.632000", "123457.632000", "123459.631000", "123501.631000", "123503.631000", "123505.632000", "123507.633000", "123509.632000", "123511.631000", "123513.632000", "123515.631000", "123517.632000", "123519.631000", "123521.631000", "123523.632000", "123525.633000", "123527.632000", "123529.631000", "123531.632000", "123533.631000", "123535.631000", "123537.632000", "123539.632000", "123541.633000", "123543.632000", "123545.631000", "123547.631000", "123549.632000", "123551.632000", "123553.632000", "123555.631000", "123557.633000", "123559.632000", "123601.632000", "123603.631000", "123605.631000", "123607.631000", "123609.631000", "123611.632000", "123613.631000", "123615.632000", "123617.632000", "123619.632000", "123621.632000", "123623.631000", "123625.631000", "123627.631000", "123629.632000", "123631.632000", "123633.633000", "123635.633000", "123637.632000", "123639.631000", "123641.631000", "123643.631000", "123645.632000", "123647.631000", "123649.632000", "123651.632000", "123653.632000", "123655.631000", "123657.631000", "123659.631000", "123701.632000", "123703.631000", "123705.632000", "123707.633000", "123709.632000", "123711.633000", "123713.631000", "123715.632000", "123717.631000", "123719.631000", "123721.631000", "123723.632000", "123725.632000", "123727.632000", "123729.632000", "123731.631000", "123733.631000", "123735.631000", "123737.631000", "123739.631000", "123741.631000", "123743.632000", "123745.632000", "123747.633000", "123749.631000", "123751.631000", "123753.631000", "123755.631000", "123757.632000", "123759.633000", "123801.632000", "123803.632000", "123805.632000", "123807.631000", "123809.632000", "123811.631000", "123813.631000", "123815.631000", "123817.632000", "123819.632000", "123821.633000", "123823.631000", "123825.632000", "123827.631000", "123829.631000", "123831.632000", "123833.631000", "123835.632000", "123837.633000", "123839.643000", "123841.631000", "123843.632000", "123845.631000", "123847.631000", "123849.631000", "123851.631000", "123853.633000", "123855.632000", "123857.632000", "123859.633000", "123901.632000", "123903.632000", "123905.632000", "123907.632000", "123909.632000", "123911.633000", "123913.632000", "123915.632000", "123917.631000", "123919.631000", "123921.631000", "123923.631000", "123925.632000", "123927.632000", "123929.632000", "123931.632000", "123933.632000", "123935.631000", "123937.632000", "123939.632000", "123941.631000", "123943.631000", "123945.632000", "123947.632000", "123949.632000", "123951.632000", "123953.631000", "123955.631000", "123957.632000", "123959.631000", "124001.631000", "124003.632000", "124005.632000", "124007.401000"],
      "InstanceCreationTime": ["123226.136000", "123227.632000", "123229.632000", "123231.633000", "123233.631000", "123235.631000", "123237.631000", "123239.631000", "123241.631000", "123243.632000", "123245.633000", "123247.632000", "123249.633000", "123251.631000", "123253.631000", "123255.631000", "123257.631000", "123259.632000", "123301.632000", "123303.632000", "123305.632000", "123307.632000", "123309.632000", "123311.631000", "123313.632000", "123315.631000", "123317.631000", "123319.632000", "123321.632000", "123323.632000", "123325.631000", "123327.631000", "123329.631000", "123331.631000", "123333.631000", "123335.631000", "123337.632000", "123339.633000", "123341.632000", "123343.631000", "123345.631000", "123347.631000", "123349.631000", "123351.632000", "123353.631000", "123355.633000", "123357.632000", "123359.633000", "123401.631000", "123403.632000", "123405.631000", "123407.631000", "123409.632000", "123411.631000", "123413.633000", "123415.632000", "123417.632000", "123419.632000", "123421.631000", "123423.631000", "123425.632000", "123427.631000", "123429.631000", "123431.632000", "123433.632000", "123435.632000", "123437.632000", "123439.631000", "123441.632000", "123443.631000", "123445.631000", "123447.632000", "123449.633000", "123451.632000", "123453.631000", "123455.632000", "123457.632000", "123459.631000", "123501.631000", "123503.631000", "123505.632000", "123507.633000", "123509.632000", "123511.631000", "123513.632000", "123515.631000", "123517.632000", "123519.631000", "123521.631000", "123523.632000", "123525.633000", "123527.632000", "123529.631000", "123531.632000", "123533.631000", "123535.631000", "123537.632000", "123539.632000", "123541.633000", "123543.632000", "123545.631000", "123547.631000", "123549.632000", "123551.632000", "123553.632000", "123555.631000", "123557.633000", "123559.632000", "123601.632000", "123603.631000", "123605.631000", "123607.631000", "123609.631000", "123611.632000", "123613.631000", "123615.632000", "123617.632000", "123619.632000", "123621.632000", "123623.631000", "123625.631000", "123627.631000", "123629.632000", "123631.632000", "123633.633000", "123635.633000", "123637.632000", "123639.631000", "123641.631000", "123643.631000", "123645.632000", "123647.631000", "123649.632000", "123651.632000", "123653.632000", "123655.631000", "123657.631000", "123659.631000", "123701.632000", "123703.631000", "123705.632000", "123707.633000", "123709.632000", "123711.633000", "123713.631000", "123715.632000", "123717.631000", "123719.631000", "123721.631000", "123723.632000", "123725.632000", "123727.632000", "123729.632000", "123731.631000", "123733.631000", "123735.631000", "123737.631000", "123739.631000", "123741.631000", "123743.632000", "123745.632000", "123747.633000", "123749.631000", "123751.631000", "123753.631000", "123755.631000", "123757.632000", "123759.633000", "123801.632000", "123803.632000", "123805.632000", "123807.631000", "123809.632000", "123811.631000", "123813.631000", "123815.631000", "123817.632000", "123819.632000", "123821.633000", "123823.631000", "123825.632000", "123827.631000", "123829.631000", "123831.632000", "123833.631000", "123835.632000", "123837.633000", "123839.643000", "123841.631000", "123843.632000", "123845.631000", "123847.631000", "123849.631000", "123851.631000", "123853.633000", "123855.632000", "123857.632000", "123859.633000", "123901.632000", "123903.632000", "123905.632000", "123907.632000", "123909.632000", "123911.633000", "123913.632000", "123915.632000", "123917.631000", "123919.631000", "123921.631000", "123923.631000", "123925.632000", "123927.632000", "123929.632000", "123931.632000", "123933.632000", "123935.631000", "123937.632000", "123939.632000", "123941.631000", "123943.631000", "123945.632000", "123947.632000", "123949.632000", "123951.632000", "123953.631000", "123955.631000", "123957.632000", "123959.631000", "124001.631000", "124003.632000", "124005.632000", "124007.401000"],
      "InstanceNumber": [1, 2, 3, 4, 5, 6, 7, 8, 9, 10, 11, 12, 13, 14, 15, 16, 17, 18, 19, 20, 21, 22, 23, 24, 25, 26, 27, 28, 29, 30, 31, 32, 33, 34, 35, 36, 37, 38, 39, 40, 41, 42, 43, 44, 45, 46, 47, 48, 49, 50, 51, 52, 53, 54, 55, 56, 57, 58, 59, 60, 61, 62, 63, 64, 65, 66, 67, 68, 69, 70, 71, 72, 73, 74, 75, 76, 77, 78, 79, 80, 81, 82, 83, 84, 85, 86, 87, 88, 89, 90, 91, 92, 93, 94, 95, 96, 97, 98, 99, 100, 101, 102, 103, 104, 105, 106, 107, 108, 109, 110, 111, 112, 113, 114, 115, 116, 117, 118, 119, 120, 121, 122, 123, 124, 125, 126, 127, 128, 129, 130, 131, 132, 133, 134, 135, 136, 137, 138, 139, 140, 141, 142, 143, 144, 145, 146, 147, 148, 149, 150, 151, 152, 153, 154, 155, 156, 157, 158, 159, 160, 161, 162, 163, 164, 165, 166, 167, 168, 169, 170, 171, 172, 173, 174, 175, 176, 177, 178, 179, 180, 181, 182, 183, 184, 185, 186, 187, 188, 189, 190, 191, 192, 193, 194, 195, 196, 197, 198, 199, 200, 201, 202, 203, 204, 205, 206, 207, 208, 209, 210, 211, 212, 213, 214, 215, 216, 217, 218, 219, 220, 221, 222, 223, 224, 225, 226, 227, 228, 229, 230, 231, 232],
      "LargestImagePixelValue": [2714, 2673, 2668, 2661, 2680, 2670, 2633, 2618, 2714, 2638, 2754, 2701, 2709, 2684, 2706, 2723, 2612, 2635, 2640, 2621, 2745, 2726, 2633, 2626, 2647, 2630, 2641, 2631, 2641, 2583, 2597, 2619, 2657, 2643, 2566, 2576, 2603, 2599, 2604, 2570, 2589, 2598, 2546, 2566, 2589, 2539, 2564, 2542, 2571, 2621, 2639, 2563, 2661, 2687, 2649, 2546, 2625, 2530, 2514, 2507, 2532, 2604, 2517, 2481, 2464, 2608, 2518, 2501, 2447, 2635, 2567, 2578, 2570, 2547, 2562, 2566, 2588, 2612, 2592, 2571, 2592, 2574, 2550, 2631, 2655, 2684, 2639, 2634, 2631, 2654, 2637, 2584, 2577, 2637, 2662, 2659, 2674, 2570, 2601, 2578, 2678, 2554, 2611, 2534, 2541, 2546, 2498, 2606, 2606, 2522, 2491, 2525, 2660, 2529, 2481, 2487, 2542, 2497, 2530, 2529, 2570, 2581, 2564, 2669, 2664, 2567, 2612, 2593, 2607, 2621, 2686, 2671, 2750, 2683, 2742, 2643, 2676, 2673, 2609, 2510, 2507, 2495, 2515, 2526, 2583, 2556, 2596, 2584, 2543, 2577, 2602, 2612, 2636, 2625, 2675, 2748, 2642, 2667, 2677, 2641, 2674, 2694, 2605, 2630, 2617, 2625, 2590, 2582, 2592, 2610, 2584, 2593, 2601, 2591, 2601, 2573, 2588, 2617, 2591, 2570, 2612, 2605, 2581, 2608, 2651, 2648, 2616, 2657, 2612, 2631, 2658, 2626, 2597, 2670, 2689, 2699, 2674, 2694, 2669, 2661, 2636, 2659, 2597, 2619, 2740, 2688, 2559, 2671, 2719, 2626, 2569, 2606, 2591, 2583, 2675, 2605, 2602, 2676, 2706, 2638, 2640, 2639, 2624, 2585, 2544, 2578, 2603, 2620, 2581, 2542, 2582, 2549],
      "WindowCenter": [723.0, 722.0, 722.0, 724.0, 725.0, 723.0, 721.0, 720.0, 722.0, 723.0, 726.0, 724.0, 723.0, 722.0, 724.0, 725.0, 723.0, 723.0, 723.0, 724.0, 725.0, 724.0, 722.0, 720.0, 719.0, 720.0, 721.0, 721.0, 719.0, 718.0, 719.0, 721.0, 722.0, 721.0, 720.0, 720.0, 719.0, 721.0, 721.0, 721.0, 721.0, 724.0, 722.0, 721.0, 721.0, 720.0, 720.0, 719.0, 721.0, 723.0, 722.0, 721.0, 721.0, 720.0, 720.0, 720.0, 722.0, 721.0, 721.0, 719.0, 719.0, 720.0, 720.0, 720.0, 718.0, 719.0, 720.0, 721.0, 720.0, 720.0, 718.0, 719.0, 720.0, 720.0, 720.0, 721.0, 721.0, 720.0, 719.0, 720.0, 722.0, 722.0, 722.0, 721.0, 722.0, 723.0, 722.0, 721.0, 722.0, 724.0, 724.0, 721.0, 720.0, 721.0, 722.0, 722.0, 722.0, 720.0, 719.0, 719.0, 720.0, 718.0, 721.0, 720.0, 721.0, 720.0, 719.0, 721.0, 722.0, 722.0, 721.0, 719.0, 721.0, 722.0, 722.0, 721.0, 720.0, 719.0, 720.0, 720.0, 720.0, 719.0, 719.0, 722.0, 723.0, 721.0, 721.0, 720.0, 719.0, 720.0, 720.0, 721.0, 721.0, 720.0, 723.0, 722.0, 723.0, 723.0, 723.0, 723.0, 724.0, 722.0, 719.0, 717.0, 719.0, 720.0, 719.0, 718.0, 718.0, 719.0, 721.0, 721.0, 723.0, 724.0, 727.0, 727.0, 723.0, 721.0, 721.0, 720.0, 721.0, 723.0, 723.0, 724.0, 722.0, 721.0, 721.0, 722.0, 722.0, 722.0, 721.0, 721.0, 723.0, 724.0, 724.0, 723.0, 723.0, 725.0, 724.0, 722.0, 722.0, 722.0, 722.0, 722.0, 722.0, 724.0, 722.0, 722.0, 721.0, 721.0, 722.0, 722.0, 722.0, 723.0, 721.0, 720.0, 720.0, 720.0, 720.0, 721.0, 721.0, 724.0, 723.0, 722.0, 722.0, 722.0, 722.0, 723.0, 722.0, 722.0, 722.0, 722.0, 721.0, 720.0, 721.0, 721.0, 722.0, 721.0, 720.0, 718.0, 718.0, 719.0, 720.0, 720.0, 720.0, 722.0, 724.0, 723.0, 721.0, 721.0, 722.0, 722.0],
      "WindowWidth": [1559.0, 1558.0, 1557.0, 1562.0, 1564.0, 1559.0, 1555.0, 1552.0, 1556.0, 1559.0, 1568.0, 1563.0, 1559.0, 1556.0, 1562.0, 1565.0, 1559.0, 1558.0, 1560.0, 1562.0, 1566.0, 1563.0, 1556.0, 1551.0, 1550.0, 1552.0, 1555.0, 1554.0, 1550.0, 1547.0, 1549.0, 1554.0, 1556.0, 1555.0, 1553.0, 1551.0, 1549.0, 1554.0, 1556.0, 1556.0, 1556.0, 1563.0, 1557.0, 1554.0, 1554.0, 1552.0, 1553.0, 1551.0, 1555.0, 1560.0, 1559.0, 1555.0, 1555.0, 1553.0, 1553.0, 1553.0, 1557.0, 1554.0, 1553.0, 1550.0, 1548.0, 1551.0, 1553.0, 1552.0, 1548.0, 1550.0, 1551.0, 1554.0, 1551.0, 1551.0, 1547.0, 1549.0, 1551.0, 1551.0, 1553.0, 1553.0, 1554.0, 1552.0, 1550.0, 1551.0, 1557.0, 1559.0, 1557.0, 1556.0, 1558.0, 1561.0, 1558.0, 1556.0, 1558.0, 1563.0, 1562.0, 1555.0, 1552.0, 1555.0, 1557.0, 1557.0, 1557.0, 1552.0, 1550.0, 1548.0, 1550.0, 1547.0, 1553.0, 1552.0, 1555.0, 1552.0, 1550.0, 1556.0, 1558.0, 1557.0, 1553.0, 1549.0, 1553.0, 1557.0, 1559.0, 1556.0, 1552.0, 1549.0, 1551.0, 1551.0, 1550.0, 1548.0, 1549.0, 1557.0, 1560.0, 1555.0, 1554.0, 1552.0, 1549.0, 1550.0, 1552.0, 1552.0, 1554.0, 1552.0, 1558.0, 1557.0, 1558.0, 1559.0, 1559.0, 1560.0, 1562.0, 1557.0, 1549.0, 1544.0, 1549.0, 1551.0, 1549.0, 1545.0, 1546.0, 1549.0, 1553.0, 1555.0, 1559.0, 1564.0, 1570.0, 1569.0, 1560.0, 1555.0, 1554.0, 1552.0, 1555.0, 1561.0, 1561.0, 1563.0, 1558.0, 1554.0, 1555.0, 1557.0, 1557.0, 1557.0, 1554.0, 1554.0, 1560.0, 1563.0, 1561.0, 1560.0, 1561.0, 1564.0, 1564.0, 1558.0, 1556.0, 1557.0, 1558.0, 1557.0, 1557.0, 1562.0, 1558.0, 1557.0, 1554.0, 1554.0, 1558.0, 1557.0, 1556.0, 1559.0, 1554.0, 1552.0, 1551.0, 1553.0, 1552.0, 1553.0, 1555.0, 1561.0, 1561.0, 1557.0, 1556.0, 1556.0, 1557.0, 1558.0, 1558.0, 1557.0, 1557.0, 1558.0, 1555.0, 1551.0, 1553.0, 1556.0, 1556.0, 1554.0, 1552.0, 1546.0, 1545.0, 1548.0, 1551.0, 1552.0, 1553.0, 1557.0, 1562.0, 1560.0, 1555.0, 1553.0, 1556.0, 1558.0]
    },
    "slices": {}
  }
}