{
  "AcquisitionMatrixPE": 100,
  "AcquisitionNumber": 1,
  "AcquisitionTime": "12:03:57.892500",
  "BandwidthPerPixelPhaseEncode": 18.519,
  "BaseResolution": 100,
  "BodyPartExamined": "BRAIN",
  "ConsistencyInfo": "N4_VE11C_LATEST_20160120",
  "ConversionSoftware": "dcm2niix",
  "ConversionSoftwareVersion": "v1.0.20180622 GCC4.9.2",
  "DerivedVendorReportedEchoSpacing": 0.000539986,
  "DeviceSerialNumber": "166078",
  "DwellTime": 2.1e-06,
  "EchoTime": 0.034,
  "EchoTrainLength": 100,
  "EffectiveEchoSpacing": 0.000539986,
  "FlipAngle": 90,
  "ImageOrientationPatientDICOM": [0.996696, 0.0468745, -0.0663325, -0.0539791, 0.992496, -0.109719],
  "ImageType": [
    "ORIGINAL",
    "PRIMARY",
    "M",
    "ND",
    "MOSAIC"
],
  "InPlanePhaseEncodingDirectionDICOM": "COL",
  "InstitutionAddress": "Street_StreetNo_Bei_Jing_District_CN_ZIP",
  "InstitutionName": "BeiJing_Normal_University",
  "InstitutionalDepartmentName": "Department",
  "MRAcquisitionType": "2D",
  "MagneticFieldStrength": 3,
  "Manufacturer": "Siemens",
  "ManufacturersModelName": "Prisma",
  "Modality": "MR",
  "MultibandAccelerationFactor": 3,
  "PartialFourier": 1,
  "PatientPosition": "HFS",
  "PercentPhaseFOV": 100,
  "PhaseEncodingDirection": "j-",
  "PhaseEncodingSteps": 100,
  "PhaseResolution": 1,
  "PixelBandwidth": 2380,
  "ProcedureStepDescription": "BNU_P2018_64CH_Liu.Jia",
  "ProtocolName": "bold_100x100_s3_2x2x2_232",
  "PulseSequenceDetails": "%SiemensSeq%_ep2d_bold",
  "ReceiveCoilActiveElements": "HC1-7;NC1",
  "ReceiveCoilName": "HeadNeck_64",
  "ReconMatrixPE": 100,
  "RepetitionTime": 2,
  "SAR": 0.0741035,
  "ScanOptions": "FS",
  "ScanningSequence": "EP",
  "SequenceName": "_epfid2d1_100",
  "SequenceVariant": "SK",
  "SeriesDescription": "bold_100x100_s3_2x2x2_232",
  "SeriesNumber": 5,
  "ShimSetting": [-5498, -11526, -1254, 473, -18, -151, -81, -28],
  "SliceThickness": 2,
  "SliceTiming": [1.485, 0, 0.99, 0.0825, 1.0725, 0.165, 1.155, 0.2475, 1.2375, 0.33, 1.32, 0.4125, 1.4025, 0.5775, 1.5675, 0.66, 1.65, 0.7425, 1.7325, 0.825, 1.815, 0.9075, 1.8975, 0.495, 1.485, 0, 0.99, 0.0825, 1.0725, 0.165, 1.155, 0.2475, 1.2375, 0.33, 1.32, 0.4125, 1.4025, 0.5775, 1.5675, 0.66, 1.65, 0.7425, 1.7325, 0.825, 1.815, 0.9075, 1.8975, 0.495, 1.485, 0, 0.99, 0.0825, 1.0725, 0.165, 1.155, 0.2475, 1.2375, 0.33, 1.32, 0.4125, 1.4025, 0.5775, 1.5675, 0.66, 1.65, 0.7425, 1.7325, 0.825, 1.815, 0.9075, 1.8975, 0.495],
  "SoftwareVersions": "syngo_MR_E11",
  "SpacingBetweenSlices": 2,
  "StationName": "AWP166078",
  "TaskName": "motor",
  "TotalReadoutTime": 0.0534586,
  "TxRefAmp": 219.324,
  "dcmmeta_affine": [
    [-1.9933918714523315, -0.10795816779136658, -0.12138346582651138, 108.14205169677734],
    [-0.09374906867742538, 1.9849916696548462, -0.22587449848651886, -81.34037780761719],
    [-0.13266508281230927, 0.21943840384483337, 1.9834935665130615, -68.9841079711914],
    [0.0, 0.0, 0.0, 1.0]
],
  "dcmmeta_reorient_transform": [
    [0.0, -1.0, 0.0, 99.0],
    [1.0, 0.0, 0.0, 0.0],
    [0.0, 0.0, 1.0, 0.0],
    [0.0, 0.0, 0.0, 1.0]
],
  "dcmmeta_shape": [100, 100, 72, 232],
  "dcmmeta_slice_dim": 2,
  "dcmmeta_version": 0.6,
  "global": {
    "const": {
      "AcquisitionMatrix": [100, 0, 0, 100],
      "AngioFlag": "N",
      "BitsAllocated": 16,
      "BitsStored": 12,
      "BodyPartExamined": "BRAIN",
      "Columns": 900,
      "EchoNumbers": 1,
      "EchoTime": 34.0,
      "EchoTrainLength": 100,
      "FlipAngle": 90.0,
      "HighBit": 11,
      "ImageOrientationPatient": [0.99669592756879, 0.04687453277164, -0.0663325421285, -0.053979082344, 0.99249582124458, -0.1097192028833],
      "ImagePositionPatient": [-851.62767012458, -946.67007780039, 93.581687087744],
      "ImageType": [
        "ORIGINAL",
        "PRIMARY",
        "M",
        "ND",
        "MOSAIC"
],
      "ImagedNucleus": "1H",
      "ImagingFrequency": 123.257818,
      "InPlanePhaseEncodingDirection": "COL",
      "MRAcquisitionType": "2D",
      "MagneticFieldStrength": 3.0,
      "Manufacturer": "SIEMENS",
      "ManufacturerModelName": "Prisma",
      "Modality": "MR",
      "NumberOfAverages": 1.0,
      "NumberOfPhaseEncodingSteps": 100,
      "PercentPhaseFieldOfView": 100.0,
      "PercentSampling": 100.0,
      "PerformedProcedureStepStartTime": "113657.749000",
      "PhotometricInterpretation": "MONOCHROME2",
      "PixelBandwidth": 2380.0,
      "PixelRepresentation": 0,
      "PixelSpacing": [2.0, 2.0],
      "ProtocolName": "bold_100x100_s3_2x2x2_232",
      "RepetitionTime": 2000.0,
      "Rows": 900,
      "SAR": 0.07410345233941,
      "SamplesPerPixel": 1,
      "ScanOptions": "FS",
      "ScanningSequence": "EP",
      "SequenceName": "*epfid2d1_100",
      "SequenceVariant": "SK",
      "SeriesDescription": "bold_100x100_s3_2x2x2_232",
      "SeriesNumber": 5,
      "SeriesTime": "120359.929000",
      "SliceLocation": -65.791740477221,
      "SliceThickness": 2.0,
      "SmallestImagePixelValue": 0,
      "SoftwareVersions": "syngo MR E11",
      "SpacingBetweenSlices": 1.9999999622644,
      "SpecificCharacterSet": "ISO_IR 100",
      "StudyID": "1",
      "StudyTime": "113657.661000",
      "TransmitCoilName": "Body",
      "VariableFlipAngleFlag": "N",
      "WindowCenterWidthExplanation": "Algo1",
      "dBdt": 0.0},
    "slices": {}
  },
  "time": {
    "samples": {
      "AcquisitionNumber": [1, 2, 3, 4, 5, 6, 7, 8, 9, 10, 11, 12, 13, 14, 15, 16, 17, 18, 19, 20, 21, 22, 23, 24, 25, 26, 27, 28, 29, 30, 31, 32, 33, 34, 35, 36, 37, 38, 39, 40, 41, 42, 43, 44, 45, 46, 47, 48, 49, 50, 51, 52, 53, 54, 55, 56, 57, 58, 59, 60, 61, 62, 63, 64, 65, 66, 67, 68, 69, 70, 71, 72, 73, 74, 75, 76, 77, 78, 79, 80, 81, 82, 83, 84, 85, 86, 87, 88, 89, 90, 91, 92, 93, 94, 95, 96, 97, 98, 99, 100, 101, 102, 103, 104, 105, 106, 107, 108, 109, 110, 111, 112, 113, 114, 115, 116, 117, 118, 119, 120, 121, 122, 123, 124, 125, 126, 127, 128, 129, 130, 131, 132, 133, 134, 135, 136, 137, 138, 139, 140, 141, 142, 143, 144, 145, 146, 147, 148, 149, 150, 151, 152, 153, 154, 155, 156, 157, 158, 159, 160, 161, 162, 163, 164, 165, 166, 167, 168, 169, 170, 171, 172, 173, 174, 175, 176, 177, 178, 179, 180, 181, 182, 183, 184, 185, 186, 187, 188, 189, 190, 191, 192, 193, 194, 195, 196, 197, 198, 199, 200, 201, 202, 203, 204, 205, 206, 207, 208, 209, 210, 211, 212, 213, 214, 215, 216, 217, 218, 219, 220, 221, 222, 223, 224, 225, 226, 227, 228, 229, 230, 231, 232],
      "AcquisitionTime": ["120357.892500", "120359.892500", "120401.892500", "120403.892500", "120405.892500", "120407.892500", "120409.892500", "120411.892500", "120413.892500", "120415.892500", "120417.892500", "120419.892500", "120421.892500", "120423.892500", "120425.892500", "120427.892500", "120429.892500", "120431.892500", "120433.892500", "120435.892500", "120437.892500", "120439.892500", "120441.892500", "120443.892500", "120445.892500", "120447.892500", "120449.892500", "120451.892500", "120453.892500", "120455.892500", "120457.892500", "120459.892500", "120501.892500", "120503.892500", "120505.892500", "120507.892500", "120509.892500", "120511.892500", "120513.892500", "120515.892500", "120517.892500", "120519.892500", "120521.892500", "120523.892500", "120525.892500", "120527.892500", "120529.892500", "120531.892500", "120533.892500", "120535.892500", "120537.892500", "120539.892500", "120541.892500", "120543.892500", "120545.892500", "120547.892500", "120549.892500", "120551.892500", "120553.892500", "120555.892500", "120557.892500", "120559.892500", "120601.892500", "120603.892500", "120605.892500", "120607.892500", "120609.892500", "120611.892500", "120613.892500", "120615.892500", "120617.892500", "120619.892500", "120621.892500", "120623.892500", "120625.892500", "120627.892500", "120629.892500", "120631.892500", "120633.892500", "120635.892500", "120637.892500", "120639.892500", "120641.892500", "120643.892500", "120645.892500", "120647.892500", "120649.892500", "120651.892500", "120653.892500", "120655.892500", "120657.892500", "120659.892500", "120701.892500", "120703.892500", "120705.892500", "120707.892500", "120709.892500", "120711.892500", "120713.892500", "120715.892500", "120717.892500", "120719.892500", "120721.892500", "120723.892500", "120725.892500", "120727.892500", "120729.892500", "120731.892500", "120733.892500", "120735.892500", "120737.892500", "120739.892500", "120741.892500", "120743.892500", "120745.892500", "120747.892500", "120749.892500", "120751.892500", "120753.892500", "120755.892500", "120757.892500", "120759.892500", "120801.892500", "120803.892500", "120805.892500", "120807.892500", "120809.892500", "120811.892500", "120813.892500", "120815.892500", "120817.892500", "120819.892500", "120821.892500", "120823.892500", "120825.892500", "120827.892500", "120829.892500", "120831.892500", "120833.892500", "120835.892500", "120837.892500", "120839.892500", "120841.892500", "120843.892500", "120845.892500", "120847.892500", "120849.892500", "120851.892500", "120853.892500", "120855.892500", "120857.892500", "120859.892500", "120901.892500", "120903.892500", "120905.892500", "120907.892500", "120909.892500", "120911.892500", "120913.892500", "120915.892500", "120917.892500", "120919.892500", "120921.892500", "120923.892500", "120925.892500", "120927.892500", "120929.892500", "120931.892500", "120933.892500", "120935.892500", "120937.892500", "120939.892500", "120941.892500", "120943.892500", "120945.892500", "120947.892500", "120949.892500", "120951.892500", "120953.892500", "120955.892500", "120957.892500", "120959.892500", "121001.892500", "121003.892500", "121005.892500", "121007.892500", "121009.892500", "121011.892500", "121013.892500", "121015.892500", "121017.892500", "121019.892500", "121021.892500", "121023.892500", "121025.892500", "121027.892500", "121029.892500", "121031.892500", "121033.892500", "121035.892500", "121037.892500", "121039.892500", "121041.892500", "121043.892500", "121045.892500", "121047.892500", "121049.892500", "121051.892500", "121053.892500", "121055.892500", "121057.892500", "121059.892500", "121101.892500", "121103.892500", "121105.892500", "121107.892500", "121109.892500", "121111.892500", "121113.892500", "121115.892500", "121117.892500", "121119.892500", "121121.892500", "121123.892500", "121125.892500", "121127.892500", "121129.892500", "121131.892500", "121133.892500", "121135.892500", "121137.892500", "121139.892500"],
      "ContentTime": ["120359.933000", "120401.428000", "120403.428000", "120405.428000", "120407.428000", "120409.429000", "120411.428000", "120413.428000", "120415.428000", "120417.428000", "120419.428000", "120421.428000", "120423.428000", "120425.428000", "120427.428000", "120429.428000", "120431.429000", "120433.428000", "120435.428000", "120437.428000", "120439.428000", "120441.428000", "120443.428000", "120445.428000", "120447.428000", "120449.428000", "120451.428000", "120453.428000", "120455.429000", "120457.429000", "120459.429000", "120501.428000", "120503.428000", "120505.428000", "120507.428000", "120509.428000", "120511.428000", "120513.428000", "120515.428000", "120517.428000", "120519.428000", "120521.428000", "120523.429000", "120525.429000", "120527.428000", "120529.428000", "120531.428000", "120533.428000", "120535.428000", "120537.428000", "120539.428000", "120541.428000", "120543.428000", "120545.429000", "120547.428000", "120549.428000", "120551.428000", "120553.428000", "120555.429000", "120557.428000", "120559.428000", "120601.428000", "120603.428000", "120605.449000", "120607.428000", "120609.429000", "120611.428000", "120613.429000", "120615.428000", "120617.428000", "120619.428000", "120621.428000", "120623.428000", "120625.428000", "120627.429000", "120629.429000", "120631.428000", "120633.429000", "120635.428000", "120637.429000", "120639.428000", "120641.428000", "120643.428000", "120645.428000", "120647.428000", "120649.428000", "120651.428000", "120653.429000", "120655.429000", "120657.428000", "120659.429000", "120701.428000", "120703.429000", "120705.428000", "120707.428000", "120709.429000", "120711.428000", "120713.428000", "120715.428000", "120717.428000", "120719.428000", "120721.429000", "120723.428000", "120725.428000", "120727.428000", "120729.428000", "120731.428000", "120733.428000", "120735.429000", "120737.428000", "120739.428000", "120741.429000", "120743.428000", "120745.429000", "120747.428000", "120749.428000", "120751.428000", "120753.428000", "120755.428000", "120757.428000", "120759.428000", "120801.429000", "120803.429000", "120805.428000", "120807.428000", "120809.429000", "120811.428000", "120813.428000", "120815.429000", "120817.428000", "120819.428000", "120821.428000", "120823.428000", "120825.428000", "120827.429000", "120829.428000", "120831.428000", "120833.428000", "120835.428000", "120837.429000", "120839.428000", "120841.428000", "120843.429000", "120845.428000", "120847.428000", "120849.428000", "120851.428000", "120853.428000", "120855.428000", "120857.428000", "120859.428000", "120901.429000", "120903.428000", "120905.428000", "120907.428000", "120909.428000", "120911.429000", "120913.429000", "120915.428000", "120917.428000", "120919.428000", "120921.428000", "120923.429000", "120925.429000", "120927.429000", "120929.429000", "120931.429000", "120933.429000", "120935.429000", "120937.428000", "120939.428000", "120941.428000", "120943.428000", "120945.428000", "120947.428000", "120949.428000", "120951.428000", "120953.428000", "120955.428000", "120957.429000", "120959.428000", "121001.429000", "121003.429000", "121005.428000", "121007.428000", "121009.428000", "121011.428000", "121013.428000", "121015.429000", "121017.429000", "121019.428000", "121021.428000", "121023.428000", "121025.428000", "121027.429000", "121029.428000", "121031.428000", "121033.428000", "121035.428000", "121037.428000", "121039.428000", "121041.428000", "121043.428000", "121045.428000", "121047.428000", "121049.428000", "121051.428000", "121053.429000", "121055.429000", "121057.441000", "121059.428000", "121101.428000", "121103.428000", "121105.428000", "121107.429000", "121109.429000", "121111.428000", "121113.428000", "121115.429000", "121117.428000", "121119.429000", "121121.428000", "121123.428000", "121125.429000", "121127.429000", "121129.429000", "121131.429000", "121133.429000", "121135.428000", "121137.429000", "121139.428000", "121141.283000"],
      "InstanceCreationTime": ["120359.933000", "120401.428000", "120403.428000", "120405.428000", "120407.428000", "120409.429000", "120411.428000", "120413.428000", "120415.428000", "120417.428000", "120419.428000", "120421.428000", "120423.428000", "120425.428000", "120427.428000", "120429.428000", "120431.429000", "120433.428000", "120435.428000", "120437.428000", "120439.428000", "120441.428000", "120443.428000", "120445.428000", "120447.428000", "120449.428000", "120451.428000", "120453.428000", "120455.429000", "120457.429000", "120459.429000", "120501.428000", "120503.428000", "120505.428000", "120507.428000", "120509.428000", "120511.428000", "120513.428000", "120515.428000", "120517.428000", "120519.428000", "120521.428000", "120523.429000", "120525.429000", "120527.428000", "120529.428000", "120531.428000", "120533.428000", "120535.428000", "120537.428000", "120539.428000", "120541.428000", "120543.428000", "120545.429000", "120547.428000", "120549.428000", "120551.428000", "120553.428000", "120555.429000", "120557.428000", "120559.428000", "120601.428000", "120603.428000", "120605.449000", "120607.428000", "120609.429000", "120611.428000", "120613.429000", "120615.428000", "120617.428000", "120619.428000", "120621.428000", "120623.428000", "120625.428000", "120627.429000", "120629.429000", "120631.428000", "120633.429000", "120635.428000", "120637.429000", "120639.428000", "120641.428000", "120643.428000", "120645.428000", "120647.428000", "120649.428000", "120651.428000", "120653.429000", "120655.429000", "120657.428000", "120659.429000", "120701.428000", "120703.429000", "120705.428000", "120707.428000", "120709.429000", "120711.428000", "120713.428000", "120715.428000", "120717.428000", "120719.428000", "120721.429000", "120723.428000", "120725.428000", "120727.428000", "120729.428000", "120731.428000", "120733.428000", "120735.429000", "120737.428000", "120739.428000", "120741.429000", "120743.428000", "120745.429000", "120747.428000", "120749.428000", "120751.428000", "120753.428000", "120755.428000", "120757.428000", "120759.428000", "120801.429000", "120803.429000", "120805.428000", "120807.428000", "120809.429000", "120811.428000", "120813.428000", "120815.429000", "120817.428000", "120819.428000", "120821.428000", "120823.428000", "120825.428000", "120827.429000", "120829.428000", "120831.428000", "120833.428000", "120835.428000", "120837.429000", "120839.428000", "120841.428000", "120843.429000", "120845.428000", "120847.428000", "120849.428000", "120851.428000", "120853.428000", "120855.428000", "120857.428000", "120859.428000", "120901.429000", "120903.428000", "120905.428000", "120907.428000", "120909.428000", "120911.429000", "120913.429000", "120915.428000", "120917.428000", "120919.428000", "120921.428000", "120923.429000", "120925.429000", "120927.429000", "120929.429000", "120931.429000", "120933.429000", "120935.429000", "120937.428000", "120939.428000", "120941.428000", "120943.428000", "120945.428000", "120947.428000", "120949.428000", "120951.428000", "120953.428000", "120955.428000", "120957.429000", "120959.428000", "121001.429000", "121003.429000", "121005.428000", "121007.428000", "121009.428000", "121011.428000", "121013.428000", "121015.429000", "121017.429000", "121019.428000", "121021.428000", "121023.428000", "121025.428000", "121027.429000", "121029.428000", "121031.428000", "121033.428000", "121035.428000", "121037.428000", "121039.428000", "121041.428000", "121043.428000", "121045.428000", "121047.428000", "121049.428000", "121051.428000", "121053.429000", "121055.429000", "121057.441000", "121059.428000", "121101.428000", "121103.428000", "121105.428000", "121107.429000", "121109.429000", "121111.428000", "121113.428000", "121115.429000", "121117.428000", "121119.429000", "121121.428000", "121123.428000", "121125.429000", "121127.429000", "121129.429000", "121131.429000", "121133.429000", "121135.428000", "121137.429000", "121139.428000", "121141.283000"],
      "InstanceNumber": [1, 2, 3, 4, 5, 6, 7, 8, 9, 10, 11, 12, 13, 14, 15, 16, 17, 18, 19, 20, 21, 22, 23, 24, 25, 26, 27, 28, 29, 30, 31, 32, 33, 34, 35, 36, 37, 38, 39, 40, 41, 42, 43, 44, 45, 46, 47, 48, 49, 50, 51, 52, 53, 54, 55, 56, 57, 58, 59, 60, 61, 62, 63, 64, 65, 66, 67, 68, 69, 70, 71, 72, 73, 74, 75, 76, 77, 78, 79, 80, 81, 82, 83, 84, 85, 86, 87, 88, 89, 90, 91, 92, 93, 94, 95, 96, 97, 98, 99, 100, 101, 102, 103, 104, 105, 106, 107, 108, 109, 110, 111, 112, 113, 114, 115, 116, 117, 118, 119, 120, 121, 122, 123, 124, 125, 126, 127, 128, 129, 130, 131, 132, 133, 134, 135, 136, 137, 138, 139, 140, 141, 142, 143, 144, 145, 146, 147, 148, 149, 150, 151, 152, 153, 154, 155, 156, 157, 158, 159, 160, 161, 162, 163, 164, 165, 166, 167, 168, 169, 170, 171, 172, 173, 174, 175, 176, 177, 178, 179, 180, 181, 182, 183, 184, 185, 186, 187, 188, 189, 190, 191, 192, 193, 194, 195, 196, 197, 198, 199, 200, 201, 202, 203, 204, 205, 206, 207, 208, 209, 210, 211, 212, 213, 214, 215, 216, 217, 218, 219, 220, 221, 222, 223, 224, 225, 226, 227, 228, 229, 230, 231, 232],
      "LargestImagePixelValue": [2617, 2595, 2566, 2573, 2603, 2603, 2588, 2565, 2581, 2565, 2602, 2635, 2628, 2631, 2621, 2592, 2587, 2629, 2639, 2634, 2615, 2620, 2589, 2589, 2584, 2615, 2612, 2631, 2601, 2607, 2573, 2604, 2604, 2581, 2582, 2584, 2559, 2574, 2591, 2582, 2443, 2613, 2563, 2580, 2588, 2599, 2562, 2551, 2533, 2516, 2505, 2506, 2532, 2525, 2577, 2595, 2585, 2576, 2581, 2534, 2583, 2567, 2537, 2551, 2543, 2579, 2556, 2557, 2526, 2513, 2487, 2529, 2487, 2519, 2625, 2603, 2568, 2511, 2505, 2491, 2542, 2545, 2570, 2498, 2551, 2498, 2558, 2530, 2570, 2497, 2565, 2569, 2481, 2460, 2499, 2517, 2570, 2508, 2528, 2565, 2538, 2530, 2537, 2557, 2513, 2498, 2532, 2562, 2559, 2540, 2558, 2553, 2536, 2507, 2515, 2618, 2566, 2541, 2551, 2548, 2586, 2570, 2578, 2585, 2573, 2545, 2617, 2581, 2540, 2504, 2564, 2544, 2563, 2561, 2492, 2526, 2515, 2568, 2540, 2622, 2575, 2547, 2633, 2541, 2605, 2613, 2608, 2562, 2521, 2446, 2486, 2442, 2522, 2515, 2543, 2504, 2508, 2547, 2512, 2510, 2536, 2529, 2542, 2511, 2514, 2534, 2546, 2550, 2540, 2561, 2527, 2522, 2544, 2558, 2546, 2520, 2530, 2558, 2573, 2595, 2557, 2586, 2589, 2531, 2528, 2523, 2555, 2549, 2519, 2530, 2546, 2500, 2496, 2519, 2497, 2498, 2536, 2533, 2510, 2483, 2531, 2543, 2495, 2502, 2490, 2561, 2553, 2544, 2527, 2548, 2570, 2563, 2589, 2590, 2573, 2529, 2548, 2531, 2593, 2581, 2573, 2576, 2662, 2617, 2599, 2596, 2567, 2548, 2600, 2594, 2570, 2564],
      "WindowCenter": [721.0, 720.0, 720.0, 719.0, 720.0, 719.0, 718.0, 718.0, 718.0, 719.0, 719.0, 719.0, 717.0, 718.0, 721.0, 722.0, 720.0, 721.0, 721.0, 720.0, 720.0, 719.0, 720.0, 720.0, 719.0, 719.0, 719.0, 719.0, 718.0, 718.0, 719.0, 721.0, 720.0, 719.0, 718.0, 718.0, 716.0, 718.0, 720.0, 720.0, 716.0, 722.0, 721.0, 720.0, 719.0, 718.0, 718.0, 717.0, 717.0, 718.0, 719.0, 718.0, 717.0, 717.0, 718.0, 719.0, 719.0, 719.0, 719.0, 717.0, 717.0, 717.0, 717.0, 718.0, 718.0, 719.0, 718.0, 717.0, 715.0, 716.0, 717.0, 718.0, 717.0, 720.0, 723.0, 722.0, 719.0, 717.0, 716.0, 717.0, 717.0, 718.0, 720.0, 719.0, 718.0, 714.0, 716.0, 716.0, 718.0, 717.0, 717.0, 717.0, 716.0, 717.0, 717.0, 718.0, 719.0, 716.0, 719.0, 716.0, 715.0, 716.0, 717.0, 717.0, 716.0, 716.0, 718.0, 718.0, 717.0, 717.0, 716.0, 716.0, 716.0, 717.0, 717.0, 717.0, 717.0, 717.0, 717.0, 716.0, 716.0, 717.0, 718.0, 717.0, 716.0, 716.0, 718.0, 718.0, 717.0, 717.0, 718.0, 716.0, 716.0, 716.0, 717.0, 717.0, 719.0, 720.0, 719.0, 718.0, 717.0, 719.0, 721.0, 718.0, 717.0, 717.0, 716.0, 713.0, 712.0, 711.0, 713.0, 713.0, 713.0, 712.0, 713.0, 712.0, 711.0, 712.0, 714.0, 715.0, 715.0, 715.0, 716.0, 717.0, 717.0, 717.0, 718.0, 718.0, 717.0, 718.0, 718.0, 718.0, 715.0, 715.0, 717.0, 718.0, 716.0, 715.0, 715.0, 714.0, 713.0, 715.0, 716.0, 715.0, 715.0, 716.0, 716.0, 715.0, 715.0, 716.0, 716.0, 716.0, 716.0, 717.0, 716.0, 715.0, 714.0, 715.0, 718.0, 717.0, 717.0, 719.0, 720.0, 719.0, 719.0, 718.0, 718.0, 719.0, 718.0, 718.0, 718.0, 717.0, 717.0, 717.0, 717.0, 718.0, 717.0, 717.0, 717.0, 715.0, 716.0, 718.0, 720.0, 718.0, 717.0, 719.0, 720.0, 720.0, 720.0, 721.0, 720.0, 719.0],
      "WindowWidth": [1553.0, 1553.0, 1550.0, 1549.0, 1551.0, 1548.0, 1547.0, 1546.0, 1547.0, 1549.0, 1550.0, 1549.0, 1545.0, 1547.0, 1556.0, 1558.0, 1553.0, 1554.0, 1554.0, 1553.0, 1551.0, 1550.0, 1552.0, 1552.0, 1548.0, 1548.0, 1550.0, 1550.0, 1547.0, 1548.0, 1550.0, 1554.0, 1552.0, 1550.0, 1547.0, 1546.0, 1542.0, 1547.0, 1551.0, 1551.0, 1543.0, 1556.0, 1555.0, 1551.0, 1549.0, 1547.0, 1545.0, 1544.0, 1543.0, 1548.0, 1549.0, 1546.0, 1544.0, 1543.0, 1547.0, 1548.0, 1548.0, 1550.0, 1548.0, 1544.0, 1544.0, 1544.0, 1544.0, 1546.0, 1547.0, 1548.0, 1546.0, 1542.0, 1538.0, 1541.0, 1544.0, 1546.0, 1544.0, 1551.0, 1560.0, 1556.0, 1548.0, 1544.0, 1542.0, 1543.0, 1543.0, 1547.0, 1552.0, 1550.0, 1546.0, 1537.0, 1540.0, 1541.0, 1545.0, 1544.0, 1545.0, 1543.0, 1542.0, 1544.0, 1545.0, 1545.0, 1548.0, 1542.0, 1549.0, 1541.0, 1537.0, 1540.0, 1544.0, 1544.0, 1541.0, 1542.0, 1545.0, 1546.0, 1545.0, 1543.0, 1542.0, 1540.0, 1542.0, 1544.0, 1544.0, 1544.0, 1544.0, 1544.0, 1543.0, 1540.0, 1541.0, 1543.0, 1547.0, 1545.0, 1541.0, 1541.0, 1547.0, 1546.0, 1543.0, 1544.0, 1545.0, 1541.0, 1541.0, 1540.0, 1543.0, 1544.0, 1549.0, 1553.0, 1550.0, 1546.0, 1544.0, 1549.0, 1554.0, 1546.0, 1543.0, 1545.0, 1541.0, 1534.0, 1531.0, 1528.0, 1533.0, 1532.0, 1532.0, 1531.0, 1532.0, 1530.0, 1528.0, 1531.0, 1535.0, 1538.0, 1540.0, 1538.0, 1541.0, 1543.0, 1543.0, 1545.0, 1548.0, 1547.0, 1544.0, 1546.0, 1548.0, 1545.0, 1539.0, 1538.0, 1543.0, 1546.0, 1542.0, 1538.0, 1537.0, 1537.0, 1534.0, 1537.0, 1541.0, 1539.0, 1538.0, 1540.0, 1542.0, 1539.0, 1539.0, 1539.0, 1540.0, 1540.0, 1540.0, 1543.0, 1541.0, 1538.0, 1536.0, 1539.0, 1546.0, 1544.0, 1542.0, 1548.0, 1551.0, 1550.0, 1549.0, 1547.0, 1546.0, 1549.0, 1547.0, 1547.0, 1547.0, 1545.0, 1543.0, 1542.0, 1544.0, 1545.0, 1544.0, 1545.0, 1543.0, 1540.0, 1541.0, 1547.0, 1552.0, 1547.0, 1543.0, 1548.0, 1552.0, 1552.0, 1551.0, 1553.0, 1552.0, 1548.0]
    },
    "slices": {}
  }
}