{
  "AcquisitionMatrixPE": 100,
  "AcquisitionNumber": 1,
  "AcquisitionTime": "11:59:57.615000",
  "BandwidthPerPixelPhaseEncode": 18.519,
  "BaseResolution": 100,
  "BodyPartExamined": "BRAIN",
  "ConsistencyInfo": "N4_VE11C_LATEST_20160120",
  "ConversionSoftware": "dcm2niix",
  "ConversionSoftwareVersion": "v1.0.20180622 GCC4.9.2",
  "DerivedVendorReportedEchoSpacing": 0.000539986,
  "DeviceSerialNumber": "166078",
  "DwellTime": 2.1e-06,
  "EchoTime": 0.034,
  "EchoTrainLength": 100,
  "EffectiveEchoSpacing": 0.000539986,
  "FlipAngle": 90,
  "ImageOrientationPatientDICOM": [0.998729, 0.0044853, -0.0501926, 1.67226e-08, 0.996031, 0.0890074],
  "ImageType": [
    "ORIGINAL",
    "PRIMARY",
    "M",
    "ND",
    "MOSAIC"
],
  "InPlanePhaseEncodingDirectionDICOM": "COL",
  "InstitutionAddress": "Street_StreetNo_Bei_Jing_District_CN_ZIP",
  "InstitutionName": "BeiJing_Normal_University",
  "InstitutionalDepartmentName": "Department",
  "MRAcquisitionType": "2D",
  "MagneticFieldStrength": 3,
  "Manufacturer": "Siemens",
  "ManufacturersModelName": "Prisma",
  "Modality": "MR",
  "MultibandAccelerationFactor": 3,
  "PartialFourier": 1,
  "PatientPosition": "HFS",
  "PercentPhaseFOV": 100,
  "PhaseEncodingDirection": "j-",
  "PhaseEncodingSteps": 100,
  "PhaseResolution": 1,
  "PixelBandwidth": 2380,
  "ProcedureStepDescription": "BNU_P2018_64CH_Liu.Jia",
  "ProtocolName": "bold_100x100_s3_2x2x2_232",
  "PulseSequenceDetails": "%SiemensSeq%_ep2d_bold",
  "ReceiveCoilActiveElements": "HC1-7;NC1",
  "ReceiveCoilName": "HeadNeck_64",
  "ReconMatrixPE": 100,
  "RepetitionTime": 2,
  "SAR": 0.0597762,
  "ScanOptions": "FS",
  "ScanningSequence": "EP",
  "SequenceName": "_epfid2d1_100",
  "SequenceVariant": "SK",
  "SeriesDescription": "bold_100x100_s3_2x2x2_232",
  "SeriesNumber": 5,
  "ShimSetting": [-5484, -11507, -1278, 360, -70, -181, -148, 44],
  "SliceThickness": 2,
  "SliceTiming": [1.485, 0, 0.99, 0.0825, 1.0725, 0.165, 1.155, 0.2475, 1.2375, 0.33, 1.32, 0.4125, 1.4025, 0.5775, 1.5675, 0.66, 1.65, 0.7425, 1.7325, 0.825, 1.815, 0.9075, 1.8975, 0.495, 1.485, 0, 0.99, 0.0825, 1.0725, 0.165, 1.155, 0.2475, 1.2375, 0.33, 1.32, 0.4125, 1.4025, 0.5775, 1.5675, 0.66, 1.65, 0.7425, 1.7325, 0.825, 1.815, 0.9075, 1.8975, 0.495, 1.485, 0, 0.99, 0.0825, 1.0725, 0.165, 1.155, 0.2475, 1.2375, 0.33, 1.32, 0.4125, 1.4025, 0.5775, 1.5675, 0.66, 1.65, 0.7425, 1.7325, 0.825, 1.815, 0.9075, 1.8975, 0.495],
  "SoftwareVersions": "syngo_MR_E11",
  "SpacingBetweenSlices": 2,
  "StationName": "AWP166078",
  "TaskName": "motor",
  "TotalReadoutTime": 0.0534586,
  "TxRefAmp": 207.467,
  "dcmmeta_affine": [
    [-1.9974589347839355, 3.3445161307099625e-08, -0.10078529268503189, 103.44803619384766],
    [-0.008970601484179497, 1.992061972618103, 0.1777886003255844, -92.85713195800781],
    [-0.10038527846336365, -0.17801477015018463, 1.9895310401916504, -46.39968490600586],
    [0.0, 0.0, 0.0, 1.0]
],
  "dcmmeta_reorient_transform": [
    [0.0, -1.0, 0.0, 99.0],
    [1.0, 0.0, 0.0, 0.0],
    [0.0, 0.0, 1.0, 0.0],
    [0.0, 0.0, 0.0, 1.0]
],
  "dcmmeta_shape": [100, 100, 72, 232],
  "dcmmeta_slice_dim": 2,
  "dcmmeta_version": 0.6,
  "global": {
    "const": {
      "AcquisitionMatrix": [100, 0, 0, 100],
      "AngioFlag": "N",
      "BitsAllocated": 16,
      "BitsStored": 12,
      "BodyPartExamined": "BRAIN",
      "Columns": 900,
      "EchoNumbers": 1,
      "EchoTime": 34.0,
      "EchoTrainLength": 100,
      "FlipAngle": 90.0,
      "HighBit": 11,
      "ImageOrientationPatient": [0.99872948348777, 0.00448530092575, -0.0501926377854, 1.6722581e-08, 0.99603096630444, 0.08900738263001],
      "ImagePositionPatient": [-902.43164274341, -904.77001274533, -95.074944401887],
      "ImageType": [
        "ORIGINAL",
        "PRIMARY",
        "M",
        "ND",
        "MOSAIC"
],
      "ImagedNucleus": "1H",
      "ImagingFrequency": 123.257835,
      "InPlanePhaseEncodingDirection": "COL",
      "MRAcquisitionType": "2D",
      "MagneticFieldStrength": 3.0,
      "Manufacturer": "SIEMENS",
      "ManufacturerModelName": "Prisma",
      "Modality": "MR",
      "NumberOfAverages": 1.0,
      "NumberOfPhaseEncodingSteps": 100,
      "PercentPhaseFieldOfView": 100.0,
      "PercentSampling": 100.0,
      "PerformedProcedureStepStartTime": "113946.027000",
      "PhotometricInterpretation": "MONOCHROME2",
      "PixelBandwidth": 2380.0,
      "PixelRepresentation": 0,
      "PixelSpacing": [2.0, 2.0],
      "ProtocolName": "bold_100x100_s3_2x2x2_232",
      "RepetitionTime": 2000.0,
      "Rows": 900,
      "SAR": 0.05977615864284,
      "SamplesPerPixel": 1,
      "ScanOptions": "FS",
      "ScanningSequence": "EP",
      "SequenceName": "*epfid2d1_100",
      "SequenceVariant": "SK",
      "SeriesDescription": "bold_100x100_s3_2x2x2_232",
      "SeriesNumber": 5,
      "SeriesTime": "120000.055000",
      "SliceLocation": -59.624297326015,
      "SliceThickness": 2.0,
      "SmallestImagePixelValue": 0,
      "SoftwareVersions": "syngo MR E11",
      "SpacingBetweenSlices": 2.0000000341072,
      "SpecificCharacterSet": "ISO_IR 100",
      "StudyID": "1",
      "StudyTime": "113945.965000",
      "TransmitCoilName": "Body",
      "VariableFlipAngleFlag": "N",
      "WindowCenterWidthExplanation": "Algo1",
      "dBdt": 0.0},
    "slices": {}
  },
  "time": {
    "samples": {
      "AcquisitionNumber": [1, 2, 3, 4, 5, 6, 7, 8, 9, 10, 11, 12, 13, 14, 15, 16, 17, 18, 19, 20, 21, 22, 23, 24, 25, 26, 27, 28, 29, 30, 31, 32, 33, 34, 35, 36, 37, 38, 39, 40, 41, 42, 43, 44, 45, 46, 47, 48, 49, 50, 51, 52, 53, 54, 55, 56, 57, 58, 59, 60, 61, 62, 63, 64, 65, 66, 67, 68, 69, 70, 71, 72, 73, 74, 75, 76, 77, 78, 79, 80, 81, 82, 83, 84, 85, 86, 87, 88, 89, 90, 91, 92, 93, 94, 95, 96, 97, 98, 99, 100, 101, 102, 103, 104, 105, 106, 107, 108, 109, 110, 111, 112, 113, 114, 115, 116, 117, 118, 119, 120, 121, 122, 123, 124, 125, 126, 127, 128, 129, 130, 131, 132, 133, 134, 135, 136, 137, 138, 139, 140, 141, 142, 143, 144, 145, 146, 147, 148, 149, 150, 151, 152, 153, 154, 155, 156, 157, 158, 159, 160, 161, 162, 163, 164, 165, 166, 167, 168, 169, 170, 171, 172, 173, 174, 175, 176, 177, 178, 179, 180, 181, 182, 183, 184, 185, 186, 187, 188, 189, 190, 191, 192, 193, 194, 195, 196, 197, 198, 199, 200, 201, 202, 203, 204, 205, 206, 207, 208, 209, 210, 211, 212, 213, 214, 215, 216, 217, 218, 219, 220, 221, 222, 223, 224, 225, 226, 227, 228, 229, 230, 231, 232],
      "AcquisitionTime": ["115957.615000", "115959.615000", "120001.615000", "120003.615000", "120005.615000", "120007.615000", "120009.615000", "120011.615000", "120013.615000", "120015.615000", "120017.615000", "120019.615000", "120021.615000", "120023.615000", "120025.615000", "120027.615000", "120029.615000", "120031.615000", "120033.615000", "120035.615000", "120037.615000", "120039.615000", "120041.615000", "120043.615000", "120045.615000", "120047.615000", "120049.615000", "120051.615000", "120053.615000", "120055.615000", "120057.615000", "120059.615000", "120101.615000", "120103.615000", "120105.615000", "120107.615000", "120109.615000", "120111.615000", "120113.615000", "120115.615000", "120117.615000", "120119.615000", "120121.615000", "120123.615000", "120125.615000", "120127.615000", "120129.615000", "120131.615000", "120133.615000", "120135.615000", "120137.615000", "120139.615000", "120141.615000", "120143.615000", "120145.615000", "120147.615000", "120149.615000", "120151.615000", "120153.615000", "120155.615000", "120157.615000", "120159.615000", "120201.615000", "120203.615000", "120205.615000", "120207.615000", "120209.615000", "120211.615000", "120213.615000", "120215.615000", "120217.615000", "120219.615000", "120221.615000", "120223.615000", "120225.615000", "120227.615000", "120229.615000", "120231.615000", "120233.615000", "120235.615000", "120237.615000", "120239.615000", "120241.615000", "120243.615000", "120245.615000", "120247.615000", "120249.615000", "120251.615000", "120253.615000", "120255.615000", "120257.615000", "120259.615000", "120301.615000", "120303.615000", "120305.615000", "120307.615000", "120309.615000", "120311.615000", "120313.615000", "120315.615000", "120317.615000", "120319.615000", "120321.615000", "120323.615000", "120325.615000", "120327.615000", "120329.615000", "120331.615000", "120333.615000", "120335.615000", "120337.615000", "120339.615000", "120341.615000", "120343.615000", "120345.615000", "120347.615000", "120349.615000", "120351.615000", "120353.615000", "120355.615000", "120357.615000", "120359.615000", "120401.615000", "120403.615000", "120405.615000", "120407.615000", "120409.615000", "120411.615000", "120413.615000", "120415.615000", "120417.615000", "120419.615000", "120421.615000", "120423.615000", "120425.615000", "120427.615000", "120429.615000", "120431.615000", "120433.615000", "120435.615000", "120437.615000", "120439.615000", "120441.615000", "120443.615000", "120445.615000", "120447.615000", "120449.615000", "120451.615000", "120453.615000", "120455.615000", "120457.615000", "120459.615000", "120501.615000", "120503.615000", "120505.615000", "120507.615000", "120509.615000", "120511.615000", "120513.615000", "120515.615000", "120517.615000", "120519.615000", "120521.615000", "120523.615000", "120525.615000", "120527.615000", "120529.615000", "120531.615000", "120533.615000", "120535.615000", "120537.615000", "120539.615000", "120541.615000", "120543.615000", "120545.615000", "120547.615000", "120549.615000", "120551.615000", "120553.615000", "120555.615000", "120557.615000", "120559.615000", "120601.615000", "120603.615000", "120605.615000", "120607.615000", "120609.615000", "120611.615000", "120613.615000", "120615.615000", "120617.615000", "120619.615000", "120621.615000", "120623.615000", "120625.615000", "120627.615000", "120629.615000", "120631.615000", "120633.615000", "120635.615000", "120637.615000", "120639.615000", "120641.615000", "120643.615000", "120645.615000", "120647.615000", "120649.615000", "120651.615000", "120653.615000", "120655.615000", "120657.615000", "120659.615000", "120701.615000", "120703.615000", "120705.615000", "120707.615000", "120709.615000", "120711.615000", "120713.615000", "120715.615000", "120717.615000", "120719.615000", "120721.615000", "120723.615000", "120725.615000", "120727.615000", "120729.615000", "120731.615000", "120733.615000", "120735.615000", "120737.615000", "120739.615000"],
      "ContentTime": ["120000.058000", "120001.554000", "120003.555000", "120005.555000", "120007.556000", "120009.555000", "120011.556000", "120013.555000", "120015.554000", "120017.554000", "120019.555000", "120021.556000", "120023.555000", "120025.555000", "120027.555000", "120029.554000", "120031.554000", "120033.554000", "120035.554000", "120037.555000", "120039.555000", "120041.555000", "120043.555000", "120045.555000", "120047.554000", "120049.554000", "120051.554000", "120053.555000", "120055.556000", "120057.555000", "120059.555000", "120101.555000", "120103.556000", "120105.554000", "120107.554000", "120109.554000", "120111.555000", "120113.555000", "120115.555000", "120118.555000", "120120.555000", "120122.554000", "120123.554000", "120125.554000", "120127.554000", "120129.555000", "120131.555000", "120133.555000", "120135.555000", "120137.555000", "120139.554000", "120141.554000", "120143.554000", "120145.554000", "120147.555000", "120149.556000", "120151.555000", "120153.556000", "120155.555000", "120157.554000", "120159.554000", "120201.554000", "120203.554000", "120205.555000", "120207.555000", "120209.555000", "120211.555000", "120213.555000", "120215.555000", "120217.555000", "120219.554000", "120221.556000", "120223.555000", "120225.556000", "120227.556000", "120229.556000", "120231.555000", "120233.555000", "120235.554000", "120237.554000", "120239.556000", "120241.555000", "120243.555000", "120245.555000", "120247.555000", "120249.554000", "120251.554000", "120253.554000", "120255.554000", "120257.555000", "120259.555000", "120301.556000", "120303.556000", "120305.556000", "120307.554000", "120309.555000", "120311.554000", "120313.554000", "120315.555000", "120317.555000", "120319.555000", "120321.556000", "120323.555000", "120325.555000", "120327.554000", "120329.554000", "120331.556000", "120333.555000", "120335.555000", "120337.556000", "120339.555000", "120341.555000", "120343.554000", "120345.554000", "120347.555000", "120349.555000", "120351.556000", "120353.556000", "120355.555000", "120357.555000", "120359.554000", "120401.554000", "120403.554000", "120405.554000", "120407.555000", "120409.556000", "120411.555000", "120413.555000", "120415.556000", "120417.554000", "120419.555000", "120421.554000", "120423.555000", "120425.556000", "120427.555000", "120429.556000", "120431.555000", "120433.555000", "120435.554000", "120437.554000", "120439.555000", "120441.555000", "120443.556000", "120445.556000", "120447.556000", "120449.555000", "120451.556000", "120453.555000", "120455.554000", "120457.554000", "120459.555000", "120501.555000", "120503.555000", "120505.555000", "120507.556000", "120509.554000", "120511.554000", "120513.554000", "120515.554000", "120517.555000", "120519.555000", "120521.555000", "120523.555000", "120525.555000", "120527.555000", "120529.554000", "120531.554000", "120533.555000", "120535.555000", "120537.555000", "120539.555000", "120541.555000", "120543.555000", "120545.555000", "120547.554000", "120549.555000", "120551.555000", "120553.556000", "120555.555000", "120557.555000", "120559.555000", "120601.556000", "120603.554000", "120605.554000", "120607.554000", "120609.555000", "120611.555000", "120613.555000", "120615.555000", "120617.555000", "120619.554000", "120621.554000", "120623.554000", "120625.554000", "120627.555000", "120629.555000", "120631.556000", "120633.555000", "120635.556000", "120637.554000", "120639.554000", "120641.554000", "120643.554000", "120645.556000", "120647.555000", "120649.556000", "120651.556000", "120653.555000", "120655.554000", "120657.554000", "120659.554000", "120701.555000", "120703.556000", "120705.555000", "120707.555000", "120709.556000", "120711.555000", "120713.555000", "120715.554000", "120717.554000", "120719.556000", "120721.556000", "120723.556000", "120725.556000", "120727.555000", "120729.554000", "120731.555000", "120733.555000", "120735.554000", "120737.555000", "120739.556000", "120741.134000"],
      "InstanceCreationTime": ["120000.058000", "120001.554000", "120003.555000", "120005.555000", "120007.556000", "120009.555000", "120011.556000", "120013.555000", "120015.554000", "120017.554000", "120019.555000", "120021.556000", "120023.555000", "120025.555000", "120027.555000", "120029.554000", "120031.554000", "120033.554000", "120035.554000", "120037.555000", "120039.555000", "120041.555000", "120043.555000", "120045.555000", "120047.554000", "120049.554000", "120051.554000", "120053.555000", "120055.556000", "120057.555000", "120059.555000", "120101.555000", "120103.556000", "120105.554000", "120107.554000", "120109.554000", "120111.555000", "120113.555000", "120115.555000", "120118.555000", "120120.555000", "120122.554000", "120123.554000", "120125.554000", "120127.554000", "120129.555000", "120131.555000", "120133.555000", "120135.555000", "120137.555000", "120139.554000", "120141.554000", "120143.554000", "120145.554000", "120147.555000", "120149.556000", "120151.555000", "120153.556000", "120155.555000", "120157.554000", "120159.554000", "120201.554000", "120203.554000", "120205.555000", "120207.555000", "120209.555000", "120211.555000", "120213.555000", "120215.555000", "120217.555000", "120219.554000", "120221.556000", "120223.555000", "120225.556000", "120227.556000", "120229.556000", "120231.555000", "120233.555000", "120235.554000", "120237.554000", "120239.556000", "120241.555000", "120243.555000", "120245.555000", "120247.555000", "120249.554000", "120251.554000", "120253.554000", "120255.554000", "120257.555000", "120259.555000", "120301.556000", "120303.556000", "120305.556000", "120307.554000", "120309.555000", "120311.554000", "120313.554000", "120315.555000", "120317.555000", "120319.555000", "120321.556000", "120323.555000", "120325.555000", "120327.554000", "120329.554000", "120331.556000", "120333.555000", "120335.555000", "120337.556000", "120339.555000", "120341.555000", "120343.554000", "120345.554000", "120347.555000", "120349.555000", "120351.556000", "120353.556000", "120355.555000", "120357.555000", "120359.554000", "120401.554000", "120403.554000", "120405.554000", "120407.555000", "120409.556000", "120411.555000", "120413.555000", "120415.556000", "120417.554000", "120419.555000", "120421.554000", "120423.555000", "120425.556000", "120427.555000", "120429.556000", "120431.555000", "120433.555000", "120435.554000", "120437.554000", "120439.555000", "120441.555000", "120443.556000", "120445.556000", "120447.556000", "120449.555000", "120451.556000", "120453.555000", "120455.554000", "120457.554000", "120459.555000", "120501.555000", "120503.555000", "120505.555000", "120507.556000", "120509.554000", "120511.554000", "120513.554000", "120515.554000", "120517.555000", "120519.555000", "120521.555000", "120523.555000", "120525.555000", "120527.555000", "120529.554000", "120531.554000", "120533.555000", "120535.555000", "120537.555000", "120539.555000", "120541.555000", "120543.555000", "120545.555000", "120547.554000", "120549.555000", "120551.555000", "120553.556000", "120555.555000", "120557.555000", "120559.555000", "120601.556000", "120603.554000", "120605.554000", "120607.554000", "120609.555000", "120611.555000", "120613.555000", "120615.555000", "120617.555000", "120619.554000", "120621.554000", "120623.554000", "120625.554000", "120627.555000", "120629.555000", "120631.556000", "120633.555000", "120635.556000", "120637.554000", "120639.554000", "120641.554000", "120643.554000", "120645.556000", "120647.555000", "120649.556000", "120651.556000", "120653.555000", "120655.554000", "120657.554000", "120659.554000", "120701.555000", "120703.556000", "120705.555000", "120707.555000", "120709.556000", "120711.555000", "120713.555000", "120715.554000", "120717.554000", "120719.556000", "120721.556000", "120723.556000", "120725.556000", "120727.555000", "120729.554000", "120731.555000", "120733.555000", "120735.554000", "120737.555000", "120739.556000", "120741.134000"],
      "InstanceNumber": [1, 2, 3, 4, 5, 6, 7, 8, 9, 10, 11, 12, 13, 14, 15, 16, 17, 18, 19, 20, 21, 22, 23, 24, 25, 26, 27, 28, 29, 30, 31, 32, 33, 34, 35, 36, 37, 38, 39, 40, 41, 42, 43, 44, 45, 46, 47, 48, 49, 50, 51, 52, 53, 54, 55, 56, 57, 58, 59, 60, 61, 62, 63, 64, 65, 66, 67, 68, 69, 70, 71, 72, 73, 74, 75, 76, 77, 78, 79, 80, 81, 82, 83, 84, 85, 86, 87, 88, 89, 90, 91, 92, 93, 94, 95, 96, 97, 98, 99, 100, 101, 102, 103, 104, 105, 106, 107, 108, 109, 110, 111, 112, 113, 114, 115, 116, 117, 118, 119, 120, 121, 122, 123, 124, 125, 126, 127, 128, 129, 130, 131, 132, 133, 134, 135, 136, 137, 138, 139, 140, 141, 142, 143, 144, 145, 146, 147, 148, 149, 150, 151, 152, 153, 154, 155, 156, 157, 158, 159, 160, 161, 162, 163, 164, 165, 166, 167, 168, 169, 170, 171, 172, 173, 174, 175, 176, 177, 178, 179, 180, 181, 182, 183, 184, 185, 186, 187, 188, 189, 190, 191, 192, 193, 194, 195, 196, 197, 198, 199, 200, 201, 202, 203, 204, 205, 206, 207, 208, 209, 210, 211, 212, 213, 214, 215, 216, 217, 218, 219, 220, 221, 222, 223, 224, 225, 226, 227, 228, 229, 230, 231, 232],
      "LargestImagePixelValue": [2429, 2277, 2296, 2503, 2483, 2768, 2349, 2286, 2400, 2318, 2606, 2385, 2272, 2315, 2364, 2376, 2350, 2332, 2308, 2741, 2271, 2366, 2387, 2525, 2520, 2369, 2325, 2304, 2448, 2477, 2685, 2279, 2466, 2631, 2282, 2375, 2262, 2780, 2279, 2410, 2276, 2378, 2482, 2404, 2744, 2505, 2831, 2427, 2445, 2411, 2399, 2399, 2468, 2418, 2376, 2435, 2639, 2464, 2458, 2335, 2383, 2344, 2337, 2521, 2464, 2611, 2332, 2531, 2358, 2348, 2726, 2356, 2448, 2349, 2366, 2359, 2470, 2411, 2438, 2321, 2341, 2402, 2333, 2364, 2352, 2392, 2274, 2328, 2363, 2341, 2402, 2533, 2358, 2534, 2322, 2292, 2616, 2393, 2374, 2407, 2374, 2559, 2444, 2394, 2377, 2476, 2298, 2654, 2263, 2263, 2403, 2514, 2528, 2393, 2403, 2577, 2410, 2437, 2325, 2691, 2501, 2382, 2460, 2558, 2485, 2476, 2324, 2378, 2597, 2365, 2323, 2273, 2343, 2497, 2468, 2453, 2546, 2525, 2517, 2434, 2401, 2459, 2303, 2440, 2444, 2591, 2359, 2488, 2331, 2443, 2424, 2504, 2329, 2310, 2357, 2490, 2530, 2529, 2428, 2371, 2394, 2364, 2446, 2464, 2437, 2406, 2443, 2315, 2638, 2453, 2317, 2374, 2426, 2305, 2506, 2644, 2468, 2283, 2404, 2560, 2485, 2408, 2369, 2334, 2290, 2617, 2560, 2400, 2613, 2616, 2409, 2464, 2332, 2333, 2332, 2598, 2590, 2482, 2305, 2346, 2270, 2646, 2341, 2342, 2618, 2318, 2383, 2299, 2482, 2401, 2299, 2455, 2325, 2508, 2386, 2435, 2278, 2282, 2340, 2393, 2355, 2673, 2380, 2346, 2309, 2314, 2366, 2379, 2279, 2518, 2360, 2339],
      "WindowCenter": [735.0, 734.0, 735.0, 738.0, 736.0, 738.0, 733.0, 732.0, 735.0, 733.0, 737.0, 733.0, 732.0, 734.0, 734.0, 733.0, 734.0, 735.0, 734.0, 739.0, 732.0, 734.0, 735.0, 736.0, 737.0, 735.0, 736.0, 735.0, 735.0, 735.0, 737.0, 731.0, 734.0, 737.0, 732.0, 735.0, 733.0, 738.0, 732.0, 735.0, 733.0, 734.0, 736.0, 734.0, 738.0, 736.0, 740.0, 736.0, 736.0, 737.0, 737.0, 737.0, 736.0, 735.0, 735.0, 736.0, 739.0, 735.0, 734.0, 733.0, 734.0, 735.0, 734.0, 736.0, 735.0, 737.0, 735.0, 738.0, 734.0, 733.0, 738.0, 734.0, 735.0, 734.0, 734.0, 734.0, 736.0, 737.0, 737.0, 734.0, 734.0, 735.0, 734.0, 734.0, 733.0, 734.0, 732.0, 733.0, 734.0, 734.0, 736.0, 738.0, 734.0, 736.0, 732.0, 732.0, 737.0, 735.0, 736.0, 737.0, 736.0, 738.0, 736.0, 735.0, 735.0, 737.0, 733.0, 737.0, 732.0, 732.0, 735.0, 737.0, 737.0, 735.0, 736.0, 738.0, 735.0, 735.0, 734.0, 739.0, 737.0, 735.0, 737.0, 739.0, 738.0, 737.0, 734.0, 736.0, 738.0, 734.0, 734.0, 734.0, 735.0, 738.0, 738.0, 738.0, 738.0, 738.0, 738.0, 736.0, 735.0, 735.0, 734.0, 737.0, 736.0, 738.0, 734.0, 736.0, 736.0, 737.0, 736.0, 736.0, 733.0, 734.0, 738.0, 740.0, 739.0, 737.0, 736.0, 736.0, 737.0, 736.0, 737.0, 737.0, 737.0, 736.0, 737.0, 736.0, 740.0, 737.0, 736.0, 737.0, 736.0, 734.0, 736.0, 737.0, 735.0, 734.0, 738.0, 740.0, 738.0, 736.0, 735.0, 735.0, 734.0, 740.0, 742.0, 739.0, 741.0, 739.0, 736.0, 737.0, 735.0, 736.0, 737.0, 741.0, 739.0, 737.0, 734.0, 736.0, 735.0, 739.0, 735.0, 735.0, 740.0, 736.0, 737.0, 735.0, 738.0, 737.0, 737.0, 739.0, 736.0, 739.0, 737.0, 736.0, 734.0, 735.0, 737.0, 738.0, 736.0, 740.0, 737.0, 737.0, 736.0, 737.0, 737.0, 737.0, 734.0, 737.0, 734.0, 735.0],
      "WindowWidth": [1562.0, 1560.0, 1563.0, 1567.0, 1563.0, 1567.0, 1556.0, 1555.0, 1562.0, 1557.0, 1565.0, 1555.0, 1554.0, 1558.0, 1558.0, 1557.0, 1558.0, 1562.0, 1559.0, 1570.0, 1554.0, 1560.0, 1562.0, 1565.0, 1565.0, 1561.0, 1564.0, 1562.0, 1562.0, 1561.0, 1564.0, 1552.0, 1559.0, 1566.0, 1555.0, 1560.0, 1556.0, 1567.0, 1553.0, 1560.0, 1556.0, 1558.0, 1562.0, 1558.0, 1567.0, 1563.0, 1574.0, 1564.0, 1565.0, 1565.0, 1567.0, 1565.0, 1564.0, 1562.0, 1561.0, 1564.0, 1569.0, 1562.0, 1559.0, 1555.0, 1559.0, 1560.0, 1559.0, 1563.0, 1560.0, 1566.0, 1561.0, 1568.0, 1559.0, 1556.0, 1567.0, 1557.0, 1562.0, 1559.0, 1560.0, 1558.0, 1564.0, 1566.0, 1567.0, 1560.0, 1559.0, 1561.0, 1559.0, 1558.0, 1556.0, 1558.0, 1554.0, 1557.0, 1560.0, 1560.0, 1564.0, 1567.0, 1559.0, 1562.0, 1555.0, 1555.0, 1566.0, 1562.0, 1564.0, 1565.0, 1563.0, 1568.0, 1563.0, 1561.0, 1561.0, 1565.0, 1557.0, 1566.0, 1555.0, 1555.0, 1562.0, 1566.0, 1565.0, 1562.0, 1563.0, 1568.0, 1562.0, 1562.0, 1559.0, 1570.0, 1565.0, 1562.0, 1566.0, 1572.0, 1569.0, 1567.0, 1560.0, 1562.0, 1567.0, 1558.0, 1558.0, 1560.0, 1562.0, 1568.0, 1568.0, 1567.0, 1568.0, 1568.0, 1569.0, 1565.0, 1561.0, 1562.0, 1559.0, 1566.0, 1565.0, 1568.0, 1558.0, 1565.0, 1564.0, 1566.0, 1563.0, 1563.0, 1557.0, 1560.0, 1569.0, 1573.0, 1570.0, 1566.0, 1563.0, 1563.0, 1565.0, 1564.0, 1566.0, 1566.0, 1566.0, 1565.0, 1566.0, 1563.0, 1573.0, 1567.0, 1563.0, 1565.0, 1564.0, 1558.0, 1562.0, 1565.0, 1560.0, 1559.0, 1568.0, 1573.0, 1569.0, 1564.0, 1560.0, 1560.0, 1559.0, 1573.0, 1577.0, 1572.0, 1574.0, 1572.0, 1564.0, 1565.0, 1562.0, 1564.0, 1568.0, 1574.0, 1571.0, 1565.0, 1558.0, 1564.0, 1562.0, 1571.0, 1560.0, 1560.0, 1572.0, 1564.0, 1567.0, 1563.0, 1567.0, 1566.0, 1566.0, 1570.0, 1564.0, 1570.0, 1566.0, 1564.0, 1559.0, 1562.0, 1567.0, 1568.0, 1563.0, 1573.0, 1567.0, 1565.0, 1565.0, 1566.0, 1567.0, 1565.0, 1559.0, 1564.0, 1560.0, 1561.0]
    },
    "slices": {}
  }
}