{
  "AcquisitionMatrixPE": 100,
  "AcquisitionNumber": 1,
  "AcquisitionTime": "12:20:7.617500",
  "BandwidthPerPixelPhaseEncode": 18.519,
  "BaseResolution": 100,
  "BodyPartExamined": "BRAIN",
  "ConsistencyInfo": "N4_VE11C_LATEST_20160120",
  "ConversionSoftware": "dcm2niix",
  "ConversionSoftwareVersion": "v1.0.20180622 GCC4.9.2",
  "DerivedVendorReportedEchoSpacing": 0.000539986,
  "DeviceSerialNumber": "166078",
  "DwellTime": 2.1e-06,
  "EchoTime": 0.034,
  "EchoTrainLength": 100,
  "EffectiveEchoSpacing": 0.000539986,
  "FlipAngle": 90,
  "ImageOrientationPatientDICOM": [0.998729, 0.0044853, -0.0501926, 1.67226e-08, 0.996031, 0.0890074],
  "ImageType": [
    "ORIGINAL",
    "PRIMARY",
    "M",
    "ND",
    "MOSAIC"
],
  "InPlanePhaseEncodingDirectionDICOM": "COL",
  "InstitutionAddress": "Street_StreetNo_Bei_Jing_District_CN_ZIP",
  "InstitutionName": "BeiJing_Normal_University",
  "InstitutionalDepartmentName": "Department",
  "MRAcquisitionType": "2D",
  "MagneticFieldStrength": 3,
  "Manufacturer": "Siemens",
  "ManufacturersModelName": "Prisma",
  "Modality": "MR",
  "MultibandAccelerationFactor": 3,
  "PartialFourier": 1,
  "PatientPosition": "HFS",
  "PercentPhaseFOV": 100,
  "PhaseEncodingDirection": "j-",
  "PhaseEncodingSteps": 100,
  "PhaseResolution": 1,
  "PixelBandwidth": 2380,
  "ProcedureStepDescription": "BNU_P2018_64CH_Liu.Jia",
  "ProtocolName": "bold_100x100_s3_2x2x2_232",
  "PulseSequenceDetails": "%SiemensSeq%_ep2d_bold",
  "ReceiveCoilActiveElements": "HC1-7;NC1",
  "ReceiveCoilName": "HeadNeck_64",
  "ReconMatrixPE": 100,
  "RepetitionTime": 2,
  "SAR": 0.0597762,
  "ScanOptions": "FS",
  "ScanningSequence": "EP",
  "SequenceName": "_epfid2d1_100",
  "SequenceVariant": "SK",
  "SeriesDescription": "bold_100x100_s3_2x2x2_232",
  "SeriesNumber": 9,
  "ShimSetting": [-5484, -11507, -1278, 360, -70, -181, -148, 44],
  "SliceThickness": 2,
  "SliceTiming": [1.485, 0, 0.99, 0.0825, 1.0725, 0.165, 1.155, 0.2475, 1.2375, 0.33, 1.32, 0.4125, 1.4025, 0.5775, 1.5675, 0.66, 1.65, 0.7425, 1.7325, 0.825, 1.815, 0.9075, 1.8975, 0.495, 1.485, 0, 0.99, 0.0825, 1.0725, 0.165, 1.155, 0.2475, 1.2375, 0.33, 1.32, 0.4125, 1.4025, 0.5775, 1.5675, 0.66, 1.65, 0.7425, 1.7325, 0.825, 1.815, 0.9075, 1.8975, 0.495, 1.485, 0, 0.99, 0.0825, 1.0725, 0.165, 1.155, 0.2475, 1.2375, 0.33, 1.32, 0.4125, 1.4025, 0.5775, 1.5675, 0.66, 1.65, 0.7425, 1.7325, 0.825, 1.815, 0.9075, 1.8975, 0.495],
  "SoftwareVersions": "syngo_MR_E11",
  "SpacingBetweenSlices": 2,
  "StationName": "AWP166078",
  "TaskName": "motor",
  "TotalReadoutTime": 0.0534586,
  "TxRefAmp": 207.467,
  "dcmmeta_affine": [
    [-1.9974589347839355, 3.3445161307099625e-08, -0.10078529268503189, 103.44803619384766],
    [-0.008970601484179497, 1.992061972618103, 0.1777886003255844, -92.85713195800781],
    [-0.10038527846336365, -0.17801477015018463, 1.9895310401916504, -46.39968490600586],
    [0.0, 0.0, 0.0, 1.0]
],
  "dcmmeta_reorient_transform": [
    [0.0, -1.0, 0.0, 99.0],
    [1.0, 0.0, 0.0, 0.0],
    [0.0, 0.0, 1.0, 0.0],
    [0.0, 0.0, 0.0, 1.0]
],
  "dcmmeta_shape": [100, 100, 72, 232],
  "dcmmeta_slice_dim": 2,
  "dcmmeta_version": 0.6,
  "global": {
    "const": {
      "AcquisitionMatrix": [100, 0, 0, 100],
      "AngioFlag": "N",
      "BitsAllocated": 16,
      "BitsStored": 12,
      "BodyPartExamined": "BRAIN",
      "Columns": 900,
      "EchoNumbers": 1,
      "EchoTime": 34.0,
      "EchoTrainLength": 100,
      "FlipAngle": 90.0,
      "HighBit": 11,
      "ImageOrientationPatient": [0.99872948348777, 0.00448530092575, -0.0501926377854, 1.6722581e-08, 0.99603096630444, 0.08900738263001],
      "ImagePositionPatient": [-902.43164274341, -904.77001274533, -95.074944401887],
      "ImageType": [
        "ORIGINAL",
        "PRIMARY",
        "M",
        "ND",
        "MOSAIC"
],
      "ImagedNucleus": "1H",
      "ImagingFrequency": 123.257837,
      "InPlanePhaseEncodingDirection": "COL",
      "MRAcquisitionType": "2D",
      "MagneticFieldStrength": 3.0,
      "Manufacturer": "SIEMENS",
      "ManufacturerModelName": "Prisma",
      "Modality": "MR",
      "NumberOfAverages": 1.0,
      "NumberOfPhaseEncodingSteps": 100,
      "PercentPhaseFieldOfView": 100.0,
      "PercentSampling": 100.0,
      "PerformedProcedureStepStartTime": "113946.027000",
      "PhotometricInterpretation": "MONOCHROME2",
      "PixelBandwidth": 2380.0,
      "PixelRepresentation": 0,
      "PixelSpacing": [2.0, 2.0],
      "ProtocolName": "bold_100x100_s3_2x2x2_232",
      "RepetitionTime": 2000.0,
      "Rows": 900,
      "SAR": 0.05977615864284,
      "SamplesPerPixel": 1,
      "ScanOptions": "FS",
      "ScanningSequence": "EP",
      "SequenceName": "*epfid2d1_100",
      "SequenceVariant": "SK",
      "SeriesDescription": "bold_100x100_s3_2x2x2_232",
      "SeriesNumber": 9,
      "SeriesTime": "122010.518000",
      "SliceLocation": -59.624297326015,
      "SliceThickness": 2.0,
      "SmallestImagePixelValue": 0,
      "SoftwareVersions": "syngo MR E11",
      "SpacingBetweenSlices": 2.0000000341072,
      "SpecificCharacterSet": "ISO_IR 100",
      "StudyID": "1",
      "StudyTime": "113945.965000",
      "TransmitCoilName": "Body",
      "VariableFlipAngleFlag": "N",
      "WindowCenterWidthExplanation": "Algo1",
      "dBdt": 0.0},
    "slices": {}
  },
  "time": {
    "samples": {
      "AcquisitionNumber": [1, 2, 3, 4, 5, 6, 7, 8, 9, 10, 11, 12, 13, 14, 15, 16, 17, 18, 19, 20, 21, 22, 23, 24, 25, 26, 27, 28, 29, 30, 31, 32, 33, 34, 35, 36, 37, 38, 39, 40, 41, 42, 43, 44, 45, 46, 47, 48, 49, 50, 51, 52, 53, 54, 55, 56, 57, 58, 59, 60, 61, 62, 63, 64, 65, 66, 67, 68, 69, 70, 71, 72, 73, 74, 75, 76, 77, 78, 79, 80, 81, 82, 83, 84, 85, 86, 87, 88, 89, 90, 91, 92, 93, 94, 95, 96, 97, 98, 99, 100, 101, 102, 103, 104, 105, 106, 107, 108, 109, 110, 111, 112, 113, 114, 115, 116, 117, 118, 119, 120, 121, 122, 123, 124, 125, 126, 127, 128, 129, 130, 131, 132, 133, 134, 135, 136, 137, 138, 139, 140, 141, 142, 143, 144, 145, 146, 147, 148, 149, 150, 151, 152, 153, 154, 155, 156, 157, 158, 159, 160, 161, 162, 163, 164, 165, 166, 167, 168, 169, 170, 171, 172, 173, 174, 175, 176, 177, 178, 179, 180, 181, 182, 183, 184, 185, 186, 187, 188, 189, 190, 191, 192, 193, 194, 195, 196, 197, 198, 199, 200, 201, 202, 203, 204, 205, 206, 207, 208, 209, 210, 211, 212, 213, 214, 215, 216, 217, 218, 219, 220, 221, 222, 223, 224, 225, 226, 227, 228, 229, 230, 231, 232],
      "AcquisitionTime": ["122007.617500", "122009.617500", "122011.617500", "122013.617500", "122015.617500", "122017.617500", "122019.617500", "122021.617500", "122023.617500", "122025.617500", "122027.617500", "122029.617500", "122031.617500", "122033.617500", "122035.617500", "122037.617500", "122039.617500", "122041.617500", "122043.617500", "122045.617500", "122047.617500", "122049.617500", "122051.617500", "122053.617500", "122055.617500", "122057.617500", "122059.617500", "122101.617500", "122103.617500", "122105.617500", "122107.617500", "122109.617500", "122111.617500", "122113.617500", "122115.617500", "122117.617500", "122119.617500", "122121.617500", "122123.617500", "122125.617500", "122127.617500", "122129.617500", "122131.617500", "122133.617500", "122135.617500", "122137.617500", "122139.617500", "122141.617500", "122143.617500", "122145.617500", "122147.617500", "122149.617500", "122151.617500", "122153.617500", "122155.617500", "122157.617500", "122159.617500", "122201.617500", "122203.617500", "122205.617500", "122207.617500", "122209.617500", "122211.617500", "122213.617500", "122215.617500", "122217.617500", "122219.617500", "122221.617500", "122223.617500", "122225.617500", "122227.617500", "122229.617500", "122231.617500", "122233.617500", "122235.617500", "122237.617500", "122239.617500", "122241.617500", "122243.617500", "122245.617500", "122247.617500", "122249.617500", "122251.617500", "122253.617500", "122255.617500", "122257.617500", "122259.617500", "122301.617500", "122303.617500", "122305.617500", "122307.617500", "122309.617500", "122311.617500", "122313.617500", "122315.617500", "122317.617500", "122319.617500", "122321.617500", "122323.617500", "122325.617500", "122327.617500", "122329.617500", "122331.617500", "122333.617500", "122335.617500", "122337.617500", "122339.617500", "122341.617500", "122343.617500", "122345.617500", "122347.617500", "122349.617500", "122351.617500", "122353.617500", "122355.617500", "122357.617500", "122359.617500", "122401.617500", "122403.617500", "122405.617500", "122407.617500", "122409.617500", "122411.617500", "122413.617500", "122415.617500", "122417.617500", "122419.617500", "122421.617500", "122423.617500", "122425.617500", "122427.617500", "122429.617500", "122431.617500", "122433.617500", "122435.617500", "122437.617500", "122439.617500", "122441.617500", "122443.617500", "122445.617500", "122447.617500", "122449.617500", "122451.617500", "122453.617500", "122455.617500", "122457.617500", "122459.617500", "122501.617500", "122503.617500", "122505.617500", "122507.617500", "122509.617500", "122511.617500", "122513.617500", "122515.617500", "122517.617500", "122519.617500", "122521.617500", "122523.617500", "122525.617500", "122527.617500", "122529.617500", "122531.617500", "122533.617500", "122535.617500", "122537.617500", "122539.617500", "122541.617500", "122543.617500", "122545.617500", "122547.617500", "122549.617500", "122551.617500", "122553.617500", "122555.617500", "122557.617500", "122559.617500", "122601.617500", "122603.617500", "122605.617500", "122607.617500", "122609.617500", "122611.617500", "122613.617500", "122615.617500", "122617.617500", "122619.617500", "122621.617500", "122623.617500", "122625.617500", "122627.617500", "122629.617500", "122631.617500", "122633.617500", "122635.617500", "122637.617500", "122639.617500", "122641.617500", "122643.617500", "122645.617500", "122647.617500", "122649.617500", "122651.617500", "122653.617500", "122655.617500", "122657.617500", "122659.617500", "122701.617500", "122703.617500", "122705.617500", "122707.617500", "122709.617500", "122711.617500", "122713.617500", "122715.617500", "122717.617500", "122719.617500", "122721.617500", "122723.617500", "122725.617500", "122727.617500", "122729.617500", "122731.617500", "122733.617500", "122735.617500", "122737.617500", "122739.617500", "122741.617500", "122743.617500", "122745.617500", "122747.617500", "122749.617500"],
      "ContentTime": ["122010.522000", "122012.017000", "122014.017000", "122016.018000", "122018.017000", "122020.017000", "122022.016000", "122024.016000", "122026.017000", "122028.018000", "122030.017000", "122032.017000", "122034.017000", "122036.017000", "122038.016000", "122040.016000", "122042.016000", "122044.017000", "122046.017000", "122048.017000", "122050.017000", "122052.018000", "122054.017000", "122056.016000", "122058.016000", "122100.016000", "122102.017000", "122104.017000", "122106.018000", "122108.018000", "122110.018000", "122112.018000", "122114.017000", "122116.016000", "122118.018000", "122120.017000", "122122.017000", "122124.017000", "122126.017000", "122128.017000", "122130.017000", "122132.016000", "122134.016000", "122136.017000", "122138.018000", "122140.018000", "122142.017000", "122144.017000", "122146.017000", "122148.017000", "122150.016000", "122152.016000", "122154.017000", "122156.017000", "122158.017000", "122200.018000", "122202.018000", "122204.017000", "122206.017000", "122208.016000", "122210.017000", "122212.017000", "122214.018000", "122216.018000", "122218.017000", "122220.018000", "122222.017000", "122224.016000", "122226.017000", "122228.017000", "122230.018000", "122232.017000", "122234.018000", "122236.018000", "122238.018000", "122240.017000", "122242.016000", "122244.016000", "122246.018000", "122248.017000", "122250.018000", "122252.017000", "122254.017000", "122256.018000", "122258.016000", "122300.016000", "122302.016000", "122304.018000", "122306.018000", "122308.018000", "122310.018000", "122312.017000", "122314.017000", "122316.016000", "122318.016000", "122320.016000", "122322.017000", "122324.017000", "122326.017000", "122328.018000", "122330.017000", "122332.017000", "122334.016000", "122336.016000", "122338.018000", "122340.018000", "122342.017000", "122344.017000", "122346.018000", "122348.017000", "122350.017000", "122352.016000", "122354.016000", "122356.017000", "122358.017000", "122400.018000", "122402.018000", "122404.017000", "122406.018000", "122408.017000", "122410.016000", "122412.017000", "122414.018000", "122416.017000", "122418.017000", "122420.018000", "122422.018000", "122424.018000", "122426.017000", "122428.016000", "122430.016000", "122432.018000", "122434.018000", "122436.017000", "122438.018000", "122440.017000", "122442.017000", "122444.017000", "122446.017000", "122448.017000", "122450.017000", "122452.017000", "122454.018000", "122456.017000", "122458.018000", "122500.018000", "122502.017000", "122504.016000", "122506.018000", "122508.018000", "122510.017000", "122512.017000", "122514.017000", "122516.017000", "122518.016000", "122520.016000", "122522.016000", "122524.018000", "122526.018000", "122528.017000", "122530.017000", "122532.017000", "122534.017000", "122536.017000", "122538.016000", "122540.017000", "122542.018000", "122544.017000", "122546.017000", "122548.017000", "122550.017000", "122552.017000", "122554.017000", "122556.016000", "122558.017000", "122600.017000", "122602.017000", "122604.018000", "122606.017000", "122608.017000", "122610.017000", "122612.017000", "122614.016000", "122616.017000", "122618.017000", "122620.017000", "122622.017000", "122624.017000", "122626.018000", "122628.017000", "122630.016000", "122632.017000", "122634.018000", "122636.018000", "122638.017000", "122640.017000", "122642.017000", "122644.017000", "122646.016000", "122648.016000", "122650.016000", "122652.018000", "122654.018000", "122656.018000", "122658.018000", "122700.018000", "122702.017000", "122704.016000", "122706.016000", "122708.017000", "122710.017000", "122712.018000", "122714.018000", "122716.018000", "122718.017000", "122720.017000", "122722.017000", "122724.016000", "122726.017000", "122728.017000", "122730.018000", "122732.018000", "122734.017000", "122736.017000", "122738.017000", "122740.017000", "122742.016000", "122744.017000", "122746.017000", "122748.018000", "122750.018000", "122751.628000"],
      "InstanceCreationTime": ["122010.522000", "122012.017000", "122014.017000", "122016.018000", "122018.017000", "122020.017000", "122022.016000", "122024.016000", "122026.017000", "122028.018000", "122030.017000", "122032.017000", "122034.017000", "122036.017000", "122038.016000", "122040.016000", "122042.016000", "122044.017000", "122046.017000", "122048.017000", "122050.017000", "122052.018000", "122054.017000", "122056.016000", "122058.016000", "122100.016000", "122102.017000", "122104.017000", "122106.018000", "122108.018000", "122110.018000", "122112.018000", "122114.017000", "122116.016000", "122118.018000", "122120.017000", "122122.017000", "122124.017000", "122126.017000", "122128.017000", "122130.017000", "122132.016000", "122134.016000", "122136.017000", "122138.018000", "122140.018000", "122142.017000", "122144.017000", "122146.017000", "122148.017000", "122150.016000", "122152.016000", "122154.017000", "122156.017000", "122158.017000", "122200.018000", "122202.018000", "122204.017000", "122206.017000", "122208.016000", "122210.017000", "122212.017000", "122214.018000", "122216.018000", "122218.017000", "122220.018000", "122222.017000", "122224.016000", "122226.017000", "122228.017000", "122230.018000", "122232.017000", "122234.018000", "122236.018000", "122238.018000", "122240.017000", "122242.016000", "122244.016000", "122246.018000", "122248.017000", "122250.018000", "122252.017000", "122254.017000", "122256.018000", "122258.016000", "122300.016000", "122302.016000", "122304.018000", "122306.018000", "122308.018000", "122310.018000", "122312.017000", "122314.017000", "122316.016000", "122318.016000", "122320.016000", "122322.017000", "122324.017000", "122326.017000", "122328.018000", "122330.017000", "122332.017000", "122334.016000", "122336.016000", "122338.018000", "122340.018000", "122342.017000", "122344.017000", "122346.018000", "122348.017000", "122350.017000", "122352.016000", "122354.016000", "122356.017000", "122358.017000", "122400.018000", "122402.018000", "122404.017000", "122406.018000", "122408.017000", "122410.016000", "122412.017000", "122414.018000", "122416.017000", "122418.017000", "122420.018000", "122422.018000", "122424.018000", "122426.017000", "122428.016000", "122430.016000", "122432.018000", "122434.018000", "122436.017000", "122438.018000", "122440.017000", "122442.017000", "122444.017000", "122446.017000", "122448.017000", "122450.017000", "122452.017000", "122454.018000", "122456.017000", "122458.018000", "122500.018000", "122502.017000", "122504.016000", "122506.018000", "122508.018000", "122510.017000", "122512.017000", "122514.017000", "122516.017000", "122518.016000", "122520.016000", "122522.016000", "122524.018000", "122526.018000", "122528.017000", "122530.017000", "122532.017000", "122534.017000", "122536.017000", "122538.016000", "122540.017000", "122542.018000", "122544.017000", "122546.017000", "122548.017000", "122550.017000", "122552.017000", "122554.017000", "122556.016000", "122558.017000", "122600.017000", "122602.017000", "122604.018000", "122606.017000", "122608.017000", "122610.017000", "122612.017000", "122614.016000", "122616.017000", "122618.017000", "122620.017000", "122622.017000", "122624.017000", "122626.018000", "122628.017000", "122630.016000", "122632.017000", "122634.018000", "122636.018000", "122638.017000", "122640.017000", "122642.017000", "122644.017000", "122646.016000", "122648.016000", "122650.016000", "122652.018000", "122654.018000", "122656.018000", "122658.018000", "122700.018000", "122702.017000", "122704.016000", "122706.016000", "122708.017000", "122710.017000", "122712.018000", "122714.018000", "122716.018000", "122718.017000", "122720.017000", "122722.017000", "122724.016000", "122726.017000", "122728.017000", "122730.018000", "122732.018000", "122734.017000", "122736.017000", "122738.017000", "122740.017000", "122742.016000", "122744.017000", "122746.017000", "122748.018000", "122750.018000", "122751.628000"],
      "InstanceNumber": [1, 2, 3, 4, 5, 6, 7, 8, 9, 10, 11, 12, 13, 14, 15, 16, 17, 18, 19, 20, 21, 22, 23, 24, 25, 26, 27, 28, 29, 30, 31, 32, 33, 34, 35, 36, 37, 38, 39, 40, 41, 42, 43, 44, 45, 46, 47, 48, 49, 50, 51, 52, 53, 54, 55, 56, 57, 58, 59, 60, 61, 62, 63, 64, 65, 66, 67, 68, 69, 70, 71, 72, 73, 74, 75, 76, 77, 78, 79, 80, 81, 82, 83, 84, 85, 86, 87, 88, 89, 90, 91, 92, 93, 94, 95, 96, 97, 98, 99, 100, 101, 102, 103, 104, 105, 106, 107, 108, 109, 110, 111, 112, 113, 114, 115, 116, 117, 118, 119, 120, 121, 122, 123, 124, 125, 126, 127, 128, 129, 130, 131, 132, 133, 134, 135, 136, 137, 138, 139, 140, 141, 142, 143, 144, 145, 146, 147, 148, 149, 150, 151, 152, 153, 154, 155, 156, 157, 158, 159, 160, 161, 162, 163, 164, 165, 166, 167, 168, 169, 170, 171, 172, 173, 174, 175, 176, 177, 178, 179, 180, 181, 182, 183, 184, 185, 186, 187, 188, 189, 190, 191, 192, 193, 194, 195, 196, 197, 198, 199, 200, 201, 202, 203, 204, 205, 206, 207, 208, 209, 210, 211, 212, 213, 214, 215, 216, 217, 218, 219, 220, 221, 222, 223, 224, 225, 226, 227, 228, 229, 230, 231, 232],
      "LargestImagePixelValue": [2585, 2532, 2566, 2665, 2254, 2790, 2480, 2377, 2460, 2312, 2326, 2366, 2590, 2477, 2425, 2223, 2310, 2293, 2428, 2314, 2515, 2350, 2347, 2359, 2419, 2377, 2436, 2486, 2779, 2345, 2623, 2344, 2308, 2422, 2345, 2499, 2329, 2302, 2361, 2297, 2415, 2345, 2574, 2343, 2584, 2412, 2372, 2282, 2508, 2281, 2971, 2355, 2544, 2770, 2408, 2340, 2480, 2398, 2320, 2419, 2361, 2599, 2435, 2293, 2327, 2345, 2643, 2353, 2415, 2363, 2285, 2288, 2291, 2361, 2383, 2390, 2400, 2357, 2343, 2346, 2364, 2373, 2287, 2332, 2388, 2342, 2344, 2339, 2361, 2391, 2362, 2425, 2413, 2342, 2327, 2321, 2395, 2646, 2407, 2338, 2352, 2299, 2341, 2599, 2395, 2316, 2328, 2374, 2326, 2361, 2585, 2382, 2361, 2336, 2393, 2676, 2432, 2321, 2330, 2642, 2341, 2434, 2387, 2337, 2569, 2444, 2322, 2425, 2399, 2362, 2362, 2351, 2339, 2329, 2487, 2321, 2477, 2387, 2407, 2420, 2618, 2378, 2328, 2316, 2314, 2330, 2416, 2411, 2437, 2599, 2347, 2346, 2336, 2446, 2369, 2405, 2340, 2359, 2370, 2418, 2396, 2344, 2462, 2341, 2324, 2586, 2383, 2516, 2331, 2336, 2343, 2357, 2559, 2375, 2370, 2391, 2349, 2318, 2363, 3018, 2418, 2818, 2311, 2478, 2864, 2409, 2456, 2333, 2372, 2334, 2366, 2382, 2403, 2300, 2357, 2465, 2344, 2316, 2383, 2329, 2344, 2343, 2349, 2344, 2337, 2341, 2374, 2390, 2426, 2334, 2306, 2408, 2556, 2321, 2321, 2469, 2317, 2499, 2341, 2409, 2422, 2435, 2591, 2338, 2305, 2396, 2399, 2342, 2492, 2374, 2410, 2550],
      "WindowCenter": [740.0, 737.0, 737.0, 739.0, 734.0, 741.0, 737.0, 734.0, 736.0, 735.0, 737.0, 738.0, 739.0, 735.0, 735.0, 731.0, 736.0, 735.0, 737.0, 735.0, 737.0, 736.0, 736.0, 736.0, 737.0, 738.0, 738.0, 738.0, 740.0, 735.0, 737.0, 735.0, 735.0, 737.0, 736.0, 739.0, 737.0, 735.0, 735.0, 734.0, 736.0, 735.0, 738.0, 735.0, 737.0, 735.0, 735.0, 733.0, 735.0, 733.0, 743.0, 736.0, 739.0, 741.0, 737.0, 736.0, 739.0, 738.0, 736.0, 737.0, 735.0, 737.0, 734.0, 734.0, 736.0, 736.0, 739.0, 735.0, 735.0, 735.0, 733.0, 733.0, 734.0, 736.0, 738.0, 739.0, 738.0, 735.0, 735.0, 736.0, 736.0, 736.0, 734.0, 735.0, 736.0, 735.0, 735.0, 734.0, 736.0, 739.0, 737.0, 737.0, 736.0, 735.0, 734.0, 734.0, 735.0, 738.0, 735.0, 734.0, 735.0, 734.0, 735.0, 739.0, 735.0, 735.0, 736.0, 737.0, 735.0, 734.0, 739.0, 734.0, 736.0, 736.0, 738.0, 742.0, 738.0, 736.0, 736.0, 740.0, 735.0, 736.0, 733.0, 735.0, 740.0, 738.0, 734.0, 737.0, 737.0, 736.0, 736.0, 736.0, 736.0, 737.0, 739.0, 735.0, 737.0, 737.0, 739.0, 740.0, 740.0, 735.0, 733.0, 733.0, 734.0, 735.0, 739.0, 741.0, 739.0, 740.0, 735.0, 734.0, 735.0, 738.0, 739.0, 740.0, 737.0, 737.0, 737.0, 738.0, 739.0, 738.0, 740.0, 738.0, 738.0, 741.0, 737.0, 738.0, 736.0, 736.0, 737.0, 737.0, 739.0, 736.0, 737.0, 737.0, 735.0, 735.0, 736.0, 744.0, 737.0, 742.0, 737.0, 740.0, 744.0, 738.0, 739.0, 738.0, 738.0, 736.0, 736.0, 737.0, 737.0, 735.0, 737.0, 738.0, 736.0, 735.0, 736.0, 736.0, 736.0, 737.0, 737.0, 738.0, 736.0, 736.0, 737.0, 737.0, 737.0, 736.0, 736.0, 737.0, 739.0, 736.0, 735.0, 737.0, 736.0, 741.0, 737.0, 738.0, 736.0, 737.0, 740.0, 733.0, 735.0, 737.0, 738.0, 737.0, 740.0, 739.0, 741.0, 743.0],
      "WindowWidth": [1572.0, 1565.0, 1564.0, 1570.0, 1559.0, 1574.0, 1564.0, 1558.0, 1562.0, 1562.0, 1565.0, 1569.0, 1571.0, 1559.0, 1561.0, 1552.0, 1563.0, 1560.0, 1565.0, 1559.0, 1566.0, 1563.0, 1563.0, 1562.0, 1566.0, 1567.0, 1569.0, 1566.0, 1571.0, 1559.0, 1565.0, 1560.0, 1561.0, 1566.0, 1563.0, 1570.0, 1565.0, 1561.0, 1560.0, 1557.0, 1562.0, 1560.0, 1568.0, 1560.0, 1565.0, 1561.0, 1559.0, 1554.0, 1561.0, 1555.0, 1579.0, 1564.0, 1570.0, 1575.0, 1566.0, 1564.0, 1569.0, 1567.0, 1563.0, 1565.0, 1560.0, 1564.0, 1559.0, 1557.0, 1563.0, 1562.0, 1571.0, 1561.0, 1561.0, 1559.0, 1555.0, 1556.0, 1559.0, 1564.0, 1569.0, 1570.0, 1567.0, 1562.0, 1561.0, 1562.0, 1563.0, 1563.0, 1559.0, 1561.0, 1563.0, 1560.0, 1560.0, 1559.0, 1564.0, 1569.0, 1564.0, 1565.0, 1562.0, 1560.0, 1558.0, 1559.0, 1561.0, 1567.0, 1561.0, 1558.0, 1559.0, 1558.0, 1561.0, 1570.0, 1561.0, 1561.0, 1564.0, 1566.0, 1560.0, 1559.0, 1570.0, 1559.0, 1563.0, 1564.0, 1568.0, 1576.0, 1568.0, 1562.0, 1562.0, 1571.0, 1561.0, 1564.0, 1555.0, 1560.0, 1572.0, 1567.0, 1559.0, 1565.0, 1566.0, 1564.0, 1564.0, 1564.0, 1564.0, 1565.0, 1570.0, 1561.0, 1564.0, 1566.0, 1572.0, 1573.0, 1574.0, 1560.0, 1556.0, 1556.0, 1557.0, 1560.0, 1571.0, 1575.0, 1572.0, 1572.0, 1559.0, 1559.0, 1560.0, 1567.0, 1570.0, 1572.0, 1566.0, 1565.0, 1565.0, 1569.0, 1569.0, 1568.0, 1573.0, 1568.0, 1567.0, 1574.0, 1565.0, 1567.0, 1562.0, 1564.0, 1566.0, 1565.0, 1569.0, 1563.0, 1565.0, 1564.0, 1561.0, 1560.0, 1563.0, 1582.0, 1566.0, 1577.0, 1566.0, 1573.0, 1581.0, 1567.0, 1569.0, 1567.0, 1568.0, 1563.0, 1563.0, 1564.0, 1564.0, 1562.0, 1565.0, 1568.0, 1563.0, 1561.0, 1564.0, 1562.0, 1563.0, 1564.0, 1566.0, 1567.0, 1564.0, 1562.0, 1564.0, 1566.0, 1566.0, 1563.0, 1562.0, 1564.0, 1570.0, 1564.0, 1562.0, 1566.0, 1564.0, 1575.0, 1567.0, 1567.0, 1562.0, 1565.0, 1571.0, 1556.0, 1561.0, 1566.0, 1567.0, 1566.0, 1572.0, 1570.0, 1577.0, 1581.0]
    },
    "slices": {}
  }
}