{
  "AcquisitionMatrixPE": 100,
  "AcquisitionNumber": 1,
  "AcquisitionTime": "12:11:42.520000",
  "BandwidthPerPixelPhaseEncode": 18.519,
  "BaseResolution": 100,
  "BodyPartExamined": "BRAIN",
  "ConsistencyInfo": "N4_VE11C_LATEST_20160120",
  "ConversionSoftware": "dcm2niix",
  "ConversionSoftwareVersion": "v1.0.20180622 GCC4.9.2",
  "DerivedVendorReportedEchoSpacing": 0.000539986,
  "DeviceSerialNumber": "166078",
  "DwellTime": 2.1e-06,
  "EchoTime": 0.034,
  "EchoTrainLength": 100,
  "EffectiveEchoSpacing": 0.000539986,
  "FlipAngle": 90,
  "ImageOrientationPatientDICOM": [0.998729, 0.0044853, -0.0501926, 1.67226e-08, 0.996031, 0.0890074],
  "ImageType": [
    "ORIGINAL",
    "PRIMARY",
    "M",
    "ND",
    "MOSAIC"
],
  "InPlanePhaseEncodingDirectionDICOM": "COL",
  "InstitutionAddress": "Street_StreetNo_Bei_Jing_District_CN_ZIP",
  "InstitutionName": "BeiJing_Normal_University",
  "InstitutionalDepartmentName": "Department",
  "MRAcquisitionType": "2D",
  "MagneticFieldStrength": 3,
  "Manufacturer": "Siemens",
  "ManufacturersModelName": "Prisma",
  "Modality": "MR",
  "MultibandAccelerationFactor": 3,
  "PartialFourier": 1,
  "PatientPosition": "HFS",
  "PercentPhaseFOV": 100,
  "PhaseEncodingDirection": "j-",
  "PhaseEncodingSteps": 100,
  "PhaseResolution": 1,
  "PixelBandwidth": 2380,
  "ProcedureStepDescription": "BNU_P2018_64CH_Liu.Jia",
  "ProtocolName": "bold_100x100_s3_2x2x2_232",
  "PulseSequenceDetails": "%SiemensSeq%_ep2d_bold",
  "ReceiveCoilActiveElements": "HC1-7;NC1",
  "ReceiveCoilName": "HeadNeck_64",
  "ReconMatrixPE": 100,
  "RepetitionTime": 2,
  "SAR": 0.0597762,
  "ScanOptions": "FS",
  "ScanningSequence": "EP",
  "SequenceName": "_epfid2d1_100",
  "SequenceVariant": "SK",
  "SeriesDescription": "bold_100x100_s3_2x2x2_232",
  "SeriesNumber": 8,
  "ShimSetting": [-5484, -11507, -1278, 360, -70, -181, -148, 44],
  "SliceThickness": 2,
  "SliceTiming": [1.485, 0, 0.99, 0.0825, 1.0725, 0.165, 1.155, 0.2475, 1.2375, 0.33, 1.32, 0.4125, 1.4025, 0.5775, 1.5675, 0.66, 1.65, 0.7425, 1.7325, 0.825, 1.815, 0.9075, 1.8975, 0.495, 1.485, 0, 0.99, 0.0825, 1.0725, 0.165, 1.155, 0.2475, 1.2375, 0.33, 1.32, 0.4125, 1.4025, 0.5775, 1.5675, 0.66, 1.65, 0.7425, 1.7325, 0.825, 1.815, 0.9075, 1.8975, 0.495, 1.485, 0, 0.99, 0.0825, 1.0725, 0.165, 1.155, 0.2475, 1.2375, 0.33, 1.32, 0.4125, 1.4025, 0.5775, 1.5675, 0.66, 1.65, 0.7425, 1.7325, 0.825, 1.815, 0.9075, 1.8975, 0.495],
  "SoftwareVersions": "syngo_MR_E11",
  "SpacingBetweenSlices": 2,
  "StationName": "AWP166078",
  "TaskName": "motor",
  "TotalReadoutTime": 0.0534586,
  "TxRefAmp": 207.467,
  "dcmmeta_affine": [
    [-1.9974589347839355, 3.3445161307099625e-08, -0.10078529268503189, 103.44803619384766],
    [-0.008970601484179497, 1.992061972618103, 0.1777886003255844, -92.85713195800781],
    [-0.10038527846336365, -0.17801477015018463, 1.9895310401916504, -46.39968490600586],
    [0.0, 0.0, 0.0, 1.0]
],
  "dcmmeta_reorient_transform": [
    [0.0, -1.0, 0.0, 99.0],
    [1.0, 0.0, 0.0, 0.0],
    [0.0, 0.0, 1.0, 0.0],
    [0.0, 0.0, 0.0, 1.0]
],
  "dcmmeta_shape": [100, 100, 72, 232],
  "dcmmeta_slice_dim": 2,
  "dcmmeta_version": 0.6,
  "global": {
    "const": {
      "AcquisitionMatrix": [100, 0, 0, 100],
      "AngioFlag": "N",
      "BitsAllocated": 16,
      "BitsStored": 12,
      "BodyPartExamined": "BRAIN",
      "Columns": 900,
      "EchoNumbers": 1,
      "EchoTime": 34.0,
      "EchoTrainLength": 100,
      "FlipAngle": 90.0,
      "HighBit": 11,
      "ImageOrientationPatient": [0.99872948348777, 0.00448530092575, -0.0501926377854, 1.6722581e-08, 0.99603096630444, 0.08900738263001],
      "ImagePositionPatient": [-902.43164274341, -904.77001274533, -95.074944401887],
      "ImageType": [
        "ORIGINAL",
        "PRIMARY",
        "M",
        "ND",
        "MOSAIC"
],
      "ImagedNucleus": "1H",
      "ImagingFrequency": 123.257832,
      "InPlanePhaseEncodingDirection": "COL",
      "MRAcquisitionType": "2D",
      "MagneticFieldStrength": 3.0,
      "Manufacturer": "SIEMENS",
      "ManufacturerModelName": "Prisma",
      "Modality": "MR",
      "NumberOfAverages": 1.0,
      "NumberOfPhaseEncodingSteps": 100,
      "PercentPhaseFieldOfView": 100.0,
      "PercentSampling": 100.0,
      "PerformedProcedureStepStartTime": "113946.027000",
      "PhotometricInterpretation": "MONOCHROME2",
      "PixelBandwidth": 2380.0,
      "PixelRepresentation": 0,
      "PixelSpacing": [2.0, 2.0],
      "ProtocolName": "bold_100x100_s3_2x2x2_232",
      "RepetitionTime": 2000.0,
      "Rows": 900,
      "SAR": 0.05977615864284,
      "SamplesPerPixel": 1,
      "ScanOptions": "FS",
      "ScanningSequence": "EP",
      "SequenceName": "*epfid2d1_100",
      "SequenceVariant": "SK",
      "SeriesDescription": "bold_100x100_s3_2x2x2_232",
      "SeriesNumber": 8,
      "SeriesTime": "121144.850000",
      "SliceLocation": -59.624297326015,
      "SliceThickness": 2.0,
      "SmallestImagePixelValue": 0,
      "SoftwareVersions": "syngo MR E11",
      "SpacingBetweenSlices": 2.0000000341072,
      "SpecificCharacterSet": "ISO_IR 100",
      "StudyID": "1",
      "StudyTime": "113945.965000",
      "TransmitCoilName": "Body",
      "VariableFlipAngleFlag": "N",
      "WindowCenterWidthExplanation": "Algo1",
      "dBdt": 0.0},
    "slices": {}
  },
  "time": {
    "samples": {
      "AcquisitionNumber": [1, 2, 3, 4, 5, 6, 7, 8, 9, 10, 11, 12, 13, 14, 15, 16, 17, 18, 19, 20, 21, 22, 23, 24, 25, 26, 27, 28, 29, 30, 31, 32, 33, 34, 35, 36, 37, 38, 39, 40, 41, 42, 43, 44, 45, 46, 47, 48, 49, 50, 51, 52, 53, 54, 55, 56, 57, 58, 59, 60, 61, 62, 63, 64, 65, 66, 67, 68, 69, 70, 71, 72, 73, 74, 75, 76, 77, 78, 79, 80, 81, 82, 83, 84, 85, 86, 87, 88, 89, 90, 91, 92, 93, 94, 95, 96, 97, 98, 99, 100, 101, 102, 103, 104, 105, 106, 107, 108, 109, 110, 111, 112, 113, 114, 115, 116, 117, 118, 119, 120, 121, 122, 123, 124, 125, 126, 127, 128, 129, 130, 131, 132, 133, 134, 135, 136, 137, 138, 139, 140, 141, 142, 143, 144, 145, 146, 147, 148, 149, 150, 151, 152, 153, 154, 155, 156, 157, 158, 159, 160, 161, 162, 163, 164, 165, 166, 167, 168, 169, 170, 171, 172, 173, 174, 175, 176, 177, 178, 179, 180, 181, 182, 183, 184, 185, 186, 187, 188, 189, 190, 191, 192, 193, 194, 195, 196, 197, 198, 199, 200, 201, 202, 203, 204, 205, 206, 207, 208, 209, 210, 211, 212, 213, 214, 215, 216, 217, 218, 219, 220, 221, 222, 223, 224, 225, 226, 227, 228, 229, 230, 231, 232],
      "AcquisitionTime": ["121142.520000", "121144.520000", "121146.520000", "121148.520000", "121150.520000", "121152.520000", "121154.520000", "121156.520000", "121158.520000", "121200.520000", "121202.520000", "121204.520000", "121206.520000", "121208.520000", "121210.520000", "121212.520000", "121214.520000", "121216.520000", "121218.520000", "121220.520000", "121222.520000", "121224.520000", "121226.520000", "121228.520000", "121230.520000", "121232.520000", "121234.520000", "121236.520000", "121238.520000", "121240.520000", "121242.520000", "121244.520000", "121246.520000", "121248.520000", "121250.520000", "121252.520000", "121254.520000", "121256.520000", "121258.520000", "121300.520000", "121302.520000", "121304.520000", "121306.520000", "121308.520000", "121310.520000", "121312.520000", "121314.520000", "121316.520000", "121318.520000", "121320.520000", "121322.520000", "121324.520000", "121326.520000", "121328.520000", "121330.520000", "121332.520000", "121334.520000", "121336.520000", "121338.520000", "121340.520000", "121342.520000", "121344.520000", "121346.520000", "121348.520000", "121350.520000", "121352.520000", "121354.520000", "121356.520000", "121358.520000", "121400.520000", "121402.520000", "121404.520000", "121406.520000", "121408.520000", "121410.520000", "121412.520000", "121414.520000", "121416.520000", "121418.520000", "121420.520000", "121422.520000", "121424.520000", "121426.520000", "121428.520000", "121430.520000", "121432.520000", "121434.520000", "121436.520000", "121438.520000", "121440.520000", "121442.520000", "121444.520000", "121446.520000", "121448.520000", "121450.520000", "121452.520000", "121454.520000", "121456.520000", "121458.520000", "121500.520000", "121502.520000", "121504.520000", "121506.520000", "121508.520000", "121510.520000", "121512.520000", "121514.520000", "121516.520000", "121518.520000", "121520.520000", "121522.520000", "121524.520000", "121526.520000", "121528.520000", "121530.520000", "121532.520000", "121534.520000", "121536.520000", "121538.520000", "121540.520000", "121542.520000", "121544.520000", "121546.520000", "121548.520000", "121550.520000", "121552.520000", "121554.520000", "121556.520000", "121558.520000", "121600.520000", "121602.520000", "121604.520000", "121606.520000", "121608.520000", "121610.520000", "121612.520000", "121614.520000", "121616.520000", "121618.520000", "121620.520000", "121622.520000", "121624.520000", "121626.520000", "121628.520000", "121630.520000", "121632.520000", "121634.520000", "121636.520000", "121638.520000", "121640.520000", "121642.520000", "121644.520000", "121646.520000", "121648.520000", "121650.520000", "121652.520000", "121654.520000", "121656.520000", "121658.520000", "121700.520000", "121702.520000", "121704.520000", "121706.520000", "121708.520000", "121710.520000", "121712.520000", "121714.520000", "121716.520000", "121718.520000", "121720.520000", "121722.520000", "121724.520000", "121726.520000", "121728.520000", "121730.520000", "121732.520000", "121734.520000", "121736.520000", "121738.520000", "121740.520000", "121742.520000", "121744.520000", "121746.520000", "121748.520000", "121750.520000", "121752.520000", "121754.520000", "121756.520000", "121758.520000", "121800.520000", "121802.520000", "121804.520000", "121806.520000", "121808.520000", "121810.520000", "121812.520000", "121814.520000", "121816.520000", "121818.520000", "121820.520000", "121822.520000", "121824.520000", "121826.520000", "121828.520000", "121830.520000", "121832.520000", "121834.520000", "121836.520000", "121838.520000", "121840.520000", "121842.520000", "121844.520000", "121846.520000", "121848.520000", "121850.520000", "121852.520000", "121854.520000", "121856.520000", "121858.520000", "121900.520000", "121902.520000", "121904.520000", "121906.520000", "121908.520000", "121910.520000", "121912.520000", "121914.520000", "121916.520000", "121918.520000", "121920.520000", "121922.520000", "121924.520000"],
      "ContentTime": ["121144.853000", "121145.849000", "121148.349000", "121150.349000", "121152.349000", "121153.849000", "121156.349000", "121158.349000", "121200.349000", "121202.349000", "121203.849000", "121206.349000", "121208.349000", "121210.348000", "121212.348000", "121214.348000", "121216.349000", "121218.349000", "121220.349000", "121222.349000", "121224.349000", "121226.350000", "121228.349000", "121230.348000", "121232.348000", "121234.350000", "121236.350000", "121238.349000", "121240.349000", "121242.349000", "121244.349000", "121246.349000", "121248.349000", "121249.852000", "121251.849000", "121253.850000", "121256.349000", "121258.350000", "121300.350000", "121301.849000", "121303.849000", "121306.349000", "121308.348000", "121310.349000", "121311.849000", "121313.850000", "121316.350000", "121318.350000", "121320.349000", "121321.848000", "121324.349000", "121326.350000", "121328.349000", "121330.349000", "121332.349000", "121333.849000", "121336.350000", "121338.348000", "121339.849000", "121342.349000", "121344.349000", "121345.850000", "121348.350000", "121350.349000", "121352.350000", "121354.349000", "121355.848000", "121358.348000", "121400.348000", "121401.849000", "121404.349000", "121406.349000", "121408.349000", "121410.350000", "121412.349000", "121414.349000", "121416.349000", "121418.349000", "121420.349000", "121422.349000", "121423.849000", "121425.849000", "121428.349000", "121430.348000", "121431.849000", "121433.849000", "121436.349000", "121437.849000", "121440.349000", "121442.350000", "121444.349000", "121446.349000", "121448.348000", "121450.348000", "121451.849000", "121453.850000", "121456.349000", "121458.350000", "121500.349000", "121502.349000", "121504.349000", "121506.349000", "121508.349000", "121510.348000", "121511.850000", "121513.850000", "121516.349000", "121518.350000", "121520.349000", "121522.349000", "121523.848000", "121526.349000", "121527.849000", "121529.850000", "121531.849000", "121534.349000", "121536.349000", "121538.350000", "121540.349000", "121542.348000", "121544.348000", "121546.350000", "121548.350000", "121550.349000", "121552.349000", "121554.350000", "121556.350000", "121558.349000", "121600.348000", "121602.349000", "121604.350000", "121606.350000", "121608.349000", "121610.349000", "121612.349000", "121614.350000", "121616.349000", "121617.848000", "121620.349000", "121622.350000", "121624.349000", "121625.850000", "121628.349000", "121630.349000", "121632.349000", "121633.848000", "121636.348000", "121638.350000", "121640.350000", "121642.349000", "121644.349000", "121646.349000", "121648.350000", "121650.348000", "121652.348000", "121654.349000", "121656.350000", "121658.349000", "121659.849000", "121702.349000", "121704.349000", "121706.349000", "121708.348000", "121710.349000", "121711.848000", "121714.349000", "121716.349000", "121718.349000", "121720.349000", "121721.849000", "121724.349000", "121726.348000", "121728.348000", "121730.349000", "121731.850000", "121734.350000", "121735.849000", "121737.850000", "121740.349000", "121742.350000", "121744.348000", "121746.348000", "121748.349000", "121750.349000", "121752.349000", "121754.350000", "121756.350000", "121758.350000", "121800.348000", "121801.848000", "121804.348000", "121806.349000", "121807.850000", "121810.350000", "121812.349000", "121814.349000", "121816.350000", "121818.348000", "121820.361000", "121822.349000", "121824.349000", "121826.350000", "121828.349000", "121830.350000", "121832.349000", "121833.850000", "121835.849000", "121838.349000", "121840.348000", "121842.350000", "121844.349000", "121846.349000", "121848.350000", "121849.849000", "121852.349000", "121854.348000", "121855.849000", "121858.350000", "121859.850000", "121902.349000", "121904.350000", "121906.350000", "121908.349000", "121910.348000", "121912.349000", "121914.348000", "121916.349000", "121918.350000", "121920.350000", "121922.349000", "121923.849000", "121925.883000"],
      "InstanceCreationTime": ["121144.853000", "121145.849000", "121148.349000", "121150.349000", "121152.349000", "121153.849000", "121156.349000", "121158.349000", "121200.349000", "121202.349000", "121203.849000", "121206.349000", "121208.349000", "121210.348000", "121212.348000", "121214.348000", "121216.349000", "121218.349000", "121220.349000", "121222.349000", "121224.349000", "121226.350000", "121228.349000", "121230.348000", "121232.348000", "121234.350000", "121236.350000", "121238.349000", "121240.349000", "121242.349000", "121244.349000", "121246.349000", "121248.349000", "121249.852000", "121251.849000", "121253.850000", "121256.349000", "121258.350000", "121300.350000", "121301.849000", "121303.849000", "121306.349000", "121308.348000", "121310.349000", "121311.849000", "121313.850000", "121316.350000", "121318.350000", "121320.349000", "121321.848000", "121324.349000", "121326.350000", "121328.349000", "121330.349000", "121332.349000", "121333.849000", "121336.350000", "121338.348000", "121339.849000", "121342.349000", "121344.349000", "121345.850000", "121348.350000", "121350.349000", "121352.350000", "121354.349000", "121355.848000", "121358.348000", "121400.348000", "121401.849000", "121404.349000", "121406.349000", "121408.349000", "121410.350000", "121412.349000", "121414.349000", "121416.349000", "121418.349000", "121420.349000", "121422.349000", "121423.849000", "121425.849000", "121428.349000", "121430.348000", "121431.849000", "121433.849000", "121436.349000", "121437.849000", "121440.349000", "121442.350000", "121444.349000", "121446.349000", "121448.348000", "121450.348000", "121451.849000", "121453.850000", "121456.349000", "121458.350000", "121500.349000", "121502.349000", "121504.349000", "121506.349000", "121508.349000", "121510.348000", "121511.850000", "121513.850000", "121516.349000", "121518.350000", "121520.349000", "121522.349000", "121523.848000", "121526.349000", "121527.849000", "121529.850000", "121531.849000", "121534.349000", "121536.349000", "121538.350000", "121540.349000", "121542.348000", "121544.348000", "121546.350000", "121548.350000", "121550.349000", "121552.349000", "121554.350000", "121556.350000", "121558.349000", "121600.348000", "121602.349000", "121604.350000", "121606.350000", "121608.349000", "121610.349000", "121612.349000", "121614.350000", "121616.349000", "121617.848000", "121620.349000", "121622.350000", "121624.349000", "121625.850000", "121628.349000", "121630.349000", "121632.349000", "121633.848000", "121636.348000", "121638.350000", "121640.350000", "121642.349000", "121644.349000", "121646.349000", "121648.350000", "121650.348000", "121652.348000", "121654.349000", "121656.350000", "121658.349000", "121659.849000", "121702.349000", "121704.349000", "121706.349000", "121708.348000", "121710.349000", "121711.848000", "121714.349000", "121716.349000", "121718.349000", "121720.349000", "121721.849000", "121724.349000", "121726.348000", "121728.348000", "121730.349000", "121731.850000", "121734.350000", "121735.849000", "121737.850000", "121740.349000", "121742.350000", "121744.348000", "121746.348000", "121748.349000", "121750.349000", "121752.349000", "121754.350000", "121756.350000", "121758.350000", "121800.348000", "121801.848000", "121804.348000", "121806.349000", "121807.850000", "121810.350000", "121812.349000", "121814.349000", "121816.350000", "121818.348000", "121820.361000", "121822.349000", "121824.349000", "121826.350000", "121828.349000", "121830.350000", "121832.349000", "121833.850000", "121835.849000", "121838.349000", "121840.348000", "121842.350000", "121844.349000", "121846.349000", "121848.350000", "121849.849000", "121852.349000", "121854.348000", "121855.849000", "121858.350000", "121859.850000", "121902.349000", "121904.350000", "121906.350000", "121908.349000", "121910.348000", "121912.349000", "121914.348000", "121916.349000", "121918.350000", "121920.350000", "121922.349000", "121923.849000", "121925.883000"],
      "InstanceNumber": [1, 2, 3, 4, 5, 6, 7, 8, 9, 10, 11, 12, 13, 14, 15, 16, 17, 18, 19, 20, 21, 22, 23, 24, 25, 26, 27, 28, 29, 30, 31, 32, 33, 34, 35, 36, 37, 38, 39, 40, 41, 42, 43, 44, 45, 46, 47, 48, 49, 50, 51, 52, 53, 54, 55, 56, 57, 58, 59, 60, 61, 62, 63, 64, 65, 66, 67, 68, 69, 70, 71, 72, 73, 74, 75, 76, 77, 78, 79, 80, 81, 82, 83, 84, 85, 86, 87, 88, 89, 90, 91, 92, 93, 94, 95, 96, 97, 98, 99, 100, 101, 102, 103, 104, 105, 106, 107, 108, 109, 110, 111, 112, 113, 114, 115, 116, 117, 118, 119, 120, 121, 122, 123, 124, 125, 126, 127, 128, 129, 130, 131, 132, 133, 134, 135, 136, 137, 138, 139, 140, 141, 142, 143, 144, 145, 146, 147, 148, 149, 150, 151, 152, 153, 154, 155, 156, 157, 158, 159, 160, 161, 162, 163, 164, 165, 166, 167, 168, 169, 170, 171, 172, 173, 174, 175, 176, 177, 178, 179, 180, 181, 182, 183, 184, 185, 186, 187, 188, 189, 190, 191, 192, 193, 194, 195, 196, 197, 198, 199, 200, 201, 202, 203, 204, 205, 206, 207, 208, 209, 210, 211, 212, 213, 214, 215, 216, 217, 218, 219, 220, 221, 222, 223, 224, 225, 226, 227, 228, 229, 230, 231, 232],
      "LargestImagePixelValue": [2534, 2547, 2378, 2511, 2325, 2713, 2331, 2648, 2420, 2426, 2453, 2571, 2494, 2713, 2363, 2692, 2353, 2468, 2378, 2388, 2928, 2474, 2578, 2355, 2450, 2962, 2359, 2470, 2524, 2855, 2676, 2457, 2519, 2403, 2579, 2393, 2395, 2384, 2571, 2278, 2615, 2417, 2501, 2396, 2422, 2560, 2410, 2390, 2399, 2371, 2713, 2400, 2624, 2620, 2424, 2375, 2395, 2701, 2369, 2390, 2480, 2398, 2387, 2385, 2637, 2490, 2401, 2685, 2632, 2412, 2587, 2467, 2513, 2539, 2466, 2333, 2390, 2498, 2480, 2402, 2383, 2478, 2333, 2513, 2646, 2502, 2325, 2307, 2439, 2698, 2450, 2313, 2335, 2822, 2627, 2260, 2680, 2422, 2367, 2337, 2278, 2520, 2365, 2597, 2327, 2314, 2592, 2284, 2380, 2478, 2275, 2407, 2384, 2447, 2460, 2410, 2341, 2280, 2295, 2670, 2554, 2372, 2651, 2534, 2383, 2399, 2274, 2334, 2290, 2310, 2355, 2335, 2554, 2772, 2517, 2435, 2526, 2519, 2660, 2360, 2496, 2348, 2609, 2492, 2254, 2542, 2446, 2410, 2579, 2275, 2256, 2258, 2589, 2349, 2310, 2299, 2564, 2357, 2338, 2392, 2331, 2636, 2258, 2354, 2290, 2478, 2362, 2559, 2458, 2247, 2282, 2401, 2316, 2732, 2450, 2307, 2313, 2559, 2311, 2297, 2471, 2431, 2455, 2349, 2523, 2326, 2287, 2315, 2480, 2275, 2264, 2508, 2338, 2271, 2261, 2564, 2480, 2517, 2335, 2281, 2262, 2402, 2231, 2895, 2374, 2777, 2343, 2240, 2968, 2253, 2503, 2535, 2339, 2376, 2217, 2303, 2260, 2244, 2254, 2423, 2248, 2238, 2240, 2285, 2287, 2314, 2282, 2301, 2231, 2373, 2324, 2429],
      "WindowCenter": [739.0, 738.0, 737.0, 738.0, 733.0, 738.0, 734.0, 739.0, 737.0, 737.0, 739.0, 739.0, 737.0, 739.0, 734.0, 738.0, 734.0, 738.0, 740.0, 740.0, 744.0, 738.0, 738.0, 735.0, 737.0, 743.0, 737.0, 739.0, 738.0, 741.0, 739.0, 737.0, 739.0, 737.0, 739.0, 737.0, 736.0, 736.0, 737.0, 733.0, 739.0, 735.0, 737.0, 735.0, 736.0, 738.0, 736.0, 737.0, 738.0, 736.0, 740.0, 736.0, 739.0, 739.0, 737.0, 737.0, 737.0, 740.0, 735.0, 735.0, 736.0, 736.0, 735.0, 736.0, 739.0, 738.0, 737.0, 741.0, 739.0, 734.0, 737.0, 735.0, 736.0, 737.0, 736.0, 735.0, 736.0, 737.0, 738.0, 737.0, 737.0, 738.0, 736.0, 739.0, 741.0, 738.0, 736.0, 736.0, 738.0, 741.0, 738.0, 736.0, 737.0, 741.0, 738.0, 733.0, 739.0, 736.0, 736.0, 736.0, 736.0, 737.0, 734.0, 737.0, 736.0, 736.0, 740.0, 736.0, 737.0, 739.0, 736.0, 739.0, 738.0, 738.0, 738.0, 737.0, 737.0, 736.0, 735.0, 739.0, 738.0, 736.0, 740.0, 738.0, 736.0, 736.0, 736.0, 737.0, 736.0, 738.0, 740.0, 739.0, 739.0, 740.0, 735.0, 735.0, 737.0, 736.0, 739.0, 737.0, 739.0, 736.0, 739.0, 738.0, 734.0, 738.0, 736.0, 737.0, 740.0, 735.0, 734.0, 734.0, 739.0, 736.0, 736.0, 735.0, 738.0, 736.0, 737.0, 737.0, 736.0, 740.0, 736.0, 738.0, 736.0, 738.0, 735.0, 737.0, 736.0, 734.0, 736.0, 738.0, 736.0, 740.0, 737.0, 734.0, 735.0, 739.0, 737.0, 736.0, 738.0, 737.0, 737.0, 734.0, 737.0, 736.0, 736.0, 737.0, 738.0, 735.0, 735.0, 739.0, 737.0, 737.0, 736.0, 741.0, 739.0, 737.0, 735.0, 734.0, 734.0, 736.0, 733.0, 743.0, 737.0, 743.0, 737.0, 735.0, 744.0, 736.0, 741.0, 742.0, 737.0, 736.0, 733.0, 735.0, 735.0, 734.0, 734.0, 736.0, 734.0, 734.0, 735.0, 737.0, 737.0, 737.0, 736.0, 736.0, 734.0, 736.0, 736.0, 737.0],
      "WindowWidth": [1571.0, 1568.0, 1565.0, 1568.0, 1557.0, 1568.0, 1558.0, 1570.0, 1567.0, 1565.0, 1569.0, 1571.0, 1566.0, 1570.0, 1559.0, 1568.0, 1559.0, 1569.0, 1573.0, 1573.0, 1583.0, 1567.0, 1567.0, 1561.0, 1565.0, 1581.0, 1567.0, 1570.0, 1568.0, 1574.0, 1570.0, 1566.0, 1570.0, 1566.0, 1569.0, 1564.0, 1562.0, 1562.0, 1564.0, 1556.0, 1569.0, 1561.0, 1564.0, 1561.0, 1562.0, 1567.0, 1563.0, 1565.0, 1567.0, 1564.0, 1573.0, 1563.0, 1570.0, 1568.0, 1564.0, 1565.0, 1565.0, 1572.0, 1559.0, 1560.0, 1562.0, 1562.0, 1562.0, 1563.0, 1570.0, 1567.0, 1566.0, 1574.0, 1569.0, 1559.0, 1565.0, 1561.0, 1563.0, 1564.0, 1563.0, 1561.0, 1563.0, 1565.0, 1567.0, 1565.0, 1564.0, 1567.0, 1563.0, 1570.0, 1574.0, 1568.0, 1564.0, 1564.0, 1567.0, 1574.0, 1567.0, 1563.0, 1564.0, 1573.0, 1567.0, 1555.0, 1569.0, 1562.0, 1563.0, 1563.0, 1562.0, 1564.0, 1559.0, 1566.0, 1564.0, 1563.0, 1573.0, 1562.0, 1566.0, 1569.0, 1563.0, 1571.0, 1568.0, 1568.0, 1568.0, 1566.0, 1565.0, 1562.0, 1560.0, 1569.0, 1566.0, 1562.0, 1571.0, 1568.0, 1563.0, 1563.0, 1562.0, 1566.0, 1563.0, 1568.0, 1572.0, 1570.0, 1569.0, 1572.0, 1560.0, 1559.0, 1564.0, 1563.0, 1570.0, 1565.0, 1571.0, 1564.0, 1570.0, 1568.0, 1558.0, 1567.0, 1563.0, 1565.0, 1572.0, 1560.0, 1559.0, 1558.0, 1570.0, 1563.0, 1562.0, 1559.0, 1566.0, 1562.0, 1565.0, 1566.0, 1561.0, 1572.0, 1563.0, 1567.0, 1563.0, 1567.0, 1559.0, 1565.0, 1563.0, 1558.0, 1563.0, 1568.0, 1562.0, 1571.0, 1564.0, 1558.0, 1561.0, 1570.0, 1566.0, 1563.0, 1568.0, 1564.0, 1565.0, 1559.0, 1565.0, 1562.0, 1563.0, 1564.0, 1568.0, 1560.0, 1560.0, 1569.0, 1566.0, 1565.0, 1562.0, 1575.0, 1569.0, 1566.0, 1560.0, 1558.0, 1558.0, 1562.0, 1556.0, 1578.0, 1565.0, 1580.0, 1566.0, 1562.0, 1582.0, 1563.0, 1576.0, 1577.0, 1566.0, 1563.0, 1556.0, 1562.0, 1560.0, 1559.0, 1558.0, 1564.0, 1558.0, 1558.0, 1562.0, 1565.0, 1565.0, 1566.0, 1562.0, 1563.0, 1557.0, 1563.0, 1563.0, 1565.0]
    },
    "slices": {}
  }
}