{
  "AcquisitionMatrixPE": 100,
  "AcquisitionNumber": 1,
  "AcquisitionTime": "17:08:30.047500",
  "BandwidthPerPixelPhaseEncode": 18.519,
  "BaseResolution": 100,
  "BodyPartExamined": "BRAIN",
  "ConsistencyInfo": "N4_VE11C_LATEST_20160120",
  "ConversionSoftware": "dcm2niix",
  "ConversionSoftwareVersion": "v1.0.20180622 GCC4.9.2",
  "DerivedVendorReportedEchoSpacing": 0.000539986,
  "DeviceSerialNumber": "166078",
  "DwellTime": 2.1e-06,
  "EchoTime": 0.034,
  "EchoTrainLength": 100,
  "EffectiveEchoSpacing": 0.000539986,
  "FlipAngle": 90,
  "ImageOrientationPatientDICOM": [1, 0, 0, 0, 1, 0],
  "ImageType": [
    "ORIGINAL",
    "PRIMARY",
    "M",
    "ND",
    "MOSAIC"
],
  "InPlanePhaseEncodingDirectionDICOM": "COL",
  "InstitutionAddress": "Street_StreetNo_Bei_Jing_District_CN_ZIP",
  "InstitutionName": "BeiJing_Normal_University",
  "InstitutionalDepartmentName": "Department",
  "MRAcquisitionType": "2D",
  "MagneticFieldStrength": 3,
  "Manufacturer": "Siemens",
  "ManufacturersModelName": "Prisma",
  "Modality": "MR",
  "MultibandAccelerationFactor": 3,
  "PartialFourier": 1,
  "PatientPosition": "HFS",
  "PercentPhaseFOV": 100,
  "PhaseEncodingDirection": "j-",
  "PhaseEncodingSteps": 100,
  "PhaseResolution": 1,
  "PixelBandwidth": 2380,
  "ProcedureStepDescription": "BNU_P2018_64CH_Liu.Jia",
  "ProtocolName": "bold_100x100_s3_2x2x2_232",
  "PulseSequenceDetails": "%SiemensSeq%_ep2d_bold",
  "ReceiveCoilActiveElements": "HC1-7;NC1",
  "ReceiveCoilName": "HeadNeck_64",
  "ReconMatrixPE": 100,
  "RepetitionTime": 2,
  "SAR": 0.0779112,
  "ScanOptions": "FS",
  "ScanningSequence": "EP",
  "SequenceName": "_epfid2d1_100",
  "SequenceVariant": "SK",
  "SeriesDescription": "bold_100x100_s3_2x2x2_232",
  "SeriesNumber": 3,
  "ShimSetting": [-5463, -11467, -1235, 372, 30, -143, -256, 40],
  "SliceThickness": 2,
  "SliceTiming": [1.485, 0, 0.99, 0.0825, 1.0725, 0.165, 1.155, 0.2475, 1.2375, 0.33, 1.32, 0.4125, 1.4025, 0.5775, 1.5675, 0.66, 1.65, 0.7425, 1.7325, 0.825, 1.815, 0.9075, 1.8975, 0.495, 1.485, 0, 0.99, 0.0825, 1.0725, 0.165, 1.155, 0.2475, 1.2375, 0.33, 1.32, 0.4125, 1.4025, 0.5775, 1.5675, 0.66, 1.65, 0.7425, 1.7325, 0.825, 1.815, 0.9075, 1.8975, 0.495, 1.485, 0, 0.99, 0.0825, 1.0725, 0.165, 1.155, 0.2475, 1.2375, 0.33, 1.32, 0.4125, 1.4025, 0.5775, 1.5675, 0.66, 1.65, 0.7425, 1.7325, 0.825, 1.815, 0.9075, 1.8975, 0.495],
  "SoftwareVersions": "syngo_MR_E11",
  "SpacingBetweenSlices": 2,
  "StationName": "AWP166078",
  "TaskName": "motor",
  "TotalReadoutTime": 0.0534586,
  "TxRefAmp": 231.814,
  "dcmmeta_affine": [
    [-2.0, 0.0, 0.0, 99.32530212402344],
    [0.0, 2.0, 0.0, -98.48674774169922],
    [0.0, 0.0, 2.0, -68.59036254882812],
    [0.0, 0.0, 0.0, 1.0]
],
  "dcmmeta_reorient_transform": [
    [0.0, -1.0, 0.0, 99.0],
    [1.0, 0.0, 0.0, 0.0],
    [0.0, 0.0, 1.0, 0.0],
    [0.0, 0.0, 0.0, 1.0]
],
  "dcmmeta_shape": [100, 100, 72, 232],
  "dcmmeta_slice_dim": 2,
  "dcmmeta_version": 0.6,
  "global": {
    "const": {
      "AcquisitionMatrix": [100, 0, 0, 100],
      "AngioFlag": "N",
      "BitsAllocated": 16,
      "BitsStored": 12,
      "BodyPartExamined": "BRAIN",
      "Columns": 900,
      "EchoNumbers": 1,
      "EchoTime": 34.0,
      "EchoTrainLength": 100,
      "FlipAngle": 90.0,
      "HighBit": 11,
      "ImageOrientationPatient": [1.0, 0.0, 0.0, 0.0, 1.0, 0.0],
      "ImagePositionPatient": [-899.32530122995, -899.51325300336, -68.590362548828],
      "ImageType": [
        "ORIGINAL",
        "PRIMARY",
        "M",
        "ND",
        "MOSAIC"
],
      "ImagedNucleus": "1H",
      "ImagingFrequency": 123.257788,
      "InPlanePhaseEncodingDirection": "COL",
      "MRAcquisitionType": "2D",
      "MagneticFieldStrength": 3.0,
      "Manufacturer": "SIEMENS",
      "ManufacturerModelName": "Prisma",
      "Modality": "MR",
      "NumberOfAverages": 1.0,
      "NumberOfPhaseEncodingSteps": 100,
      "PercentPhaseFieldOfView": 100.0,
      "PercentSampling": 100.0,
      "PerformedProcedureStepStartTime": "164957.957000",
      "PhotometricInterpretation": "MONOCHROME2",
      "PixelBandwidth": 2380.0,
      "PixelRepresentation": 0,
      "PixelSpacing": [2.0, 2.0],
      "ProtocolName": "bold_100x100_s3_2x2x2_232",
      "RepetitionTime": 2000.0,
      "Rows": 900,
      "SAR": 0.07791117140663,
      "SamplesPerPixel": 1,
      "ScanOptions": "FS",
      "ScanningSequence": "EP",
      "SequenceName": "*epfid2d1_100",
      "SequenceVariant": "SK",
      "SeriesDescription": "bold_100x100_s3_2x2x2_232",
      "SeriesNumber": 3,
      "SeriesTime": "170832.773000",
      "SliceLocation": -68.590362548828,
      "SliceThickness": 2.0,
      "SmallestImagePixelValue": 0,
      "SoftwareVersions": "syngo MR E11",
      "SpacingBetweenSlices": 2.0,
      "SpecificCharacterSet": "ISO_IR 100",
      "StudyID": "1",
      "StudyTime": "164957.828000",
      "TransmitCoilName": "Body",
      "VariableFlipAngleFlag": "N",
      "WindowCenterWidthExplanation": "Algo1",
      "dBdt": 0.0},
    "slices": {}
  },
  "time": {
    "samples": {
      "AcquisitionNumber": [1, 2, 3, 4, 5, 6, 7, 8, 9, 10, 11, 12, 13, 14, 15, 16, 17, 18, 19, 20, 21, 22, 23, 24, 25, 26, 27, 28, 29, 30, 31, 32, 33, 34, 35, 36, 37, 38, 39, 40, 41, 42, 43, 44, 45, 46, 47, 48, 49, 50, 51, 52, 53, 54, 55, 56, 57, 58, 59, 60, 61, 62, 63, 64, 65, 66, 67, 68, 69, 70, 71, 72, 73, 74, 75, 76, 77, 78, 79, 80, 81, 82, 83, 84, 85, 86, 87, 88, 89, 90, 91, 92, 93, 94, 95, 96, 97, 98, 99, 100, 101, 102, 103, 104, 105, 106, 107, 108, 109, 110, 111, 112, 113, 114, 115, 116, 117, 118, 119, 120, 121, 122, 123, 124, 125, 126, 127, 128, 129, 130, 131, 132, 133, 134, 135, 136, 137, 138, 139, 140, 141, 142, 143, 144, 145, 146, 147, 148, 149, 150, 151, 152, 153, 154, 155, 156, 157, 158, 159, 160, 161, 162, 163, 164, 165, 166, 167, 168, 169, 170, 171, 172, 173, 174, 175, 176, 177, 178, 179, 180, 181, 182, 183, 184, 185, 186, 187, 188, 189, 190, 191, 192, 193, 194, 195, 196, 197, 198, 199, 200, 201, 202, 203, 204, 205, 206, 207, 208, 209, 210, 211, 212, 213, 214, 215, 216, 217, 218, 219, 220, 221, 222, 223, 224, 225, 226, 227, 228, 229, 230, 231, 232],
      "AcquisitionTime": ["170830.047500", "170832.047500", "170834.047500", "170836.047500", "170838.047500", "170840.047500", "170842.047500", "170844.047500", "170846.047500", "170848.047500", "170850.047500", "170852.047500", "170854.047500", "170856.047500", "170858.047500", "170900.047500", "170902.047500", "170904.047500", "170906.047500", "170908.047500", "170910.047500", "170912.047500", "170914.047500", "170916.047500", "170918.047500", "170920.047500", "170922.047500", "170924.047500", "170926.047500", "170928.047500", "170930.047500", "170932.047500", "170934.047500", "170936.047500", "170938.047500", "170940.047500", "170942.047500", "170944.047500", "170946.047500", "170948.047500", "170950.047500", "170952.047500", "170954.047500", "170956.047500", "170958.047500", "171000.047500", "171002.047500", "171004.047500", "171006.047500", "171008.047500", "171010.047500", "171012.047500", "171014.047500", "171016.047500", "171018.047500", "171020.047500", "171022.047500", "171024.047500", "171026.047500", "171028.047500", "171030.047500", "171032.047500", "171034.047500", "171036.047500", "171038.047500", "171040.047500", "171042.047500", "171044.047500", "171046.047500", "171048.047500", "171050.047500", "171052.047500", "171054.047500", "171056.047500", "171058.047500", "171100.047500", "171102.047500", "171104.047500", "171106.047500", "171108.047500", "171110.047500", "171112.047500", "171114.047500", "171116.047500", "171118.047500", "171120.047500", "171122.047500", "171124.047500", "171126.047500", "171128.047500", "171130.047500", "171132.047500", "171134.047500", "171136.047500", "171138.047500", "171140.047500", "171142.047500", "171144.047500", "171146.047500", "171148.047500", "171150.047500", "171152.047500", "171154.047500", "171156.047500", "171158.047500", "171200.047500", "171202.047500", "171204.047500", "171206.047500", "171208.047500", "171210.047500", "171212.047500", "171214.047500", "171216.047500", "171218.047500", "171220.047500", "171222.047500", "171224.047500", "171226.047500", "171228.047500", "171230.047500", "171232.047500", "171234.047500", "171236.047500", "171238.047500", "171240.047500", "171242.047500", "171244.047500", "171246.047500", "171248.047500", "171250.047500", "171252.047500", "171254.047500", "171256.047500", "171258.047500", "171300.047500", "171302.047500", "171304.047500", "171306.047500", "171308.047500", "171310.047500", "171312.047500", "171314.047500", "171316.047500", "171318.047500", "171320.047500", "171322.047500", "171324.047500", "171326.047500", "171328.047500", "171330.047500", "171332.047500", "171334.047500", "171336.047500", "171338.047500", "171340.047500", "171342.047500", "171344.047500", "171346.047500", "171348.047500", "171350.047500", "171352.047500", "171354.047500", "171356.047500", "171358.047500", "171400.047500", "171402.047500", "171404.047500", "171406.047500", "171408.047500", "171410.047500", "171412.047500", "171414.047500", "171416.047500", "171418.047500", "171420.047500", "171422.047500", "171424.047500", "171426.047500", "171428.047500", "171430.047500", "171432.047500", "171434.047500", "171436.047500", "171438.047500", "171440.047500", "171442.047500", "171444.047500", "171446.047500", "171448.047500", "171450.047500", "171452.047500", "171454.047500", "171456.047500", "171458.047500", "171500.047500", "171502.047500", "171504.047500", "171506.047500", "171508.047500", "171510.047500", "171512.047500", "171514.047500", "171516.047500", "171518.047500", "171520.047500", "171522.047500", "171524.047500", "171526.047500", "171528.047500", "171530.047500", "171532.047500", "171534.047500", "171536.047500", "171538.047500", "171540.047500", "171542.047500", "171544.047500", "171546.047500", "171548.047500", "171550.047500", "171552.047500", "171554.047500", "171556.047500", "171558.047500", "171600.047500", "171602.047500", "171604.047500", "171606.047500", "171608.047500", "171610.047500", "171612.047500"],
      "ContentTime": ["170832.777000", "170834.270000", "170836.270000", "170838.270000", "170840.271000", "170842.270000", "170844.270000", "170846.270000", "170848.270000", "170850.270000", "170852.270000", "170854.270000", "170856.270000", "170858.270000", "170900.270000", "170902.270000", "170904.270000", "170906.271000", "170908.270000", "170910.270000", "170912.271000", "170914.270000", "170916.270000", "170918.270000", "170920.270000", "170922.269000", "170924.270000", "170926.270000", "170928.271000", "170930.271000", "170932.270000", "170934.270000", "170936.270000", "170938.271000", "170940.271000", "170942.271000", "170944.270000", "170946.270000", "170948.271000", "170950.270000", "170952.271000", "170954.270000", "170956.270000", "170958.271000", "171000.270000", "171002.270000", "171004.270000", "171006.270000", "171008.270000", "171010.271000", "171012.271000", "171014.270000", "171016.270000", "171018.270000", "171020.270000", "171022.270000", "171024.270000", "171026.270000", "171028.270000", "171030.271000", "171032.269000", "171034.270000", "171036.270000", "171038.270000", "171040.270000", "171042.271000", "171044.270000", "171046.271000", "171048.270000", "171050.271000", "171052.271000", "171054.270000", "171056.270000", "171058.270000", "171100.270000", "171102.270000", "171104.270000", "171105.770000", "171108.271000", "171110.271000", "171112.271000", "171114.270000", "171116.270000", "171118.270000", "171120.270000", "171122.271000", "171124.270000", "171126.271000", "171128.270000", "171130.270000", "171132.270000", "171134.271000", "171136.271000", "171138.271000", "171140.270000", "171142.270000", "171144.270000", "171146.270000", "171148.270000", "171150.270000", "171152.271000", "171154.270000", "171156.270000", "171158.270000", "171200.270000", "171202.271000", "171204.271000", "171206.270000", "171208.270000", "171210.270000", "171212.270000", "171214.271000", "171216.270000", "171218.270000", "171220.270000", "171222.270000", "171224.270000", "171226.271000", "171228.270000", "171230.270000", "171232.270000", "171234.270000", "171236.271000", "171238.270000", "171240.271000", "171242.270000", "171244.271000", "171246.270000", "171248.270000", "171250.270000", "171251.771000", "171254.270000", "171256.270000", "171258.271000", "171300.270000", "171302.271000", "171304.271000", "171306.270000", "171308.270000", "171310.270000", "171312.270000", "171314.270000", "171316.270000", "171318.271000", "171320.271000", "171322.271000", "171324.271000", "171326.271000", "171328.270000", "171330.271000", "171332.270000", "171334.270000", "171336.270000", "171338.270000", "171340.271000", "171342.271000", "171344.271000", "171346.270000", "171348.270000", "171350.270000", "171352.271000", "171354.270000", "171356.270000", "171358.271000", "171400.270000", "171402.270000", "171404.270000", "171406.271000", "171408.270000", "171410.270000", "171412.270000", "171414.271000", "171416.271000", "171418.270000", "171420.271000", "171422.271000", "171424.270000", "171426.271000", "171428.270000", "171430.270000", "171432.271000", "171434.271000", "171436.270000", "171438.271000", "171440.270000", "171442.271000", "171444.271000", "171446.270000", "171448.271000", "171450.270000", "171452.271000", "171454.270000", "171455.770000", "171458.271000", "171500.270000", "171502.270000", "171504.270000", "171506.270000", "171508.284000", "171510.271000", "171512.271000", "171514.270000", "171516.270000", "171518.270000", "171520.271000", "171522.270000", "171524.270000", "171526.270000", "171528.271000", "171530.270000", "171532.270000", "171534.271000", "171536.271000", "171538.271000", "171540.270000", "171542.271000", "171544.271000", "171546.270000", "171548.271000", "171550.270000", "171552.270000", "171554.270000", "171556.271000", "171558.270000", "171600.270000", "171602.271000", "171604.270000", "171606.270000", "171608.270000", "171610.271000", "171612.270000", "171613.770000"],
      "InstanceCreationTime": ["170832.777000", "170834.270000", "170836.270000", "170838.270000", "170840.271000", "170842.270000", "170844.270000", "170846.270000", "170848.270000", "170850.270000", "170852.270000", "170854.270000", "170856.270000", "170858.270000", "170900.270000", "170902.270000", "170904.270000", "170906.271000", "170908.270000", "170910.270000", "170912.271000", "170914.270000", "170916.270000", "170918.270000", "170920.270000", "170922.269000", "170924.270000", "170926.270000", "170928.271000", "170930.271000", "170932.270000", "170934.270000", "170936.270000", "170938.271000", "170940.271000", "170942.271000", "170944.270000", "170946.270000", "170948.271000", "170950.270000", "170952.271000", "170954.270000", "170956.270000", "170958.271000", "171000.270000", "171002.270000", "171004.270000", "171006.270000", "171008.270000", "171010.271000", "171012.271000", "171014.270000", "171016.270000", "171018.270000", "171020.270000", "171022.270000", "171024.270000", "171026.270000", "171028.270000", "171030.271000", "171032.269000", "171034.270000", "171036.270000", "171038.270000", "171040.270000", "171042.271000", "171044.270000", "171046.271000", "171048.270000", "171050.271000", "171052.271000", "171054.270000", "171056.270000", "171058.270000", "171100.270000", "171102.270000", "171104.270000", "171105.770000", "171108.271000", "171110.271000", "171112.271000", "171114.270000", "171116.270000", "171118.270000", "171120.270000", "171122.271000", "171124.270000", "171126.271000", "171128.270000", "171130.270000", "171132.270000", "171134.271000", "171136.271000", "171138.271000", "171140.270000", "171142.270000", "171144.270000", "171146.270000", "171148.270000", "171150.270000", "171152.271000", "171154.270000", "171156.270000", "171158.270000", "171200.270000", "171202.271000", "171204.271000", "171206.270000", "171208.270000", "171210.270000", "171212.270000", "171214.271000", "171216.270000", "171218.270000", "171220.270000", "171222.270000", "171224.270000", "171226.271000", "171228.270000", "171230.270000", "171232.270000", "171234.270000", "171236.271000", "171238.270000", "171240.271000", "171242.270000", "171244.271000", "171246.270000", "171248.270000", "171250.270000", "171251.771000", "171254.270000", "171256.270000", "171258.271000", "171300.270000", "171302.271000", "171304.271000", "171306.270000", "171308.270000", "171310.270000", "171312.270000", "171314.270000", "171316.270000", "171318.271000", "171320.271000", "171322.271000", "171324.271000", "171326.271000", "171328.270000", "171330.271000", "171332.270000", "171334.270000", "171336.270000", "171338.270000", "171340.271000", "171342.271000", "171344.271000", "171346.270000", "171348.270000", "171350.270000", "171352.271000", "171354.270000", "171356.270000", "171358.271000", "171400.270000", "171402.270000", "171404.270000", "171406.271000", "171408.270000", "171410.270000", "171412.270000", "171414.271000", "171416.271000", "171418.270000", "171420.271000", "171422.271000", "171424.270000", "171426.271000", "171428.270000", "171430.270000", "171432.271000", "171434.271000", "171436.270000", "171438.271000", "171440.270000", "171442.271000", "171444.271000", "171446.270000", "171448.271000", "171450.270000", "171452.271000", "171454.270000", "171455.770000", "171458.271000", "171500.270000", "171502.270000", "171504.270000", "171506.270000", "171508.284000", "171510.271000", "171512.271000", "171514.270000", "171516.270000", "171518.270000", "171520.271000", "171522.270000", "171524.270000", "171526.270000", "171528.271000", "171530.270000", "171532.270000", "171534.271000", "171536.271000", "171538.271000", "171540.270000", "171542.271000", "171544.271000", "171546.270000", "171548.271000", "171550.270000", "171552.270000", "171554.270000", "171556.271000", "171558.270000", "171600.270000", "171602.271000", "171604.270000", "171606.270000", "171608.270000", "171610.271000", "171612.270000", "171613.770000"],
      "InstanceNumber": [1, 2, 3, 4, 5, 6, 7, 8, 9, 10, 11, 12, 13, 14, 15, 16, 17, 18, 19, 20, 21, 22, 23, 24, 25, 26, 27, 28, 29, 30, 31, 32, 33, 34, 35, 36, 37, 38, 39, 40, 41, 42, 43, 44, 45, 46, 47, 48, 49, 50, 51, 52, 53, 54, 55, 56, 57, 58, 59, 60, 61, 62, 63, 64, 65, 66, 67, 68, 69, 70, 71, 72, 73, 74, 75, 76, 77, 78, 79, 80, 81, 82, 83, 84, 85, 86, 87, 88, 89, 90, 91, 92, 93, 94, 95, 96, 97, 98, 99, 100, 101, 102, 103, 104, 105, 106, 107, 108, 109, 110, 111, 112, 113, 114, 115, 116, 117, 118, 119, 120, 121, 122, 123, 124, 125, 126, 127, 128, 129, 130, 131, 132, 133, 134, 135, 136, 137, 138, 139, 140, 141, 142, 143, 144, 145, 146, 147, 148, 149, 150, 151, 152, 153, 154, 155, 156, 157, 158, 159, 160, 161, 162, 163, 164, 165, 166, 167, 168, 169, 170, 171, 172, 173, 174, 175, 176, 177, 178, 179, 180, 181, 182, 183, 184, 185, 186, 187, 188, 189, 190, 191, 192, 193, 194, 195, 196, 197, 198, 199, 200, 201, 202, 203, 204, 205, 206, 207, 208, 209, 210, 211, 212, 213, 214, 215, 216, 217, 218, 219, 220, 221, 222, 223, 224, 225, 226, 227, 228, 229, 230, 231, 232],
      "LargestImagePixelValue": [3525, 3510, 3449, 3542, 3517, 3488, 3489, 3517, 3445, 3492, 3531, 3456, 3483, 3492, 3477, 3497, 3490, 3468, 3459, 3515, 3491, 3467, 3541, 3481, 3518, 3486, 3513, 3537, 3488, 3527, 3535, 3548, 3502, 3528, 3508, 3526, 3525, 3539, 3546, 3554, 3527, 3533, 3523, 3522, 3494, 3514, 3534, 3493, 3507, 3488, 3582, 3483, 3684, 3479, 3575, 3542, 3595, 3556, 3572, 3558, 3574, 3570, 3540, 3547, 3556, 3513, 3606, 3609, 3661, 3622, 3626, 3555, 3673, 3591, 3597, 3621, 3577, 3624, 3629, 3618, 3647, 3602, 3581, 3559, 3624, 3646, 3619, 3630, 3615, 3647, 3593, 3570, 3556, 3585, 3634, 3575, 3692, 3556, 3763, 3481, 3549, 3533, 3589, 3638, 3594, 3488, 3497, 3516, 3493, 3529, 3552, 3552, 3582, 3543, 3567, 3577, 3578, 3612, 3630, 3592, 3561, 3576, 3506, 3528, 3576, 3576, 3529, 3570, 3545, 3540, 3559, 3507, 3606, 3515, 3557, 3520, 3655, 3528, 3520, 3514, 3585, 3567, 3519, 3578, 3608, 3631, 3572, 3586, 3593, 3627, 3613, 3603, 3609, 3581, 3572, 3568, 3587, 3574, 3615, 3614, 3583, 3557, 3644, 3545, 3607, 3574, 3602, 3611, 3594, 3575, 3601, 3629, 3654, 3658, 3675, 3650, 3626, 3560, 3569, 3658, 3519, 3644, 3705, 3577, 3653, 3620, 3658, 3633, 3658, 3597, 3713, 3660, 3646, 3681, 3636, 3594, 3596, 3564, 3531, 3524, 3588, 3586, 3592, 3593, 3588, 3594, 3596, 3597, 3635, 3579, 3573, 3608, 3605, 3621, 3647, 3599, 3613, 3622, 3576, 3596, 3580, 3601, 3605, 3621, 3631, 3619, 3604, 3595, 3608, 3608, 3595, 3581],
      "WindowCenter": [778.0, 777.0, 776.0, 777.0, 777.0, 777.0, 776.0, 776.0, 774.0, 778.0, 782.0, 781.0, 780.0, 780.0, 780.0, 779.0, 779.0, 780.0, 781.0, 780.0, 779.0, 778.0, 779.0, 778.0, 779.0, 779.0, 779.0, 778.0, 777.0, 779.0, 781.0, 781.0, 781.0, 781.0, 781.0, 780.0, 778.0, 779.0, 779.0, 779.0, 778.0, 780.0, 783.0, 782.0, 780.0, 779.0, 779.0, 781.0, 781.0, 777.0, 778.0, 775.0, 778.0, 775.0, 778.0, 775.0, 773.0, 777.0, 779.0, 778.0, 778.0, 780.0, 781.0, 781.0, 780.0, 779.0, 779.0, 779.0, 779.0, 778.0, 776.0, 775.0, 776.0, 776.0, 777.0, 778.0, 776.0, 777.0, 778.0, 778.0, 776.0, 777.0, 778.0, 778.0, 778.0, 779.0, 779.0, 779.0, 778.0, 779.0, 781.0, 782.0, 780.0, 779.0, 779.0, 776.0, 775.0, 771.0, 782.0, 776.0, 778.0, 776.0, 778.0, 779.0, 778.0, 778.0, 778.0, 778.0, 779.0, 779.0, 779.0, 779.0, 780.0, 779.0, 778.0, 778.0, 777.0, 777.0, 777.0, 779.0, 779.0, 779.0, 778.0, 779.0, 778.0, 778.0, 779.0, 779.0, 777.0, 779.0, 780.0, 778.0, 779.0, 778.0, 778.0, 777.0, 779.0, 777.0, 778.0, 778.0, 778.0, 778.0, 779.0, 779.0, 780.0, 778.0, 777.0, 778.0, 780.0, 779.0, 777.0, 776.0, 777.0, 779.0, 779.0, 779.0, 779.0, 779.0, 779.0, 778.0, 777.0, 778.0, 779.0, 778.0, 777.0, 777.0, 776.0, 776.0, 776.0, 776.0, 777.0, 777.0, 775.0, 775.0, 776.0, 776.0, 776.0, 775.0, 777.0, 775.0, 771.0, 776.0, 776.0, 773.0, 776.0, 776.0, 778.0, 779.0, 780.0, 779.0, 780.0, 779.0, 779.0, 778.0, 777.0, 777.0, 777.0, 776.0, 776.0, 776.0, 776.0, 777.0, 779.0, 779.0, 779.0, 781.0, 780.0, 778.0, 778.0, 777.0, 778.0, 779.0, 778.0, 778.0, 777.0, 776.0, 777.0, 778.0, 776.0, 777.0, 778.0, 778.0, 778.0, 777.0, 777.0, 777.0, 778.0, 779.0, 778.0, 776.0, 775.0, 775.0],
      "WindowWidth": [1700.0, 1697.0, 1693.0, 1695.0, 1696.0, 1694.0, 1692.0, 1691.0, 1688.0, 1697.0, 1708.0, 1707.0, 1703.0, 1702.0, 1702.0, 1701.0, 1700.0, 1702.0, 1705.0, 1703.0, 1699.0, 1698.0, 1700.0, 1697.0, 1699.0, 1700.0, 1701.0, 1698.0, 1696.0, 1700.0, 1706.0, 1707.0, 1705.0, 1706.0, 1706.0, 1703.0, 1699.0, 1700.0, 1701.0, 1700.0, 1696.0, 1701.0, 1710.0, 1708.0, 1703.0, 1700.0, 1701.0, 1704.0, 1706.0, 1695.0, 1698.0, 1689.0, 1697.0, 1689.0, 1696.0, 1688.0, 1683.0, 1693.0, 1698.0, 1697.0, 1696.0, 1701.0, 1704.0, 1704.0, 1703.0, 1699.0, 1699.0, 1698.0, 1698.0, 1696.0, 1692.0, 1688.0, 1691.0, 1690.0, 1694.0, 1695.0, 1692.0, 1693.0, 1695.0, 1695.0, 1692.0, 1694.0, 1698.0, 1696.0, 1698.0, 1698.0, 1698.0, 1698.0, 1697.0, 1699.0, 1704.0, 1707.0, 1702.0, 1700.0, 1698.0, 1692.0, 1688.0, 1677.0, 1707.0, 1690.0, 1697.0, 1691.0, 1698.0, 1699.0, 1697.0, 1695.0, 1696.0, 1697.0, 1698.0, 1698.0, 1699.0, 1700.0, 1701.0, 1699.0, 1697.0, 1695.0, 1694.0, 1693.0, 1695.0, 1700.0, 1699.0, 1698.0, 1697.0, 1698.0, 1697.0, 1696.0, 1698.0, 1699.0, 1692.0, 1698.0, 1701.0, 1697.0, 1699.0, 1697.0, 1697.0, 1694.0, 1699.0, 1694.0, 1697.0, 1697.0, 1696.0, 1697.0, 1698.0, 1700.0, 1701.0, 1697.0, 1692.0, 1695.0, 1702.0, 1698.0, 1693.0, 1691.0, 1694.0, 1698.0, 1698.0, 1698.0, 1698.0, 1699.0, 1699.0, 1695.0, 1693.0, 1696.0, 1699.0, 1695.0, 1693.0, 1694.0, 1689.0, 1689.0, 1688.0, 1690.0, 1693.0, 1692.0, 1688.0, 1686.0, 1690.0, 1691.0, 1691.0, 1688.0, 1695.0, 1688.0, 1676.0, 1689.0, 1691.0, 1681.0, 1690.0, 1689.0, 1696.0, 1698.0, 1701.0, 1699.0, 1702.0, 1699.0, 1697.0, 1696.0, 1695.0, 1694.0, 1694.0, 1691.0, 1690.0, 1689.0, 1691.0, 1693.0, 1699.0, 1699.0, 1699.0, 1703.0, 1701.0, 1696.0, 1695.0, 1692.0, 1697.0, 1699.0, 1697.0, 1695.0, 1692.0, 1691.0, 1694.0, 1694.0, 1691.0, 1692.0, 1695.0, 1697.0, 1695.0, 1692.0, 1692.0, 1691.0, 1695.0, 1698.0, 1696.0, 1690.0, 1688.0, 1688.0]
    },
    "slices": {}
  }
}