{
  "AcquisitionMatrixPE": 100,
  "AcquisitionNumber": 1,
  "AcquisitionTime": "17:46:3.797500",
  "BandwidthPerPixelPhaseEncode": 18.519,
  "BaseResolution": 100,
  "BodyPartExamined": "BRAIN",
  "ConsistencyInfo": "N4_VE11C_LATEST_20160120",
  "ConversionSoftware": "dcm2niix",
  "ConversionSoftwareVersion": "v1.0.20180622 GCC4.9.2",
  "DerivedVendorReportedEchoSpacing": 0.000539986,
  "DeviceSerialNumber": "166078",
  "DwellTime": 2.1e-06,
  "EchoTime": 0.034,
  "EchoTrainLength": 100,
  "EffectiveEchoSpacing": 0.000539986,
  "FlipAngle": 90,
  "ImageOrientationPatientDICOM": [1, 0, 0, 0, 1, 0],
  "ImageType": [
    "ORIGINAL",
    "PRIMARY",
    "M",
    "ND",
    "MOSAIC"
],
  "InPlanePhaseEncodingDirectionDICOM": "COL",
  "InstitutionAddress": "Street_StreetNo_Bei_Jing_District_CN_ZIP",
  "InstitutionName": "BeiJing_Normal_University",
  "InstitutionalDepartmentName": "Department",
  "MRAcquisitionType": "2D",
  "MagneticFieldStrength": 3,
  "Manufacturer": "Siemens",
  "ManufacturersModelName": "Prisma",
  "Modality": "MR",
  "MultibandAccelerationFactor": 3,
  "PartialFourier": 1,
  "PatientPosition": "HFS",
  "PercentPhaseFOV": 100,
  "PhaseEncodingDirection": "j-",
  "PhaseEncodingSteps": 100,
  "PhaseResolution": 1,
  "PixelBandwidth": 2380,
  "ProcedureStepDescription": "BNU_P2018_64CH_Liu.Jia",
  "ProtocolName": "bold_100x100_s3_2x2x2_232",
  "PulseSequenceDetails": "%SiemensSeq%_ep2d_bold",
  "ReceiveCoilActiveElements": "HC1-7;NC1",
  "ReceiveCoilName": "HeadNeck_64",
  "ReconMatrixPE": 100,
  "RepetitionTime": 2,
  "SAR": 0.0779112,
  "ScanOptions": "FS",
  "ScanningSequence": "EP",
  "SequenceName": "_epfid2d1_100",
  "SequenceVariant": "SK",
  "SeriesDescription": "bold_100x100_s3_2x2x2_232",
  "SeriesNumber": 9,
  "ShimSetting": [-5463, -11467, -1235, 372, 30, -143, -256, 40],
  "SliceThickness": 2,
  "SliceTiming": [1.485, 0, 0.99, 0.0825, 1.0725, 0.165, 1.155, 0.2475, 1.2375, 0.33, 1.32, 0.4125, 1.4025, 0.5775, 1.5675, 0.66, 1.65, 0.7425, 1.7325, 0.825, 1.815, 0.9075, 1.8975, 0.495, 1.485, 0, 0.99, 0.0825, 1.0725, 0.165, 1.155, 0.2475, 1.2375, 0.33, 1.32, 0.4125, 1.4025, 0.5775, 1.5675, 0.66, 1.65, 0.7425, 1.7325, 0.825, 1.815, 0.9075, 1.8975, 0.495, 1.485, 0, 0.99, 0.0825, 1.0725, 0.165, 1.155, 0.2475, 1.2375, 0.33, 1.32, 0.4125, 1.4025, 0.5775, 1.5675, 0.66, 1.65, 0.7425, 1.7325, 0.825, 1.815, 0.9075, 1.8975, 0.495],
  "SoftwareVersions": "syngo_MR_E11",
  "SpacingBetweenSlices": 2,
  "StationName": "AWP166078",
  "TaskName": "motor",
  "TotalReadoutTime": 0.0534586,
  "TxRefAmp": 231.814,
  "dcmmeta_affine": [
    [-2.0, 0.0, 0.0, 99.32530212402344],
    [0.0, 2.0, 0.0, -98.48674774169922],
    [0.0, 0.0, 2.0, -68.59036254882812],
    [0.0, 0.0, 0.0, 1.0]
],
  "dcmmeta_reorient_transform": [
    [0.0, -1.0, 0.0, 99.0],
    [1.0, 0.0, 0.0, 0.0],
    [0.0, 0.0, 1.0, 0.0],
    [0.0, 0.0, 0.0, 1.0]
],
  "dcmmeta_shape": [100, 100, 72, 232],
  "dcmmeta_slice_dim": 2,
  "dcmmeta_version": 0.6,
  "global": {
    "const": {
      "AcquisitionMatrix": [100, 0, 0, 100],
      "AngioFlag": "N",
      "BitsAllocated": 16,
      "BitsStored": 12,
      "BodyPartExamined": "BRAIN",
      "Columns": 900,
      "EchoNumbers": 1,
      "EchoTime": 34.0,
      "EchoTrainLength": 100,
      "FlipAngle": 90.0,
      "HighBit": 11,
      "ImageOrientationPatient": [1.0, 0.0, 0.0, 0.0, 1.0, 0.0],
      "ImagePositionPatient": [-899.32530122995, -899.51325300336, -68.590362548828],
      "ImageType": [
        "ORIGINAL",
        "PRIMARY",
        "M",
        "ND",
        "MOSAIC"
],
      "ImagedNucleus": "1H",
      "ImagingFrequency": 123.257821,
      "InPlanePhaseEncodingDirection": "COL",
      "MRAcquisitionType": "2D",
      "MagneticFieldStrength": 3.0,
      "Manufacturer": "SIEMENS",
      "ManufacturerModelName": "Prisma",
      "Modality": "MR",
      "NumberOfAverages": 1.0,
      "NumberOfPhaseEncodingSteps": 100,
      "PercentPhaseFieldOfView": 100.0,
      "PercentSampling": 100.0,
      "PerformedProcedureStepStartTime": "164957.957000",
      "PhotometricInterpretation": "MONOCHROME2",
      "PixelBandwidth": 2380.0,
      "PixelRepresentation": 0,
      "PixelSpacing": [2.0, 2.0],
      "ProtocolName": "bold_100x100_s3_2x2x2_232",
      "RepetitionTime": 2000.0,
      "Rows": 900,
      "SAR": 0.07791117140663,
      "SamplesPerPixel": 1,
      "ScanOptions": "FS",
      "ScanningSequence": "EP",
      "SequenceName": "*epfid2d1_100",
      "SequenceVariant": "SK",
      "SeriesDescription": "bold_100x100_s3_2x2x2_232",
      "SeriesNumber": 9,
      "SeriesTime": "174606.213000",
      "SliceLocation": -68.590362548828,
      "SliceThickness": 2.0,
      "SmallestImagePixelValue": 0,
      "SoftwareVersions": "syngo MR E11",
      "SpacingBetweenSlices": 2.0,
      "SpecificCharacterSet": "ISO_IR 100",
      "StudyID": "1",
      "StudyTime": "164957.828000",
      "TransmitCoilName": "Body",
      "VariableFlipAngleFlag": "N",
      "WindowCenterWidthExplanation": "Algo1",
      "dBdt": 0.0},
    "slices": {}
  },
  "time": {
    "samples": {
      "AcquisitionNumber": [1, 2, 3, 4, 5, 6, 7, 8, 9, 10, 11, 12, 13, 14, 15, 16, 17, 18, 19, 20, 21, 22, 23, 24, 25, 26, 27, 28, 29, 30, 31, 32, 33, 34, 35, 36, 37, 38, 39, 40, 41, 42, 43, 44, 45, 46, 47, 48, 49, 50, 51, 52, 53, 54, 55, 56, 57, 58, 59, 60, 61, 62, 63, 64, 65, 66, 67, 68, 69, 70, 71, 72, 73, 74, 75, 76, 77, 78, 79, 80, 81, 82, 83, 84, 85, 86, 87, 88, 89, 90, 91, 92, 93, 94, 95, 96, 97, 98, 99, 100, 101, 102, 103, 104, 105, 106, 107, 108, 109, 110, 111, 112, 113, 114, 115, 116, 117, 118, 119, 120, 121, 122, 123, 124, 125, 126, 127, 128, 129, 130, 131, 132, 133, 134, 135, 136, 137, 138, 139, 140, 141, 142, 143, 144, 145, 146, 147, 148, 149, 150, 151, 152, 153, 154, 155, 156, 157, 158, 159, 160, 161, 162, 163, 164, 165, 166, 167, 168, 169, 170, 171, 172, 173, 174, 175, 176, 177, 178, 179, 180, 181, 182, 183, 184, 185, 186, 187, 188, 189, 190, 191, 192, 193, 194, 195, 196, 197, 198, 199, 200, 201, 202, 203, 204, 205, 206, 207, 208, 209, 210, 211, 212, 213, 214, 215, 216, 217, 218, 219, 220, 221, 222, 223, 224, 225, 226, 227, 228, 229, 230, 231, 232],
      "AcquisitionTime": ["174603.797500", "174605.797500", "174607.797500", "174609.797500", "174611.797500", "174613.797500", "174615.797500", "174617.797500", "174619.797500", "174621.797500", "174623.797500", "174625.797500", "174627.797500", "174629.797500", "174631.797500", "174633.797500", "174635.797500", "174637.797500", "174639.797500", "174641.797500", "174643.797500", "174645.797500", "174647.797500", "174649.797500", "174651.797500", "174653.797500", "174655.797500", "174657.797500", "174659.797500", "174701.797500", "174703.797500", "174705.797500", "174707.797500", "174709.797500", "174711.797500", "174713.797500", "174715.797500", "174717.797500", "174719.797500", "174721.797500", "174723.797500", "174725.797500", "174727.797500", "174729.797500", "174731.797500", "174733.797500", "174735.797500", "174737.797500", "174739.797500", "174741.797500", "174743.797500", "174745.797500", "174747.797500", "174749.797500", "174751.797500", "174753.797500", "174755.797500", "174757.797500", "174759.797500", "174801.797500", "174803.797500", "174805.797500", "174807.797500", "174809.797500", "174811.797500", "174813.797500", "174815.797500", "174817.797500", "174819.797500", "174821.797500", "174823.797500", "174825.797500", "174827.797500", "174829.797500", "174831.797500", "174833.797500", "174835.797500", "174837.797500", "174839.797500", "174841.797500", "174843.797500", "174845.797500", "174847.797500", "174849.797500", "174851.797500", "174853.797500", "174855.797500", "174857.797500", "174859.797500", "174901.797500", "174903.797500", "174905.797500", "174907.797500", "174909.797500", "174911.797500", "174913.797500", "174915.797500", "174917.797500", "174919.797500", "174921.797500", "174923.797500", "174925.797500", "174927.797500", "174929.797500", "174931.797500", "174933.797500", "174935.797500", "174937.797500", "174939.797500", "174941.797500", "174943.797500", "174945.797500", "174947.797500", "174949.797500", "174951.797500", "174953.797500", "174955.797500", "174957.797500", "174959.797500", "175001.797500", "175003.797500", "175005.797500", "175007.797500", "175009.797500", "175011.797500", "175013.797500", "175015.797500", "175017.797500", "175019.797500", "175021.797500", "175023.797500", "175025.797500", "175027.797500", "175029.797500", "175031.797500", "175033.797500", "175035.797500", "175037.797500", "175039.797500", "175041.797500", "175043.797500", "175045.797500", "175047.797500", "175049.797500", "175051.797500", "175053.797500", "175055.797500", "175057.797500", "175059.797500", "175101.797500", "175103.797500", "175105.797500", "175107.797500", "175109.797500", "175111.797500", "175113.797500", "175115.797500", "175117.797500", "175119.797500", "175121.797500", "175123.797500", "175125.797500", "175127.797500", "175129.797500", "175131.797500", "175133.797500", "175135.797500", "175137.797500", "175139.797500", "175141.797500", "175143.797500", "175145.797500", "175147.797500", "175149.797500", "175151.797500", "175153.797500", "175155.797500", "175157.797500", "175159.797500", "175201.797500", "175203.797500", "175205.797500", "175207.797500", "175209.797500", "175211.797500", "175213.797500", "175215.797500", "175217.797500", "175219.797500", "175221.797500", "175223.797500", "175225.797500", "175227.797500", "175229.797500", "175231.797500", "175233.797500", "175235.797500", "175237.797500", "175239.797500", "175241.797500", "175243.797500", "175245.797500", "175247.797500", "175249.797500", "175251.797500", "175253.797500", "175255.797500", "175257.797500", "175259.797500", "175301.797500", "175303.797500", "175305.797500", "175307.797500", "175309.797500", "175311.797500", "175313.797500", "175315.797500", "175317.797500", "175319.797500", "175321.797500", "175323.797500", "175325.797500", "175327.797500", "175329.797500", "175331.797500", "175333.797500", "175335.797500", "175337.797500", "175339.797500", "175341.797500", "175343.797500", "175345.797500"],
      "ContentTime": ["174606.217000", "174607.712000", "174609.712000", "174611.713000", "174613.711000", "174615.711000", "174617.711000", "174619.711000", "174621.712000", "174623.713000", "174625.712000", "174627.713000", "174629.711000", "174631.711000", "174633.711000", "174635.712000", "174637.711000", "174639.711000", "174641.712000", "174643.713000", "174645.712000", "174647.712000", "174649.711000", "174651.712000", "174653.712000", "174655.711000", "174657.711000", "174659.712000", "174701.713000", "174703.712000", "174705.712000", "174707.711000", "174709.711000", "174711.711000", "174713.711000", "174715.712000", "174717.712000", "174719.712000", "174721.712000", "174723.711000", "174725.711000", "174727.712000", "174729.712000", "174731.711000", "174733.713000", "174735.712000", "174737.712000", "174739.711000", "174741.711000", "174743.711000", "174745.712000", "174747.711000", "174749.711000", "174751.712000", "174753.712000", "174755.712000", "174757.711000", "174759.711000", "174801.711000", "174803.712000", "174805.711000", "174807.712000", "174809.712000", "174811.713000", "174813.712000", "174815.712000", "174817.711000", "174819.711000", "174821.711000", "174823.712000", "174825.712000", "174827.712000", "174829.713000", "174831.712000", "174833.711000", "174835.712000", "174837.711000", "174839.712000", "174841.711000", "174843.713000", "174845.712000", "174847.713000", "174849.711000", "174851.711000", "174853.711000", "174855.711000", "174857.712000", "174859.711000", "174901.713000", "174903.712000", "174905.712000", "174907.711000", "174909.711000", "174911.713000", "174913.711000", "174915.711000", "174917.713000", "174919.713000", "174921.712000", "174923.712000", "174925.711000", "174927.712000", "174929.712000", "174931.712000", "174933.711000", "174935.712000", "174937.713000", "174939.712000", "174941.712000", "174943.711000", "174945.711000", "174947.711000", "174949.711000", "174951.711000", "174953.712000", "174955.713000", "174957.712000", "174959.711000", "175001.711000", "175003.711000", "175005.711000", "175007.712000", "175009.711000", "175011.712000", "175013.714000", "175015.712000", "175017.711000", "175019.711000", "175021.712000", "175023.711000", "175025.711000", "175027.712000", "175029.712000", "175031.712000", "175033.712000", "175035.712000", "175037.711000", "175039.712000", "175041.711000", "175043.711000", "175045.712000", "175047.713000", "175049.712000", "175051.712000", "175053.711000", "175055.712000", "175057.711000", "175059.711000", "175101.712000", "175103.712000", "175105.713000", "175107.712000", "175109.711000", "175111.711000", "175113.711000", "175115.712000", "175117.711000", "175119.712000", "175121.713000", "175123.713000", "175125.712000", "175127.711000", "175129.711000", "175131.712000", "175133.711000", "175135.712000", "175137.712000", "175139.713000", "175141.712000", "175143.712000", "175145.712000", "175147.712000", "175149.711000", "175151.711000", "175153.711000", "175155.713000", "175157.713000", "175159.713000", "175201.712000", "175203.711000", "175205.711000", "175207.711000", "175209.711000", "175211.711000", "175213.712000", "175215.712000", "175217.712000", "175219.712000", "175221.711000", "175223.712000", "175225.712000", "175227.711000", "175229.712000", "175231.712000", "175233.712000", "175235.712000", "175237.712000", "175239.712000", "175241.711000", "175243.711000", "175245.711000", "175247.713000", "175249.712000", "175251.712000", "175253.712000", "175255.711000", "175257.711000", "175259.712000", "175301.712000", "175303.722000", "175305.712000", "175307.712000", "175309.713000", "175311.712000", "175313.711000", "175315.711000", "175317.712000", "175319.711000", "175321.711000", "175323.712000", "175325.712000", "175327.713000", "175329.712000", "175331.711000", "175333.711000", "175335.711000", "175337.711000", "175339.711000", "175341.712000", "175343.712000", "175345.712000", "175347.491000"],
      "InstanceCreationTime": ["174606.217000", "174607.712000", "174609.712000", "174611.713000", "174613.711000", "174615.711000", "174617.711000", "174619.711000", "174621.712000", "174623.713000", "174625.712000", "174627.713000", "174629.711000", "174631.711000", "174633.711000", "174635.712000", "174637.711000", "174639.711000", "174641.712000", "174643.713000", "174645.712000", "174647.712000", "174649.711000", "174651.712000", "174653.712000", "174655.711000", "174657.711000", "174659.712000", "174701.713000", "174703.712000", "174705.712000", "174707.711000", "174709.711000", "174711.711000", "174713.711000", "174715.712000", "174717.712000", "174719.712000", "174721.712000", "174723.711000", "174725.711000", "174727.712000", "174729.712000", "174731.711000", "174733.713000", "174735.712000", "174737.712000", "174739.711000", "174741.711000", "174743.711000", "174745.712000", "174747.711000", "174749.711000", "174751.712000", "174753.712000", "174755.712000", "174757.711000", "174759.711000", "174801.711000", "174803.712000", "174805.711000", "174807.712000", "174809.712000", "174811.713000", "174813.712000", "174815.712000", "174817.711000", "174819.711000", "174821.711000", "174823.712000", "174825.712000", "174827.712000", "174829.713000", "174831.712000", "174833.711000", "174835.712000", "174837.711000", "174839.712000", "174841.711000", "174843.713000", "174845.712000", "174847.713000", "174849.711000", "174851.711000", "174853.711000", "174855.711000", "174857.712000", "174859.711000", "174901.713000", "174903.712000", "174905.712000", "174907.711000", "174909.711000", "174911.713000", "174913.711000", "174915.711000", "174917.713000", "174919.713000", "174921.712000", "174923.712000", "174925.711000", "174927.712000", "174929.712000", "174931.712000", "174933.711000", "174935.712000", "174937.713000", "174939.712000", "174941.712000", "174943.711000", "174945.711000", "174947.711000", "174949.711000", "174951.711000", "174953.712000", "174955.713000", "174957.712000", "174959.711000", "175001.711000", "175003.711000", "175005.711000", "175007.712000", "175009.711000", "175011.712000", "175013.714000", "175015.712000", "175017.711000", "175019.711000", "175021.712000", "175023.711000", "175025.711000", "175027.712000", "175029.712000", "175031.712000", "175033.712000", "175035.712000", "175037.711000", "175039.712000", "175041.711000", "175043.711000", "175045.712000", "175047.713000", "175049.712000", "175051.712000", "175053.711000", "175055.712000", "175057.711000", "175059.711000", "175101.712000", "175103.712000", "175105.713000", "175107.712000", "175109.711000", "175111.711000", "175113.711000", "175115.712000", "175117.711000", "175119.712000", "175121.713000", "175123.713000", "175125.712000", "175127.711000", "175129.711000", "175131.712000", "175133.711000", "175135.712000", "175137.712000", "175139.713000", "175141.712000", "175143.712000", "175145.712000", "175147.712000", "175149.711000", "175151.711000", "175153.711000", "175155.713000", "175157.713000", "175159.713000", "175201.712000", "175203.711000", "175205.711000", "175207.711000", "175209.711000", "175211.711000", "175213.712000", "175215.712000", "175217.712000", "175219.712000", "175221.711000", "175223.712000", "175225.712000", "175227.711000", "175229.712000", "175231.712000", "175233.712000", "175235.712000", "175237.712000", "175239.712000", "175241.711000", "175243.711000", "175245.711000", "175247.713000", "175249.712000", "175251.712000", "175253.712000", "175255.711000", "175257.711000", "175259.712000", "175301.712000", "175303.722000", "175305.712000", "175307.712000", "175309.713000", "175311.712000", "175313.711000", "175315.711000", "175317.712000", "175319.711000", "175321.711000", "175323.712000", "175325.712000", "175327.713000", "175329.712000", "175331.711000", "175333.711000", "175335.711000", "175337.711000", "175339.711000", "175341.712000", "175343.712000", "175345.712000", "175347.491000"],
      "InstanceNumber": [1, 2, 3, 4, 5, 6, 7, 8, 9, 10, 11, 12, 13, 14, 15, 16, 17, 18, 19, 20, 21, 22, 23, 24, 25, 26, 27, 28, 29, 30, 31, 32, 33, 34, 35, 36, 37, 38, 39, 40, 41, 42, 43, 44, 45, 46, 47, 48, 49, 50, 51, 52, 53, 54, 55, 56, 57, 58, 59, 60, 61, 62, 63, 64, 65, 66, 67, 68, 69, 70, 71, 72, 73, 74, 75, 76, 77, 78, 79, 80, 81, 82, 83, 84, 85, 86, 87, 88, 89, 90, 91, 92, 93, 94, 95, 96, 97, 98, 99, 100, 101, 102, 103, 104, 105, 106, 107, 108, 109, 110, 111, 112, 113, 114, 115, 116, 117, 118, 119, 120, 121, 122, 123, 124, 125, 126, 127, 128, 129, 130, 131, 132, 133, 134, 135, 136, 137, 138, 139, 140, 141, 142, 143, 144, 145, 146, 147, 148, 149, 150, 151, 152, 153, 154, 155, 156, 157, 158, 159, 160, 161, 162, 163, 164, 165, 166, 167, 168, 169, 170, 171, 172, 173, 174, 175, 176, 177, 178, 179, 180, 181, 182, 183, 184, 185, 186, 187, 188, 189, 190, 191, 192, 193, 194, 195, 196, 197, 198, 199, 200, 201, 202, 203, 204, 205, 206, 207, 208, 209, 210, 211, 212, 213, 214, 215, 216, 217, 218, 219, 220, 221, 222, 223, 224, 225, 226, 227, 228, 229, 230, 231, 232],
      "LargestImagePixelValue": [3649, 3610, 3618, 3602, 3592, 3587, 3593, 3593, 3609, 3614, 3554, 3594, 3622, 3590, 3590, 3711, 3596, 3552, 3566, 3560, 3575, 3590, 3603, 3622, 3584, 3585, 3560, 3587, 3551, 3537, 3560, 3599, 3577, 3521, 3535, 3556, 3523, 3531, 3520, 3527, 3534, 3547, 3492, 3484, 3487, 3521, 3540, 3532, 3496, 3512, 3435, 3466, 3512, 3515, 3432, 3446, 3512, 3510, 3505, 3556, 3557, 3556, 3546, 3568, 3552, 3549, 3493, 3509, 3554, 3559, 3548, 3550, 3577, 3565, 3567, 3526, 3584, 3588, 3568, 3595, 3623, 3595, 3553, 3545, 3549, 3553, 3574, 3552, 3495, 3518, 3494, 3538, 3546, 3524, 3529, 3479, 3508, 3475, 3520, 3508, 3548, 3552, 3560, 3530, 3572, 3621, 3532, 3652, 3640, 3563, 3508, 3633, 3640, 3563, 3552, 3555, 3573, 3551, 3551, 3544, 3581, 3585, 3569, 3509, 3563, 3485, 3559, 3498, 3589, 3497, 3437, 3430, 3447, 3492, 3476, 3522, 3516, 3467, 3464, 3494, 3540, 3516, 3465, 3482, 3487, 3463, 3484, 3493, 3488, 3485, 3522, 3484, 3501, 3505, 3517, 3482, 3460, 3478, 3451, 3476, 3434, 3432, 3432, 3464, 3467, 3450, 3446, 3447, 3467, 3473, 3470, 3475, 3456, 3468, 3507, 3500, 3504, 3423, 3453, 3518, 3506, 3425, 3413, 3431, 3447, 3499, 3510, 3531, 3552, 3575, 3524, 3581, 3523, 3485, 3484, 3461, 3457, 3490, 3513, 3550, 3512, 3513, 3521, 3469, 3482, 3459, 3442, 3458, 3448, 3460, 3473, 3452, 3484, 3462, 3446, 3463, 3466, 3501, 3478, 3510, 3541, 3467, 3559, 3521, 3455, 3477, 3466, 3464, 3472, 3445, 3455, 3495],
      "WindowCenter": [779.0, 776.0, 775.0, 776.0, 776.0, 775.0, 775.0, 775.0, 776.0, 774.0, 778.0, 776.0, 778.0, 778.0, 778.0, 779.0, 777.0, 775.0, 777.0, 777.0, 778.0, 778.0, 779.0, 779.0, 778.0, 778.0, 778.0, 777.0, 777.0, 779.0, 779.0, 779.0, 778.0, 777.0, 778.0, 778.0, 776.0, 776.0, 777.0, 779.0, 778.0, 777.0, 776.0, 776.0, 777.0, 777.0, 778.0, 778.0, 777.0, 778.0, 776.0, 775.0, 775.0, 776.0, 776.0, 776.0, 777.0, 777.0, 776.0, 775.0, 773.0, 774.0, 775.0, 775.0, 775.0, 775.0, 777.0, 777.0, 777.0, 776.0, 775.0, 777.0, 777.0, 776.0, 775.0, 775.0, 776.0, 777.0, 777.0, 777.0, 777.0, 776.0, 776.0, 776.0, 777.0, 779.0, 778.0, 776.0, 776.0, 777.0, 779.0, 779.0, 778.0, 777.0, 777.0, 777.0, 777.0, 776.0, 776.0, 777.0, 777.0, 775.0, 774.0, 775.0, 775.0, 774.0, 774.0, 775.0, 774.0, 773.0, 774.0, 776.0, 776.0, 776.0, 776.0, 777.0, 777.0, 777.0, 777.0, 777.0, 777.0, 777.0, 777.0, 777.0, 777.0, 776.0, 776.0, 772.0, 776.0, 775.0, 776.0, 777.0, 776.0, 776.0, 775.0, 776.0, 776.0, 775.0, 775.0, 776.0, 776.0, 775.0, 775.0, 775.0, 774.0, 773.0, 773.0, 773.0, 773.0, 772.0, 772.0, 772.0, 775.0, 776.0, 777.0, 777.0, 777.0, 775.0, 775.0, 776.0, 777.0, 777.0, 777.0, 775.0, 774.0, 775.0, 776.0, 776.0, 775.0, 774.0, 774.0, 774.0, 775.0, 775.0, 774.0, 772.0, 771.0, 771.0, 774.0, 774.0, 775.0, 773.0, 773.0, 773.0, 773.0, 775.0, 775.0, 776.0, 777.0, 776.0, 775.0, 775.0, 776.0, 776.0, 777.0, 778.0, 777.0, 778.0, 776.0, 774.0, 774.0, 774.0, 775.0, 776.0, 777.0, 777.0, 776.0, 775.0, 775.0, 775.0, 776.0, 776.0, 776.0, 776.0, 775.0, 775.0, 776.0, 776.0, 774.0, 775.0, 774.0, 771.0, 773.0, 773.0, 773.0, 775.0, 776.0, 776.0, 776.0, 775.0, 775.0, 775.0],
      "WindowWidth": [1699.0, 1691.0, 1689.0, 1690.0, 1689.0, 1688.0, 1689.0, 1689.0, 1691.0, 1687.0, 1696.0, 1692.0, 1696.0, 1697.0, 1696.0, 1698.0, 1692.0, 1689.0, 1692.0, 1695.0, 1697.0, 1698.0, 1698.0, 1698.0, 1697.0, 1698.0, 1695.0, 1694.0, 1695.0, 1699.0, 1700.0, 1699.0, 1696.0, 1693.0, 1696.0, 1698.0, 1692.0, 1691.0, 1694.0, 1698.0, 1697.0, 1694.0, 1691.0, 1692.0, 1694.0, 1695.0, 1695.0, 1695.0, 1694.0, 1695.0, 1691.0, 1688.0, 1689.0, 1690.0, 1690.0, 1690.0, 1693.0, 1693.0, 1691.0, 1687.0, 1682.0, 1684.0, 1687.0, 1689.0, 1688.0, 1689.0, 1694.0, 1694.0, 1693.0, 1690.0, 1689.0, 1693.0, 1694.0, 1690.0, 1688.0, 1688.0, 1691.0, 1693.0, 1695.0, 1694.0, 1693.0, 1691.0, 1690.0, 1690.0, 1694.0, 1698.0, 1697.0, 1692.0, 1690.0, 1695.0, 1699.0, 1698.0, 1696.0, 1693.0, 1693.0, 1695.0, 1695.0, 1691.0, 1692.0, 1693.0, 1694.0, 1689.0, 1686.0, 1688.0, 1688.0, 1685.0, 1687.0, 1688.0, 1685.0, 1684.0, 1685.0, 1692.0, 1692.0, 1690.0, 1691.0, 1693.0, 1694.0, 1694.0, 1693.0, 1694.0, 1694.0, 1693.0, 1693.0, 1695.0, 1693.0, 1690.0, 1692.0, 1681.0, 1692.0, 1687.0, 1690.0, 1693.0, 1691.0, 1690.0, 1689.0, 1690.0, 1691.0, 1688.0, 1688.0, 1690.0, 1691.0, 1687.0, 1687.0, 1688.0, 1687.0, 1684.0, 1682.0, 1682.0, 1682.0, 1680.0, 1680.0, 1681.0, 1687.0, 1691.0, 1693.0, 1693.0, 1692.0, 1689.0, 1687.0, 1690.0, 1692.0, 1693.0, 1694.0, 1689.0, 1686.0, 1688.0, 1690.0, 1690.0, 1688.0, 1686.0, 1685.0, 1685.0, 1689.0, 1689.0, 1684.0, 1681.0, 1678.0, 1677.0, 1684.0, 1685.0, 1689.0, 1682.0, 1682.0, 1682.0, 1684.0, 1687.0, 1688.0, 1690.0, 1692.0, 1690.0, 1687.0, 1688.0, 1689.0, 1690.0, 1692.0, 1695.0, 1695.0, 1695.0, 1689.0, 1685.0, 1684.0, 1685.0, 1688.0, 1691.0, 1695.0, 1693.0, 1690.0, 1688.0, 1688.0, 1688.0, 1690.0, 1689.0, 1690.0, 1689.0, 1688.0, 1688.0, 1690.0, 1692.0, 1687.0, 1688.0, 1685.0, 1677.0, 1682.0, 1683.0, 1682.0, 1688.0, 1691.0, 1692.0, 1691.0, 1688.0, 1689.0, 1688.0]
    },
    "slices": {}
  }
}