{
  "AcquisitionMatrixPE": 100,
  "AcquisitionNumber": 1,
  "AcquisitionTime": "10:53:27.060000",
  "BandwidthPerPixelPhaseEncode": 18.519,
  "BaseResolution": 100,
  "BodyPartExamined": "BRAIN",
  "ConsistencyInfo": "N4_VE11C_LATEST_20160120",
  "ConversionSoftware": "dcm2niix",
  "ConversionSoftwareVersion": "v1.0.20180622 GCC4.9.2",
  "DerivedVendorReportedEchoSpacing": 0.000539986,
  "DeviceSerialNumber": "166078",
  "DwellTime": 2.1e-06,
  "EchoTime": 0.034,
  "EchoTrainLength": 100,
  "EffectiveEchoSpacing": 0.000539986,
  "FlipAngle": 90,
  "ImageOrientationPatientDICOM": [0.999718, 0.0190503, -0.0141595, -0.0191956, 0.999764, -0.0102026],
  "ImageType": [
    "ORIGINAL",
    "PRIMARY",
    "M",
    "ND",
    "MOSAIC"
],
  "InPlanePhaseEncodingDirectionDICOM": "COL",
  "InstitutionAddress": "Street_StreetNo_Bei_Jing_District_CN_ZIP",
  "InstitutionName": "BeiJing_Normal_University",
  "InstitutionalDepartmentName": "Department",
  "MRAcquisitionType": "2D",
  "MagneticFieldStrength": 3,
  "Manufacturer": "Siemens",
  "ManufacturersModelName": "Prisma",
  "Modality": "MR",
  "MultibandAccelerationFactor": 3,
  "PartialFourier": 1,
  "PatientPosition": "HFS",
  "PercentPhaseFOV": 100,
  "PhaseEncodingDirection": "j-",
  "PhaseEncodingSteps": 100,
  "PhaseResolution": 1,
  "PixelBandwidth": 2380,
  "ProcedureStepDescription": "BNU_P2018_64CH_Liu.Jia",
  "ProtocolName": "bold_100x100_s3_2x2x2_232",
  "PulseSequenceDetails": "%SiemensSeq%_ep2d_bold",
  "ReceiveCoilActiveElements": "HC1-7;NC1",
  "ReceiveCoilName": "HeadNeck_64",
  "ReconMatrixPE": 100,
  "RepetitionTime": 2,
  "SAR": 0.0602672,
  "ScanOptions": "FS",
  "ScanningSequence": "EP",
  "SequenceName": "_epfid2d1_100",
  "SequenceVariant": "SK",
  "SeriesDescription": "bold_100x100_s3_2x2x2_232",
  "SeriesNumber": 9,
  "ShimSetting": [-5479, -11487, -1289, 326, -30, -245, -137, 72],
  "SliceThickness": 2,
  "SliceTiming": [1.485, 0, 0.99, 0.0825, 1.0725, 0.165, 1.155, 0.2475, 1.2375, 0.33, 1.32, 0.4125, 1.4025, 0.5775, 1.5675, 0.66, 1.65, 0.7425, 1.7325, 0.825, 1.815, 0.9075, 1.8975, 0.495, 1.485, 0, 0.99, 0.0825, 1.0725, 0.165, 1.155, 0.2475, 1.2375, 0.33, 1.32, 0.4125, 1.4025, 0.5775, 1.5675, 0.66, 1.65, 0.7425, 1.7325, 0.825, 1.815, 0.9075, 1.8975, 0.495, 1.485, 0, 0.99, 0.0825, 1.0725, 0.165, 1.155, 0.2475, 1.2375, 0.33, 1.32, 0.4125, 1.4025, 0.5775, 1.5675, 0.66, 1.65, 0.7425, 1.7325, 0.825, 1.815, 0.9075, 1.8975, 0.495],
  "SoftwareVersions": "syngo_MR_E11",
  "SpacingBetweenSlices": 2,
  "StationName": "AWP166078",
  "TaskName": "motor",
  "TotalReadoutTime": 0.0534586,
  "TxRefAmp": 218.108,
  "dcmmeta_affine": [
    [-1.9994364976882935, -0.038391273468732834, -0.027923593297600746, 102.86151123046875],
    [-0.038100533187389374, 1.9995273351669312, -0.020943056792020798, -84.71147918701172],
    [-0.028319010511040688, 0.020405204966664314, 1.9996954202651978, -73.04048156738281],
    [0.0, 0.0, 0.0, 1.0]
],
  "dcmmeta_reorient_transform": [
    [0.0, -1.0, 0.0, 99.0],
    [1.0, 0.0, 0.0, 0.0],
    [0.0, 0.0, 1.0, 0.0],
    [0.0, 0.0, 0.0, 1.0]
],
  "dcmmeta_shape": [100, 100, 72, 232],
  "dcmmeta_slice_dim": 2,
  "dcmmeta_version": 0.6,
  "global": {
    "const": {
      "AcquisitionMatrix": [100, 0, 0, 100],
      "AngioFlag": "N",
      "BitsAllocated": 16,
      "BitsStored": 12,
      "BodyPartExamined": "BRAIN",
      "Columns": 900,
      "EchoNumbers": 1,
      "EchoTime": 34.0,
      "EchoTrainLength": 100,
      "FlipAngle": 90.0,
      "HighBit": 11,
      "ImageOrientationPatient": [0.99971825819018, 0.01905026639309, -0.0141595053426, -0.0191956366331, 0.99976368929403, -0.0102026027779],
      "ImagePositionPatient": [-883.47887309038, -928.29289737579, -51.530676177818],
      "ImageType": [
        "ORIGINAL",
        "PRIMARY",
        "M",
        "ND",
        "MOSAIC"
],
      "ImagedNucleus": "1H",
      "ImagingFrequency": 123.257844,
      "InPlanePhaseEncodingDirection": "COL",
      "MRAcquisitionType": "2D",
      "MagneticFieldStrength": 3.0,
      "Manufacturer": "SIEMENS",
      "ManufacturerModelName": "Prisma",
      "Modality": "MR",
      "NumberOfAverages": 1.0,
      "NumberOfPhaseEncodingSteps": 100,
      "PercentPhaseFieldOfView": 100.0,
      "PercentSampling": 100.0,
      "PerformedProcedureStepStartTime": "101315.842000",
      "PhotometricInterpretation": "MONOCHROME2",
      "PixelBandwidth": 2380.0,
      "PixelRepresentation": 0,
      "PixelSpacing": [2.0, 2.0],
      "ProtocolName": "bold_100x100_s3_2x2x2_232",
      "RepetitionTime": 2000.0,
      "Rows": 900,
      "SAR": 0.06026717751994,
      "SamplesPerPixel": 1,
      "ScanOptions": "FS",
      "ScanningSequence": "EP",
      "SequenceName": "*epfid2d1_100",
      "SequenceVariant": "SK",
      "SeriesDescription": "bold_100x100_s3_2x2x2_232",
      "SeriesNumber": 9,
      "SeriesTime": "105329.822000",
      "SliceLocation": -73.578426524756,
      "SliceThickness": 2.0,
      "SmallestImagePixelValue": 0,
      "SoftwareVersions": "syngo MR E11",
      "SpacingBetweenSlices": 1.9999999694725,
      "SpecificCharacterSet": "ISO_IR 100",
      "StudyID": "1",
      "StudyTime": "101315.743000",
      "TransmitCoilName": "Body",
      "VariableFlipAngleFlag": "N",
      "WindowCenterWidthExplanation": "Algo1",
      "dBdt": 0.0},
    "slices": {}
  },
  "time": {
    "samples": {
      "AcquisitionNumber": [1, 2, 3, 4, 5, 6, 7, 8, 9, 10, 11, 12, 13, 14, 15, 16, 17, 18, 19, 20, 21, 22, 23, 24, 25, 26, 27, 28, 29, 30, 31, 32, 33, 34, 35, 36, 37, 38, 39, 40, 41, 42, 43, 44, 45, 46, 47, 48, 49, 50, 51, 52, 53, 54, 55, 56, 57, 58, 59, 60, 61, 62, 63, 64, 65, 66, 67, 68, 69, 70, 71, 72, 73, 74, 75, 76, 77, 78, 79, 80, 81, 82, 83, 84, 85, 86, 87, 88, 89, 90, 91, 92, 93, 94, 95, 96, 97, 98, 99, 100, 101, 102, 103, 104, 105, 106, 107, 108, 109, 110, 111, 112, 113, 114, 115, 116, 117, 118, 119, 120, 121, 122, 123, 124, 125, 126, 127, 128, 129, 130, 131, 132, 133, 134, 135, 136, 137, 138, 139, 140, 141, 142, 143, 144, 145, 146, 147, 148, 149, 150, 151, 152, 153, 154, 155, 156, 157, 158, 159, 160, 161, 162, 163, 164, 165, 166, 167, 168, 169, 170, 171, 172, 173, 174, 175, 176, 177, 178, 179, 180, 181, 182, 183, 184, 185, 186, 187, 188, 189, 190, 191, 192, 193, 194, 195, 196, 197, 198, 199, 200, 201, 202, 203, 204, 205, 206, 207, 208, 209, 210, 211, 212, 213, 214, 215, 216, 217, 218, 219, 220, 221, 222, 223, 224, 225, 226, 227, 228, 229, 230, 231, 232],
      "AcquisitionTime": ["105327.060000", "105329.060000", "105331.060000", "105333.060000", "105335.060000", "105337.060000", "105339.060000", "105341.060000", "105343.060000", "105345.060000", "105347.060000", "105349.060000", "105351.060000", "105353.060000", "105355.060000", "105357.060000", "105359.060000", "105401.060000", "105403.060000", "105405.060000", "105407.060000", "105409.060000", "105411.060000", "105413.060000", "105415.060000", "105417.060000", "105419.060000", "105421.060000", "105423.060000", "105425.060000", "105427.060000", "105429.060000", "105431.060000", "105433.060000", "105435.060000", "105437.060000", "105439.060000", "105441.060000", "105443.060000", "105445.060000", "105447.060000", "105449.060000", "105451.060000", "105453.060000", "105455.060000", "105457.060000", "105459.060000", "105501.060000", "105503.060000", "105505.060000", "105507.060000", "105509.060000", "105511.060000", "105513.060000", "105515.060000", "105517.060000", "105519.060000", "105521.060000", "105523.060000", "105525.060000", "105527.060000", "105529.060000", "105531.060000", "105533.060000", "105535.060000", "105537.060000", "105539.060000", "105541.060000", "105543.060000", "105545.060000", "105547.060000", "105549.060000", "105551.060000", "105553.060000", "105555.060000", "105557.060000", "105559.060000", "105601.060000", "105603.060000", "105605.060000", "105607.060000", "105609.060000", "105611.060000", "105613.060000", "105615.060000", "105617.060000", "105619.060000", "105621.060000", "105623.060000", "105625.060000", "105627.060000", "105629.060000", "105631.060000", "105633.060000", "105635.060000", "105637.060000", "105639.060000", "105641.060000", "105643.060000", "105645.060000", "105647.060000", "105649.060000", "105651.060000", "105653.060000", "105655.060000", "105657.060000", "105659.060000", "105701.060000", "105703.060000", "105705.060000", "105707.060000", "105709.060000", "105711.060000", "105713.060000", "105715.060000", "105717.060000", "105719.060000", "105721.060000", "105723.060000", "105725.060000", "105727.060000", "105729.060000", "105731.060000", "105733.060000", "105735.060000", "105737.060000", "105739.060000", "105741.060000", "105743.060000", "105745.060000", "105747.060000", "105749.060000", "105751.060000", "105753.060000", "105755.060000", "105757.060000", "105759.060000", "105801.060000", "105803.060000", "105805.060000", "105807.060000", "105809.060000", "105811.060000", "105813.060000", "105815.060000", "105817.060000", "105819.060000", "105821.060000", "105823.060000", "105825.060000", "105827.060000", "105829.060000", "105831.060000", "105833.060000", "105835.060000", "105837.060000", "105839.060000", "105841.060000", "105843.060000", "105845.060000", "105847.060000", "105849.060000", "105851.060000", "105853.060000", "105855.060000", "105857.060000", "105859.060000", "105901.060000", "105903.060000", "105905.060000", "105907.060000", "105909.060000", "105911.060000", "105913.060000", "105915.060000", "105917.060000", "105919.060000", "105921.060000", "105923.060000", "105925.060000", "105927.060000", "105929.060000", "105931.060000", "105933.060000", "105935.060000", "105937.060000", "105939.060000", "105941.060000", "105943.060000", "105945.060000", "105947.060000", "105949.060000", "105951.060000", "105953.060000", "105955.060000", "105957.060000", "105959.060000", "110001.060000", "110003.060000", "110005.060000", "110007.060000", "110009.060000", "110011.060000", "110013.060000", "110015.060000", "110017.060000", "110019.060000", "110021.060000", "110023.060000", "110025.060000", "110027.060000", "110029.060000", "110031.060000", "110033.060000", "110035.060000", "110037.060000", "110039.060000", "110041.060000", "110043.060000", "110045.060000", "110047.060000", "110049.060000", "110051.060000", "110053.060000", "110055.060000", "110057.060000", "110059.060000", "110101.060000", "110103.060000", "110105.060000", "110107.060000", "110109.060000"],
      "ContentTime": ["105329.826000", "105331.322000", "105333.322000", "105335.322000", "105337.321000", "105339.321000", "105341.321000", "105343.321000", "105345.321000", "105347.322000", "105349.321000", "105351.321000", "105353.321000", "105355.321000", "105357.321000", "105359.321000", "105401.321000", "105403.322000", "105405.322000", "105407.322000", "105409.322000", "105411.321000", "105413.321000", "105415.321000", "105417.322000", "105419.322000", "105421.321000", "105423.321000", "105425.321000", "105427.322000", "105429.321000", "105431.321000", "105433.322000", "105435.321000", "105437.321000", "105439.321000", "105441.321000", "105443.321000", "105445.321000", "105447.321000", "105449.321000", "105451.321000", "105453.321000", "105455.321000", "105457.321000", "105459.321000", "105501.321000", "105503.321000", "105505.321000", "105507.321000", "105509.322000", "105511.321000", "105513.322000", "105515.321000", "105517.321000", "105519.323000", "105521.321000", "105523.321000", "105525.322000", "105527.322000", "105529.322000", "105531.322000", "105533.322000", "105535.321000", "105537.322000", "105539.321000", "105541.321000", "105543.322000", "105545.321000", "105547.321000", "105549.322000", "105550.821000", "105553.321000", "105555.321000", "105557.322000", "105559.322000", "105601.322000", "105603.322000", "105605.321000", "105607.322000", "105609.321000", "105611.321000", "105613.321000", "105615.321000", "105617.321000", "105619.321000", "105621.322000", "105623.321000", "105625.322000", "105627.322000", "105629.322000", "105631.322000", "105633.322000", "105635.321000", "105637.322000", "105639.321000", "105641.321000", "105643.321000", "105645.321000", "105647.323000", "105649.321000", "105651.321000", "105653.321000", "105655.322000", "105657.321000", "105659.322000", "105701.322000", "105703.322000", "105705.321000", "105707.322000", "105709.321000", "105711.322000", "105713.322000", "105715.321000", "105717.322000", "105719.322000", "105721.321000", "105723.321000", "105725.322000", "105727.321000", "105729.321000", "105731.321000", "105733.322000", "105735.321000", "105737.321000", "105739.323000", "105741.321000", "105743.321000", "105745.322000", "105747.322000", "105749.322000", "105751.321000", "105753.321000", "105755.322000", "105757.323000", "105759.321000", "105801.321000", "105803.321000", "105805.321000", "105807.321000", "105809.321000", "105811.321000", "105813.321000", "105815.321000", "105817.322000", "105819.322000", "105821.322000", "105823.322000", "105825.321000", "105827.321000", "105829.321000", "105831.321000", "105833.322000", "105835.322000", "105837.321000", "105839.322000", "105841.322000", "105843.321000", "105845.322000", "105847.322000", "105849.322000", "105851.322000", "105853.322000", "105855.321000", "105857.321000", "105859.322000", "105901.322000", "105903.321000", "105905.322000", "105907.322000", "105909.321000", "105911.322000", "105913.321000", "105915.322000", "105917.322000", "105919.321000", "105921.321000", "105923.322000", "105925.322000", "105927.322000", "105929.322000", "105931.321000", "105933.321000", "105935.321000", "105937.321000", "105939.321000", "105941.321000", "105943.322000", "105945.322000", "105947.322000", "105949.322000", "105951.322000", "105953.321000", "105955.321000", "105957.322000", "105959.322000", "110001.322000", "110003.321000", "110005.336000", "110007.321000", "110009.321000", "110011.321000", "110013.321000", "110015.322000", "110017.323000", "110019.321000", "110021.321000", "110023.322000", "110025.321000", "110027.322000", "110029.321000", "110031.321000", "110033.321000", "110035.322000", "110037.321000", "110039.321000", "110041.321000", "110043.322000", "110045.322000", "110047.321000", "110049.322000", "110051.321000", "110053.321000", "110055.321000", "110057.322000", "110059.322000", "110101.321000", "110103.321000", "110105.321000", "110107.321000", "110109.322000", "110110.838000"],
      "InstanceCreationTime": ["105329.826000", "105331.322000", "105333.322000", "105335.322000", "105337.321000", "105339.321000", "105341.321000", "105343.321000", "105345.321000", "105347.322000", "105349.321000", "105351.321000", "105353.321000", "105355.321000", "105357.321000", "105359.321000", "105401.321000", "105403.322000", "105405.322000", "105407.322000", "105409.322000", "105411.321000", "105413.321000", "105415.321000", "105417.322000", "105419.322000", "105421.321000", "105423.321000", "105425.321000", "105427.322000", "105429.321000", "105431.321000", "105433.322000", "105435.321000", "105437.321000", "105439.321000", "105441.321000", "105443.321000", "105445.321000", "105447.321000", "105449.321000", "105451.321000", "105453.321000", "105455.321000", "105457.321000", "105459.321000", "105501.321000", "105503.321000", "105505.321000", "105507.321000", "105509.322000", "105511.321000", "105513.322000", "105515.321000", "105517.321000", "105519.323000", "105521.321000", "105523.321000", "105525.322000", "105527.322000", "105529.322000", "105531.322000", "105533.322000", "105535.321000", "105537.322000", "105539.321000", "105541.321000", "105543.322000", "105545.321000", "105547.321000", "105549.322000", "105550.821000", "105553.321000", "105555.321000", "105557.322000", "105559.322000", "105601.322000", "105603.322000", "105605.321000", "105607.322000", "105609.321000", "105611.321000", "105613.321000", "105615.321000", "105617.321000", "105619.321000", "105621.322000", "105623.321000", "105625.322000", "105627.322000", "105629.322000", "105631.322000", "105633.322000", "105635.321000", "105637.322000", "105639.321000", "105641.321000", "105643.321000", "105645.321000", "105647.323000", "105649.321000", "105651.321000", "105653.321000", "105655.322000", "105657.321000", "105659.322000", "105701.322000", "105703.322000", "105705.321000", "105707.322000", "105709.321000", "105711.322000", "105713.322000", "105715.321000", "105717.322000", "105719.322000", "105721.321000", "105723.321000", "105725.322000", "105727.321000", "105729.321000", "105731.321000", "105733.322000", "105735.321000", "105737.321000", "105739.323000", "105741.321000", "105743.321000", "105745.322000", "105747.322000", "105749.322000", "105751.321000", "105753.321000", "105755.322000", "105757.323000", "105759.321000", "105801.321000", "105803.321000", "105805.321000", "105807.321000", "105809.321000", "105811.321000", "105813.321000", "105815.321000", "105817.322000", "105819.322000", "105821.322000", "105823.322000", "105825.321000", "105827.321000", "105829.321000", "105831.321000", "105833.322000", "105835.322000", "105837.321000", "105839.322000", "105841.322000", "105843.321000", "105845.322000", "105847.322000", "105849.322000", "105851.322000", "105853.322000", "105855.321000", "105857.321000", "105859.322000", "105901.322000", "105903.321000", "105905.322000", "105907.322000", "105909.321000", "105911.322000", "105913.321000", "105915.322000", "105917.322000", "105919.321000", "105921.321000", "105923.322000", "105925.322000", "105927.322000", "105929.322000", "105931.321000", "105933.321000", "105935.321000", "105937.321000", "105939.321000", "105941.321000", "105943.322000", "105945.322000", "105947.322000", "105949.322000", "105951.322000", "105953.321000", "105955.321000", "105957.322000", "105959.322000", "110001.322000", "110003.321000", "110005.336000", "110007.321000", "110009.321000", "110011.321000", "110013.321000", "110015.322000", "110017.323000", "110019.321000", "110021.321000", "110023.322000", "110025.321000", "110027.322000", "110029.321000", "110031.321000", "110033.321000", "110035.322000", "110037.321000", "110039.321000", "110041.321000", "110043.322000", "110045.322000", "110047.321000", "110049.322000", "110051.321000", "110053.321000", "110055.321000", "110057.322000", "110059.322000", "110101.321000", "110103.321000", "110105.321000", "110107.321000", "110109.322000", "110110.838000"],
      "InstanceNumber": [1, 2, 3, 4, 5, 6, 7, 8, 9, 10, 11, 12, 13, 14, 15, 16, 17, 18, 19, 20, 21, 22, 23, 24, 25, 26, 27, 28, 29, 30, 31, 32, 33, 34, 35, 36, 37, 38, 39, 40, 41, 42, 43, 44, 45, 46, 47, 48, 49, 50, 51, 52, 53, 54, 55, 56, 57, 58, 59, 60, 61, 62, 63, 64, 65, 66, 67, 68, 69, 70, 71, 72, 73, 74, 75, 76, 77, 78, 79, 80, 81, 82, 83, 84, 85, 86, 87, 88, 89, 90, 91, 92, 93, 94, 95, 96, 97, 98, 99, 100, 101, 102, 103, 104, 105, 106, 107, 108, 109, 110, 111, 112, 113, 114, 115, 116, 117, 118, 119, 120, 121, 122, 123, 124, 125, 126, 127, 128, 129, 130, 131, 132, 133, 134, 135, 136, 137, 138, 139, 140, 141, 142, 143, 144, 145, 146, 147, 148, 149, 150, 151, 152, 153, 154, 155, 156, 157, 158, 159, 160, 161, 162, 163, 164, 165, 166, 167, 168, 169, 170, 171, 172, 173, 174, 175, 176, 177, 178, 179, 180, 181, 182, 183, 184, 185, 186, 187, 188, 189, 190, 191, 192, 193, 194, 195, 196, 197, 198, 199, 200, 201, 202, 203, 204, 205, 206, 207, 208, 209, 210, 211, 212, 213, 214, 215, 216, 217, 218, 219, 220, 221, 222, 223, 224, 225, 226, 227, 228, 229, 230, 231, 232],
      "LargestImagePixelValue": [3455, 3390, 3378, 3359, 3411, 3410, 3428, 3348, 3347, 3431, 3344, 3313, 3440, 3323, 3457, 3309, 3300, 3316, 3298, 3383, 3431, 3388, 3324, 3338, 3318, 3294, 3330, 3270, 3261, 3275, 3299, 3284, 3365, 3373, 3327, 3278, 3285, 3303, 3301, 3298, 3305, 3307, 3299, 3286, 3344, 3388, 3406, 3379, 3327, 3345, 3355, 3268, 3309, 3301, 3418, 3441, 3372, 3405, 3386, 3369, 3386, 3354, 3362, 3405, 3403, 3386, 3330, 3310, 3334, 3328, 3282, 3298, 3304, 3311, 3336, 3329, 3311, 3343, 3343, 3393, 3367, 3337, 3372, 3407, 3374, 3404, 3417, 3385, 3443, 3398, 3286, 3365, 3389, 3425, 3405, 3389, 3425, 3406, 3446, 3438, 3389, 3376, 3373, 3419, 3359, 3344, 3328, 3429, 3381, 3382, 3362, 3343, 3357, 3481, 3475, 3475, 3488, 3424, 3399, 3430, 3402, 3362, 3315, 3448, 3381, 3336, 3326, 3424, 3354, 3370, 3345, 3365, 3341, 3336, 3361, 3431, 3400, 3387, 3350, 3371, 3367, 3385, 3423, 3421, 3380, 3385, 3355, 3385, 3378, 3442, 3423, 3379, 3370, 3345, 3322, 3382, 3327, 3357, 3336, 3333, 3340, 3393, 3409, 3425, 3405, 3415, 3405, 3402, 3439, 3407, 3421, 3448, 3411, 3392, 3385, 3381, 3381, 3372, 3338, 3389, 3378, 3338, 3344, 3287, 3285, 3411, 3357, 3403, 3426, 3365, 3473, 3354, 3397, 3344, 3294, 3283, 3336, 3333, 3327, 3314, 3372, 3365, 3410, 3447, 3411, 3411, 3421, 3398, 3339, 3319, 3335, 3393, 3403, 3358, 3299, 3406, 3341, 3275, 3314, 3262, 3277, 3317, 3330, 3328, 3352, 3384, 3399, 3304, 3321, 3287, 3329, 3366],
      "WindowCenter": [766.0, 764.0, 763.0, 762.0, 763.0, 763.0, 763.0, 763.0, 762.0, 763.0, 762.0, 762.0, 763.0, 762.0, 763.0, 763.0, 763.0, 765.0, 766.0, 766.0, 766.0, 765.0, 764.0, 764.0, 764.0, 764.0, 764.0, 763.0, 764.0, 765.0, 764.0, 762.0, 762.0, 762.0, 763.0, 764.0, 764.0, 763.0, 764.0, 763.0, 763.0, 764.0, 766.0, 764.0, 765.0, 762.0, 764.0, 760.0, 762.0, 763.0, 763.0, 762.0, 763.0, 764.0, 765.0, 765.0, 762.0, 764.0, 763.0, 764.0, 764.0, 764.0, 764.0, 763.0, 763.0, 762.0, 762.0, 762.0, 763.0, 763.0, 762.0, 763.0, 763.0, 764.0, 765.0, 765.0, 765.0, 764.0, 764.0, 764.0, 764.0, 763.0, 763.0, 763.0, 763.0, 763.0, 763.0, 763.0, 761.0, 765.0, 762.0, 764.0, 762.0, 764.0, 761.0, 765.0, 764.0, 765.0, 764.0, 764.0, 763.0, 764.0, 766.0, 765.0, 764.0, 764.0, 763.0, 764.0, 763.0, 762.0, 763.0, 764.0, 765.0, 765.0, 765.0, 765.0, 764.0, 764.0, 764.0, 764.0, 763.0, 763.0, 762.0, 762.0, 761.0, 761.0, 762.0, 763.0, 764.0, 765.0, 766.0, 766.0, 765.0, 764.0, 764.0, 764.0, 762.0, 767.0, 765.0, 766.0, 765.0, 764.0, 764.0, 762.0, 763.0, 763.0, 764.0, 765.0, 764.0, 764.0, 764.0, 764.0, 764.0, 765.0, 765.0, 766.0, 765.0, 764.0, 763.0, 763.0, 763.0, 764.0, 764.0, 764.0, 763.0, 764.0, 764.0, 764.0, 765.0, 765.0, 765.0, 765.0, 764.0, 763.0, 763.0, 763.0, 763.0, 763.0, 764.0, 763.0, 762.0, 759.0, 761.0, 762.0, 761.0, 764.0, 762.0, 762.0, 763.0, 759.0, 763.0, 761.0, 763.0, 762.0, 761.0, 761.0, 761.0, 762.0, 762.0, 763.0, 764.0, 764.0, 765.0, 765.0, 764.0, 763.0, 764.0, 764.0, 763.0, 763.0, 764.0, 765.0, 764.0, 763.0, 762.0, 762.0, 761.0, 761.0, 764.0, 764.0, 763.0, 763.0, 763.0, 762.0, 763.0, 763.0, 765.0, 764.0, 764.0, 762.0, 763.0, 763.0],
      "WindowWidth": [1679.0, 1673.0, 1671.0, 1668.0, 1670.0, 1671.0, 1671.0, 1669.0, 1668.0, 1670.0, 1668.0, 1667.0, 1670.0, 1667.0, 1672.0, 1670.0, 1672.0, 1675.0, 1678.0, 1680.0, 1678.0, 1675.0, 1673.0, 1674.0, 1673.0, 1673.0, 1674.0, 1672.0, 1674.0, 1675.0, 1672.0, 1668.0, 1666.0, 1666.0, 1669.0, 1672.0, 1672.0, 1671.0, 1672.0, 1671.0, 1671.0, 1674.0, 1678.0, 1674.0, 1675.0, 1667.0, 1673.0, 1663.0, 1667.0, 1669.0, 1670.0, 1667.0, 1671.0, 1674.0, 1677.0, 1674.0, 1667.0, 1673.0, 1671.0, 1672.0, 1674.0, 1673.0, 1672.0, 1671.0, 1670.0, 1667.0, 1667.0, 1668.0, 1670.0, 1669.0, 1668.0, 1670.0, 1670.0, 1671.0, 1675.0, 1676.0, 1674.0, 1672.0, 1671.0, 1672.0, 1673.0, 1671.0, 1671.0, 1671.0, 1671.0, 1671.0, 1671.0, 1669.0, 1666.0, 1675.0, 1668.0, 1672.0, 1669.0, 1672.0, 1665.0, 1676.0, 1674.0, 1674.0, 1674.0, 1672.0, 1671.0, 1673.0, 1678.0, 1677.0, 1673.0, 1671.0, 1671.0, 1673.0, 1671.0, 1668.0, 1671.0, 1674.0, 1675.0, 1676.0, 1674.0, 1674.0, 1673.0, 1672.0, 1672.0, 1672.0, 1669.0, 1668.0, 1668.0, 1667.0, 1664.0, 1664.0, 1666.0, 1671.0, 1671.0, 1675.0, 1678.0, 1678.0, 1675.0, 1672.0, 1672.0, 1673.0, 1668.0, 1682.0, 1677.0, 1680.0, 1675.0, 1672.0, 1673.0, 1667.0, 1669.0, 1671.0, 1673.0, 1674.0, 1674.0, 1672.0, 1671.0, 1672.0, 1673.0, 1674.0, 1676.0, 1678.0, 1674.0, 1671.0, 1671.0, 1670.0, 1670.0, 1672.0, 1673.0, 1672.0, 1671.0, 1672.0, 1672.0, 1673.0, 1675.0, 1675.0, 1676.0, 1675.0, 1672.0, 1670.0, 1668.0, 1669.0, 1668.0, 1670.0, 1672.0, 1668.0, 1666.0, 1659.0, 1663.0, 1666.0, 1665.0, 1672.0, 1668.0, 1667.0, 1669.0, 1659.0, 1669.0, 1663.0, 1669.0, 1666.0, 1664.0, 1663.0, 1665.0, 1666.0, 1668.0, 1670.0, 1672.0, 1673.0, 1676.0, 1676.0, 1672.0, 1671.0, 1671.0, 1672.0, 1669.0, 1669.0, 1672.0, 1675.0, 1671.0, 1668.0, 1666.0, 1666.0, 1665.0, 1666.0, 1672.0, 1673.0, 1670.0, 1669.0, 1670.0, 1669.0, 1669.0, 1670.0, 1674.0, 1672.0, 1671.0, 1668.0, 1668.0, 1668.0]
    },
    "slices": {}
  }
}