{
  "AcquisitionMatrixPE": 100,
  "AcquisitionNumber": 1,
  "AcquisitionTime": "09:50:45.022500",
  "BandwidthPerPixelPhaseEncode": 18.519,
  "BaseResolution": 100,
  "BodyPartExamined": "BRAIN",
  "ConsistencyInfo": "N4_VE11C_LATEST_20160120",
  "ConversionSoftware": "dcm2niix",
  "ConversionSoftwareVersion": "v1.0.20180622 GCC4.9.2",
  "DerivedVendorReportedEchoSpacing": 0.000539986,
  "DeviceSerialNumber": "166078",
  "DwellTime": 2.1e-06,
  "EchoTime": 0.034,
  "EchoTrainLength": 100,
  "EffectiveEchoSpacing": 0.000539986,
  "FlipAngle": 90,
  "ImageOrientationPatientDICOM": [0.997091, 0.00717365, -0.0758863, -0.0226271, 0.978542, -0.2048],
  "ImageType": [
    "ORIGINAL",
    "PRIMARY",
    "M",
    "ND",
    "MOSAIC"
],
  "InPlanePhaseEncodingDirectionDICOM": "COL",
  "InstitutionAddress": "Street_StreetNo_Bei_Jing_District_CN_ZIP",
  "InstitutionName": "BeiJing_Normal_University",
  "InstitutionalDepartmentName": "Department",
  "MRAcquisitionType": "2D",
  "MagneticFieldStrength": 3,
  "Manufacturer": "Siemens",
  "ManufacturersModelName": "Prisma",
  "Modality": "MR",
  "MultibandAccelerationFactor": 3,
  "PartialFourier": 1,
  "PatientPosition": "HFS",
  "PercentPhaseFOV": 100,
  "PhaseEncodingDirection": "j-",
  "PhaseEncodingSteps": 100,
  "PhaseResolution": 1,
  "PixelBandwidth": 2380,
  "ProcedureStepDescription": "BNU_P2018_64CH_Liu.Jia",
  "ProtocolName": "bold_100x100_s3_2x2x2_232",
  "PulseSequenceDetails": "%SiemensSeq%_ep2d_bold",
  "ReceiveCoilActiveElements": "HC1-7;NC1",
  "ReceiveCoilName": "HeadNeck_64",
  "ReconMatrixPE": 100,
  "RepetitionTime": 2,
  "SAR": 0.0644599,
  "ScanOptions": "FS",
  "ScanningSequence": "EP",
  "SequenceName": "_epfid2d1_100",
  "SequenceVariant": "SK",
  "SeriesDescription": "bold_100x100_s3_2x2x2_232",
  "SeriesNumber": 9,
  "ShimSetting": [-5477, -11479, -1230, 410, 12, -291, -177, 127],
  "SliceThickness": 2,
  "SliceTiming": [1.485, 0, 0.99, 0.0825, 1.0725, 0.165, 1.155, 0.2475, 1.2375, 0.33, 1.32, 0.4125, 1.4025, 0.5775, 1.5675, 0.66, 1.65, 0.7425, 1.7325, 0.825, 1.815, 0.9075, 1.8975, 0.495, 1.485, 0, 0.99, 0.0825, 1.0725, 0.165, 1.155, 0.2475, 1.2375, 0.33, 1.32, 0.4125, 1.4025, 0.5775, 1.5675, 0.66, 1.65, 0.7425, 1.7325, 0.825, 1.815, 0.9075, 1.8975, 0.495, 1.485, 0, 0.99, 0.0825, 1.0725, 0.165, 1.155, 0.2475, 1.2375, 0.33, 1.32, 0.4125, 1.4025, 0.5775, 1.5675, 0.66, 1.65, 0.7425, 1.7325, 0.825, 1.815, 0.9075, 1.8975, 0.495],
  "SoftwareVersions": "syngo_MR_E11",
  "SpacingBetweenSlices": 2,
  "StationName": "AWP166078",
  "TaskName": "motor",
  "TotalReadoutTime": 0.0534586,
  "TxRefAmp": 210.913,
  "dcmmeta_affine": [
    [-1.9941813945770264, -0.0452541708946228, -0.14557750523090363, 106.81019592285156],
    [-0.014347304590046406, 1.9570844173431396, -0.4118431806564331, -81.06324005126953],
    [-0.15177254378795624, 0.4096006751060486, 1.9517152309417725, -66.17008972167969],
    [0.0, 0.0, 0.0, 1.0]
],
  "dcmmeta_reorient_transform": [
    [0.0, -1.0, 0.0, 99.0],
    [1.0, 0.0, 0.0, 0.0],
    [0.0, 0.0, 1.0, 0.0],
    [0.0, 0.0, 0.0, 1.0]
],
  "dcmmeta_shape": [100, 100, 72, 232],
  "dcmmeta_slice_dim": 2,
  "dcmmeta_version": 0.6,
  "global": {
    "const": {
      "AcquisitionMatrix": [100, 0, 0, 100],
      "AngioFlag": "N",
      "BitsAllocated": 16,
      "BitsStored": 12,
      "BodyPartExamined": "BRAIN",
      "Columns": 900,
      "EchoNumbers": 1,
      "EchoTime": 34.0,
      "EchoTrainLength": 100,
      "FlipAngle": 90.0,
      "HighBit": 11,
      "ImageOrientationPatient": [0.99709067427542, 0.00717365219627, -0.0758862700833, -0.0226270845659, 0.97854220014148, -0.2048003359038],
      "ImagePositionPatient": [-881.90090631378, -901.26079370768, 198.92966337552],
      "ImageType": [
        "ORIGINAL",
        "PRIMARY",
        "M",
        "ND",
        "MOSAIC"
],
      "ImagedNucleus": "1H",
      "ImagingFrequency": 123.257827,
      "InPlanePhaseEncodingDirection": "COL",
      "MRAcquisitionType": "2D",
      "MagneticFieldStrength": 3.0,
      "Manufacturer": "SIEMENS",
      "ManufacturerModelName": "Prisma",
      "Modality": "MR",
      "NumberOfAverages": 1.0,
      "NumberOfPhaseEncodingSteps": 100,
      "PercentPhaseFieldOfView": 100.0,
      "PercentSampling": 100.0,
      "PerformedProcedureStepStartTime": "090311.637000",
      "PhotometricInterpretation": "MONOCHROME2",
      "PixelBandwidth": 2380.0,
      "PixelRepresentation": 0,
      "PixelSpacing": [2.0, 2.0],
      "ProtocolName": "bold_100x100_s3_2x2x2_232",
      "RepetitionTime": 2000.0,
      "Rows": 900,
      "SAR": 0.06445990978359,
      "SamplesPerPixel": 1,
      "ScanOptions": "FS",
      "ScanningSequence": "EP",
      "SequenceName": "*epfid2d1_100",
      "SequenceVariant": "SK",
      "SeriesDescription": "bold_100x100_s3_2x2x2_232",
      "SeriesNumber": 9,
      "SeriesTime": "095047.778000",
      "SliceLocation": -55.654493411099,
      "SliceThickness": 2.0,
      "SmallestImagePixelValue": 0,
      "SoftwareVersions": "syngo MR E11",
      "SpacingBetweenSlices": 1.9999999839192,
      "SpecificCharacterSet": "ISO_IR 100",
      "StudyID": "1",
      "StudyTime": "090311.493000",
      "TransmitCoilName": "Body",
      "VariableFlipAngleFlag": "N",
      "WindowCenterWidthExplanation": "Algo1",
      "dBdt": 0.0},
    "slices": {}
  },
  "time": {
    "samples": {
      "AcquisitionNumber": [1, 2, 3, 4, 5, 6, 7, 8, 9, 10, 11, 12, 13, 14, 15, 16, 17, 18, 19, 20, 21, 22, 23, 24, 25, 26, 27, 28, 29, 30, 31, 32, 33, 34, 35, 36, 37, 38, 39, 40, 41, 42, 43, 44, 45, 46, 47, 48, 49, 50, 51, 52, 53, 54, 55, 56, 57, 58, 59, 60, 61, 62, 63, 64, 65, 66, 67, 68, 69, 70, 71, 72, 73, 74, 75, 76, 77, 78, 79, 80, 81, 82, 83, 84, 85, 86, 87, 88, 89, 90, 91, 92, 93, 94, 95, 96, 97, 98, 99, 100, 101, 102, 103, 104, 105, 106, 107, 108, 109, 110, 111, 112, 113, 114, 115, 116, 117, 118, 119, 120, 121, 122, 123, 124, 125, 126, 127, 128, 129, 130, 131, 132, 133, 134, 135, 136, 137, 138, 139, 140, 141, 142, 143, 144, 145, 146, 147, 148, 149, 150, 151, 152, 153, 154, 155, 156, 157, 158, 159, 160, 161, 162, 163, 164, 165, 166, 167, 168, 169, 170, 171, 172, 173, 174, 175, 176, 177, 178, 179, 180, 181, 182, 183, 184, 185, 186, 187, 188, 189, 190, 191, 192, 193, 194, 195, 196, 197, 198, 199, 200, 201, 202, 203, 204, 205, 206, 207, 208, 209, 210, 211, 212, 213, 214, 215, 216, 217, 218, 219, 220, 221, 222, 223, 224, 225, 226, 227, 228, 229, 230, 231, 232],
      "AcquisitionTime": ["095045.022500", "095047.022500", "095049.022500", "095051.022500", "095053.022500", "095055.022500", "095057.022500", "095059.022500", "095101.022500", "095103.022500", "095105.022500", "095107.022500", "095109.022500", "095111.022500", "095113.022500", "095115.022500", "095117.022500", "095119.022500", "095121.022500", "095123.022500", "095125.022500", "095127.022500", "095129.022500", "095131.022500", "095133.022500", "095135.022500", "095137.022500", "095139.022500", "095141.022500", "095143.022500", "095145.022500", "095147.022500", "095149.022500", "095151.022500", "095153.022500", "095155.022500", "095157.022500", "095159.022500", "095201.022500", "095203.022500", "095205.022500", "095207.022500", "095209.022500", "095211.022500", "095213.022500", "095215.022500", "095217.022500", "095219.022500", "095221.022500", "095223.022500", "095225.022500", "095227.022500", "095229.022500", "095231.022500", "095233.022500", "095235.022500", "095237.022500", "095239.022500", "095241.022500", "095243.022500", "095245.022500", "095247.022500", "095249.022500", "095251.022500", "095253.022500", "095255.022500", "095257.022500", "095259.022500", "095301.022500", "095303.022500", "095305.022500", "095307.022500", "095309.022500", "095311.022500", "095313.022500", "095315.022500", "095317.022500", "095319.022500", "095321.022500", "095323.022500", "095325.022500", "095327.022500", "095329.022500", "095331.022500", "095333.022500", "095335.022500", "095337.022500", "095339.022500", "095341.022500", "095343.022500", "095345.022500", "095347.022500", "095349.022500", "095351.022500", "095353.022500", "095355.022500", "095357.022500", "095359.022500", "095401.022500", "095403.022500", "095405.022500", "095407.022500", "095409.022500", "095411.022500", "095413.022500", "095415.022500", "095417.022500", "095419.022500", "095421.022500", "095423.022500", "095425.022500", "095427.022500", "095429.022500", "095431.022500", "095433.022500", "095435.022500", "095437.022500", "095439.022500", "095441.022500", "095443.022500", "095445.022500", "095447.022500", "095449.022500", "095451.022500", "095453.022500", "095455.022500", "095457.022500", "095459.022500", "095501.022500", "095503.022500", "095505.022500", "095507.022500", "095509.022500", "095511.022500", "095513.022500", "095515.022500", "095517.022500", "095519.022500", "095521.022500", "095523.022500", "095525.022500", "095527.022500", "095529.022500", "095531.022500", "095533.022500", "095535.022500", "095537.022500", "095539.022500", "095541.022500", "095543.022500", "095545.022500", "095547.022500", "095549.022500", "095551.022500", "095553.022500", "095555.022500", "095557.022500", "095559.022500", "095601.022500", "095603.022500", "095605.022500", "095607.022500", "095609.022500", "095611.022500", "095613.022500", "095615.022500", "095617.022500", "095619.022500", "095621.022500", "095623.022500", "095625.022500", "095627.022500", "095629.022500", "095631.022500", "095633.022500", "095635.022500", "095637.022500", "095639.022500", "095641.022500", "095643.022500", "095645.022500", "095647.022500", "095649.022500", "095651.022500", "095653.022500", "095655.022500", "095657.022500", "095659.022500", "095701.022500", "095703.022500", "095705.022500", "095707.022500", "095709.022500", "095711.022500", "095713.022500", "095715.022500", "095717.022500", "095719.022500", "095721.022500", "095723.022500", "095725.022500", "095727.022500", "095729.022500", "095731.022500", "095733.022500", "095735.022500", "095737.022500", "095739.022500", "095741.022500", "095743.022500", "095745.022500", "095747.022500", "095749.022500", "095751.022500", "095753.022500", "095755.022500", "095757.022500", "095759.022500", "095801.022500", "095803.022500", "095805.022500", "095807.022500", "095809.022500", "095811.022500", "095813.022500", "095815.022500", "095817.022500", "095819.022500", "095821.022500", "095823.022500", "095825.022500", "095827.022500"],
      "ContentTime": ["095047.782000", "095049.277000", "095051.276000", "095052.776000", "095055.276000", "095057.276000", "095059.276000", "095101.276000", "095103.277000", "095105.278000", "095107.277000", "095108.777000", "095110.777000", "095113.277000", "095115.276000", "095117.276000", "095119.277000", "095121.277000", "095123.277000", "095125.278000", "095127.276000", "095128.776000", "095131.276000", "095132.776000", "095135.276000", "095137.277000", "095138.778000", "095141.277000", "095143.277000", "095144.776000", "095147.276000", "095149.276000", "095150.776000", "095153.276000", "095155.277000", "095157.277000", "095159.277000", "095201.276000", "095203.276000", "095204.776000", "095207.277000", "095208.776000", "095210.776000", "095212.777000", "095215.278000", "095217.277000", "095219.276000", "095221.277000", "095223.276000", "095225.276000", "095226.777000", "095229.276000", "095231.277000", "095232.778000", "095235.277000", "095237.277000", "095239.276000", "095241.276000", "095243.277000", "095245.277000", "095247.277000", "095249.277000", "095251.278000", "095253.276000", "095255.277000", "095256.776000", "095259.276000", "095301.276000", "095303.277000", "095305.277000", "095307.277000", "095309.277000", "095311.276000", "095313.276000", "095315.276000", "095317.277000", "095319.277000", "095320.777000", "095322.777000", "095324.777000", "095326.777000", "095329.277000", "095331.276000", "095333.277000", "095335.276000", "095337.276000", "095339.278000", "095341.277000", "095343.277000", "095345.278000", "095347.276000", "095349.276000", "095351.276000", "095353.276000", "095354.776000", "095357.277000", "095359.277000", "095401.278000", "095403.277000", "095405.276000", "095407.277000", "095409.276000", "095411.276000", "095413.277000", "095415.277000", "095417.277000", "095419.277000", "095420.776000", "095423.276000", "095425.277000", "095427.277000", "095429.276000", "095431.276000", "095433.277000", "095435.277000", "095437.277000", "095438.776000", "095441.277000", "095443.276000", "095445.276000", "095446.776000", "095449.277000", "095451.277000", "095453.278000", "095455.278000", "095457.276000", "095459.276000", "095501.276000", "095503.276000", "095505.276000", "095506.777000", "095509.277000", "095511.278000", "095513.276000", "095515.276000", "095517.276000", "095519.276000", "095521.276000", "095522.776000", "095525.278000", "095527.277000", "095529.277000", "095531.277000", "095533.277000", "095534.776000", "095537.276000", "095539.276000", "095541.276000", "095543.278000", "095544.778000", "095547.277000", "095549.277000", "095551.276000", "095552.776000", "095555.276000", "095556.776000", "095558.776000", "095600.777000", "095603.277000", "095605.277000", "095607.277000", "095609.277000", "095611.276000", "095613.277000", "095615.276000", "095617.278000", "095619.277000", "095621.277000", "095623.276000", "095625.276000", "095627.276000", "095629.276000", "095631.276000", "095633.277000", "095634.777000", "095637.278000", "095639.277000", "095641.277000", "095643.277000", "095645.276000", "095646.777000", "095649.277000", "095650.776000", "095653.277000", "095655.278000", "095657.278000", "095659.276000", "095701.277000", "095703.276000", "095704.776000", "095706.776000", "095709.277000", "095711.278000", "095712.778000", "095715.277000", "095716.776000", "095719.276000", "095721.276000", "095722.777000", "095725.276000", "095727.277000", "095728.778000", "095731.278000", "095733.276000", "095735.277000", "095736.777000", "095739.276000", "095740.776000", "095743.276000", "095744.777000", "095747.278000", "095749.277000", "095751.276000", "095753.276000", "095755.276000", "095757.276000", "095759.277000", "095801.276000", "095803.277000", "095804.778000", "095807.288000", "095809.276000", "095811.277000", "095813.276000", "095815.277000", "095817.277000", "095819.277000", "095821.278000", "095823.278000", "095824.778000", "095827.276000", "095828.783000"],
      "InstanceCreationTime": ["095047.782000", "095049.277000", "095051.276000", "095052.776000", "095055.276000", "095057.276000", "095059.276000", "095101.276000", "095103.277000", "095105.278000", "095107.277000", "095108.777000", "095110.777000", "095113.277000", "095115.276000", "095117.276000", "095119.277000", "095121.277000", "095123.277000", "095125.278000", "095127.276000", "095128.776000", "095131.276000", "095132.776000", "095135.276000", "095137.277000", "095138.778000", "095141.277000", "095143.277000", "095144.776000", "095147.276000", "095149.276000", "095150.776000", "095153.276000", "095155.277000", "095157.277000", "095159.277000", "095201.276000", "095203.276000", "095204.776000", "095207.277000", "095208.776000", "095210.776000", "095212.777000", "095215.278000", "095217.277000", "095219.276000", "095221.277000", "095223.276000", "095225.276000", "095226.777000", "095229.276000", "095231.277000", "095232.778000", "095235.277000", "095237.277000", "095239.276000", "095241.276000", "095243.277000", "095245.277000", "095247.277000", "095249.277000", "095251.278000", "095253.276000", "095255.277000", "095256.776000", "095259.276000", "095301.276000", "095303.277000", "095305.277000", "095307.277000", "095309.277000", "095311.276000", "095313.276000", "095315.276000", "095317.277000", "095319.277000", "095320.777000", "095322.777000", "095324.777000", "095326.777000", "095329.277000", "095331.276000", "095333.277000", "095335.276000", "095337.276000", "095339.278000", "095341.277000", "095343.277000", "095345.278000", "095347.276000", "095349.276000", "095351.276000", "095353.276000", "095354.776000", "095357.277000", "095359.277000", "095401.278000", "095403.277000", "095405.276000", "095407.277000", "095409.276000", "095411.276000", "095413.277000", "095415.277000", "095417.277000", "095419.277000", "095420.776000", "095423.276000", "095425.277000", "095427.277000", "095429.276000", "095431.276000", "095433.277000", "095435.277000", "095437.277000", "095438.776000", "095441.277000", "095443.276000", "095445.276000", "095446.776000", "095449.277000", "095451.277000", "095453.278000", "095455.278000", "095457.276000", "095459.276000", "095501.276000", "095503.276000", "095505.276000", "095506.777000", "095509.277000", "095511.278000", "095513.276000", "095515.276000", "095517.276000", "095519.276000", "095521.276000", "095522.776000", "095525.278000", "095527.277000", "095529.277000", "095531.277000", "095533.277000", "095534.776000", "095537.276000", "095539.276000", "095541.276000", "095543.278000", "095544.778000", "095547.277000", "095549.277000", "095551.276000", "095552.776000", "095555.276000", "095556.776000", "095558.776000", "095600.777000", "095603.277000", "095605.277000", "095607.277000", "095609.277000", "095611.276000", "095613.277000", "095615.276000", "095617.278000", "095619.277000", "095621.277000", "095623.276000", "095625.276000", "095627.276000", "095629.276000", "095631.276000", "095633.277000", "095634.777000", "095637.278000", "095639.277000", "095641.277000", "095643.277000", "095645.276000", "095646.777000", "095649.277000", "095650.776000", "095653.277000", "095655.278000", "095657.278000", "095659.276000", "095701.277000", "095703.276000", "095704.776000", "095706.776000", "095709.277000", "095711.278000", "095712.778000", "095715.277000", "095716.776000", "095719.276000", "095721.276000", "095722.777000", "095725.276000", "095727.277000", "095728.778000", "095731.278000", "095733.276000", "095735.277000", "095736.777000", "095739.276000", "095740.776000", "095743.276000", "095744.777000", "095747.278000", "095749.277000", "095751.276000", "095753.276000", "095755.276000", "095757.276000", "095759.277000", "095801.276000", "095803.277000", "095804.778000", "095807.288000", "095809.276000", "095811.277000", "095813.276000", "095815.277000", "095817.277000", "095819.277000", "095821.278000", "095823.278000", "095824.778000", "095827.276000", "095828.783000"],
      "InstanceNumber": [1, 2, 3, 4, 5, 6, 7, 8, 9, 10, 11, 12, 13, 14, 15, 16, 17, 18, 19, 20, 21, 22, 23, 24, 25, 26, 27, 28, 29, 30, 31, 32, 33, 34, 35, 36, 37, 38, 39, 40, 41, 42, 43, 44, 45, 46, 47, 48, 49, 50, 51, 52, 53, 54, 55, 56, 57, 58, 59, 60, 61, 62, 63, 64, 65, 66, 67, 68, 69, 70, 71, 72, 73, 74, 75, 76, 77, 78, 79, 80, 81, 82, 83, 84, 85, 86, 87, 88, 89, 90, 91, 92, 93, 94, 95, 96, 97, 98, 99, 100, 101, 102, 103, 104, 105, 106, 107, 108, 109, 110, 111, 112, 113, 114, 115, 116, 117, 118, 119, 120, 121, 122, 123, 124, 125, 126, 127, 128, 129, 130, 131, 132, 133, 134, 135, 136, 137, 138, 139, 140, 141, 142, 143, 144, 145, 146, 147, 148, 149, 150, 151, 152, 153, 154, 155, 156, 157, 158, 159, 160, 161, 162, 163, 164, 165, 166, 167, 168, 169, 170, 171, 172, 173, 174, 175, 176, 177, 178, 179, 180, 181, 182, 183, 184, 185, 186, 187, 188, 189, 190, 191, 192, 193, 194, 195, 196, 197, 198, 199, 200, 201, 202, 203, 204, 205, 206, 207, 208, 209, 210, 211, 212, 213, 214, 215, 216, 217, 218, 219, 220, 221, 222, 223, 224, 225, 226, 227, 228, 229, 230, 231, 232],
      "LargestImagePixelValue": [4095, 4095, 4095, 4095, 4095, 4095, 4095, 4095, 4095, 4095, 4095, 4095, 4095, 4095, 4095, 4095, 4095, 4095, 4095, 4095, 4095, 4095, 4095, 4095, 4095, 4095, 4095, 4095, 4095, 4095, 4095, 4095, 4095, 4095, 4095, 4095, 4095, 4095, 4095, 4095, 4095, 4095, 4095, 4095, 4095, 4095, 4095, 4095, 4095, 4095, 4095, 4095, 4095, 4095, 4095, 4095, 4095, 4095, 4095, 4095, 4095, 4095, 4095, 4095, 4095, 4095, 4095, 4095, 4095, 4095, 4095, 4095, 4095, 4095, 4095, 4095, 4095, 4095, 4095, 4095, 4095, 4095, 4095, 4095, 4095, 4095, 4095, 4095, 4095, 4095, 4095, 4095, 4095, 4095, 4095, 4095, 4095, 4095, 4095, 4095, 4095, 4095, 4095, 4095, 4095, 4095, 4095, 4095, 4095, 4095, 4095, 4095, 4095, 4095, 4095, 4095, 4095, 4095, 4095, 4095, 4095, 4095, 4010, 4095, 4095, 4095, 4095, 4095, 4095, 4095, 4095, 4095, 4095, 4095, 4095, 4095, 4095, 4095, 4095, 4095, 4095, 4095, 4095, 4095, 4095, 4095, 4095, 4095, 4095, 4095, 4095, 4095, 4095, 4095, 4095, 4095, 4095, 4095, 4095, 4095, 4095, 4095, 4095, 4095, 4095, 4095, 4095, 4095, 4095, 4095, 4095, 4095, 4095, 4095, 4095, 4095, 4095, 4095, 4095, 4095, 4095, 4095, 4095, 4095, 4095, 4095, 4095, 4095, 4095, 4095, 4095, 4095, 4095, 4095, 4095, 4095, 4095, 4095, 4095, 4095, 4095, 4095, 4095, 4095, 4095, 4095, 4095, 4095, 4095, 4095, 4095, 4095, 4095, 4095, 4095, 4095, 4095, 4095, 4095, 4095, 4095, 4095, 4095, 4095, 4095, 4095, 4095, 4095, 4095, 4095, 4095, 4095],
      "WindowCenter": [847.0, 845.0, 846.0, 846.0, 846.0, 847.0, 847.0, 848.0, 847.0, 846.0, 844.0, 844.0, 844.0, 845.0, 846.0, 846.0, 845.0, 846.0, 849.0, 850.0, 849.0, 847.0, 847.0, 850.0, 851.0, 851.0, 850.0, 849.0, 848.0, 849.0, 849.0, 849.0, 851.0, 852.0, 850.0, 848.0, 848.0, 849.0, 849.0, 849.0, 848.0, 846.0, 846.0, 847.0, 848.0, 848.0, 849.0, 849.0, 849.0, 848.0, 846.0, 845.0, 845.0, 847.0, 846.0, 845.0, 846.0, 847.0, 843.0, 839.0, 837.0, 837.0, 839.0, 841.0, 845.0, 847.0, 847.0, 847.0, 846.0, 846.0, 847.0, 848.0, 849.0, 847.0, 846.0, 848.0, 848.0, 848.0, 848.0, 848.0, 850.0, 850.0, 848.0, 845.0, 844.0, 844.0, 846.0, 846.0, 846.0, 846.0, 847.0, 848.0, 849.0, 848.0, 847.0, 848.0, 851.0, 852.0, 850.0, 846.0, 845.0, 847.0, 849.0, 850.0, 848.0, 846.0, 844.0, 844.0, 847.0, 847.0, 846.0, 847.0, 848.0, 847.0, 846.0, 845.0, 843.0, 843.0, 843.0, 842.0, 839.0, 836.0, 832.0, 837.0, 839.0, 841.0, 844.0, 845.0, 847.0, 847.0, 849.0, 847.0, 842.0, 838.0, 836.0, 836.0, 837.0, 838.0, 841.0, 844.0, 845.0, 846.0, 847.0, 849.0, 850.0, 851.0, 851.0, 850.0, 851.0, 853.0, 852.0, 850.0, 848.0, 846.0, 845.0, 844.0, 845.0, 845.0, 846.0, 848.0, 848.0, 848.0, 847.0, 847.0, 847.0, 846.0, 845.0, 844.0, 845.0, 846.0, 846.0, 846.0, 846.0, 848.0, 848.0, 847.0, 844.0, 842.0, 842.0, 844.0, 844.0, 845.0, 846.0, 846.0, 845.0, 844.0, 845.0, 846.0, 842.0, 850.0, 850.0, 850.0, 849.0, 848.0, 846.0, 846.0, 848.0, 850.0, 849.0, 849.0, 850.0, 851.0, 851.0, 849.0, 849.0, 850.0, 851.0, 852.0, 851.0, 850.0, 849.0, 849.0, 849.0, 847.0, 849.0, 851.0, 850.0, 845.0, 841.0, 841.0, 844.0, 845.0, 848.0, 850.0, 850.0, 848.0, 846.0, 845.0, 845.0, 845.0, 844.0, 844.0],
      "WindowWidth": [1874.0, 1870.0, 1871.0, 1873.0, 1872.0, 1874.0, 1876.0, 1877.0, 1876.0, 1872.0, 1868.0, 1865.0, 1866.0, 1870.0, 1873.0, 1872.0, 1870.0, 1873.0, 1881.0, 1883.0, 1880.0, 1875.0, 1877.0, 1883.0, 1887.0, 1889.0, 1886.0, 1881.0, 1880.0, 1880.0, 1881.0, 1881.0, 1887.0, 1889.0, 1883.0, 1878.0, 1877.0, 1881.0, 1883.0, 1881.0, 1877.0, 1871.0, 1872.0, 1875.0, 1877.0, 1879.0, 1880.0, 1881.0, 1880.0, 1877.0, 1872.0, 1869.0, 1870.0, 1874.0, 1872.0, 1870.0, 1872.0, 1873.0, 1863.0, 1850.0, 1844.0, 1846.0, 1853.0, 1859.0, 1869.0, 1877.0, 1877.0, 1875.0, 1871.0, 1871.0, 1876.0, 1879.0, 1879.0, 1876.0, 1873.0, 1877.0, 1879.0, 1878.0, 1877.0, 1878.0, 1883.0, 1882.0, 1876.0, 1868.0, 1865.0, 1867.0, 1872.0, 1873.0, 1872.0, 1872.0, 1874.0, 1878.0, 1880.0, 1877.0, 1873.0, 1878.0, 1887.0, 1890.0, 1881.0, 1872.0, 1868.0, 1874.0, 1881.0, 1882.0, 1878.0, 1871.0, 1867.0, 1866.0, 1875.0, 1873.0, 1871.0, 1873.0, 1877.0, 1873.0, 1871.0, 1868.0, 1863.0, 1862.0, 1862.0, 1860.0, 1850.0, 1840.0, 1830.0, 1846.0, 1852.0, 1857.0, 1865.0, 1868.0, 1875.0, 1875.0, 1881.0, 1875.0, 1859.0, 1847.0, 1842.0, 1842.0, 1843.0, 1849.0, 1858.0, 1865.0, 1868.0, 1872.0, 1876.0, 1879.0, 1884.0, 1887.0, 1886.0, 1884.0, 1886.0, 1892.0, 1888.0, 1882.0, 1876.0, 1872.0, 1867.0, 1867.0, 1868.0, 1870.0, 1873.0, 1877.0, 1877.0, 1877.0, 1875.0, 1876.0, 1875.0, 1874.0, 1868.0, 1867.0, 1869.0, 1873.0, 1871.0, 1872.0, 1871.0, 1878.0, 1877.0, 1873.0, 1866.0, 1859.0, 1860.0, 1865.0, 1867.0, 1869.0, 1871.0, 1870.0, 1867.0, 1864.0, 1867.0, 1871.0, 1859.0, 1885.0, 1882.0, 1882.0, 1879.0, 1876.0, 1871.0, 1871.0, 1879.0, 1884.0, 1881.0, 1882.0, 1884.0, 1886.0, 1885.0, 1881.0, 1881.0, 1883.0, 1886.0, 1890.0, 1887.0, 1883.0, 1881.0, 1880.0, 1880.0, 1877.0, 1882.0, 1888.0, 1881.0, 1868.0, 1857.0, 1857.0, 1865.0, 1870.0, 1877.0, 1883.0, 1883.0, 1876.0, 1871.0, 1868.0, 1868.0, 1868.0, 1864.0, 1867.0]
    },
    "slices": {}
  }
}