{
  "AcquisitionMatrixPE": 100,
  "AcquisitionNumber": 1,
  "AcquisitionTime": "09:59:39.212500",
  "BandwidthPerPixelPhaseEncode": 18.519,
  "BaseResolution": 100,
  "BodyPartExamined": "BRAIN",
  "ConsistencyInfo": "N4_VE11C_LATEST_20160120",
  "ConversionSoftware": "dcm2niix",
  "ConversionSoftwareVersion": "v1.0.20180622 GCC4.9.2",
  "DerivedVendorReportedEchoSpacing": 0.000539986,
  "DeviceSerialNumber": "166078",
  "DwellTime": 2.1e-06,
  "EchoTime": 0.034,
  "EchoTrainLength": 100,
  "EffectiveEchoSpacing": 0.000539986,
  "FlipAngle": 90,
  "ImageOrientationPatientDICOM": [0.997091, 0.00717365, -0.0758863, -0.0226271, 0.978542, -0.2048],
  "ImageType": [
    "ORIGINAL",
    "PRIMARY",
    "M",
    "ND",
    "MOSAIC"
],
  "InPlanePhaseEncodingDirectionDICOM": "COL",
  "InstitutionAddress": "Street_StreetNo_Bei_Jing_District_CN_ZIP",
  "InstitutionName": "BeiJing_Normal_University",
  "InstitutionalDepartmentName": "Department",
  "MRAcquisitionType": "2D",
  "MagneticFieldStrength": 3,
  "Manufacturer": "Siemens",
  "ManufacturersModelName": "Prisma",
  "Modality": "MR",
  "MultibandAccelerationFactor": 3,
  "PartialFourier": 1,
  "PatientPosition": "HFS",
  "PercentPhaseFOV": 100,
  "PhaseEncodingDirection": "j-",
  "PhaseEncodingSteps": 100,
  "PhaseResolution": 1,
  "PixelBandwidth": 2380,
  "ProcedureStepDescription": "BNU_P2018_64CH_Liu.Jia",
  "ProtocolName": "bold_100x100_s3_2x2x2_232",
  "PulseSequenceDetails": "%SiemensSeq%_ep2d_bold",
  "ReceiveCoilActiveElements": "HC1-7;NC1",
  "ReceiveCoilName": "HeadNeck_64",
  "ReconMatrixPE": 100,
  "RepetitionTime": 2,
  "SAR": 0.0644599,
  "ScanOptions": "FS",
  "ScanningSequence": "EP",
  "SequenceName": "_epfid2d1_100",
  "SequenceVariant": "SK",
  "SeriesDescription": "bold_100x100_s3_2x2x2_232",
  "SeriesNumber": 10,
  "ShimSetting": [-5477, -11479, -1230, 410, 12, -291, -177, 127],
  "SliceThickness": 2,
  "SliceTiming": [1.485, 0, 0.99, 0.0825, 1.0725, 0.165, 1.155, 0.2475, 1.2375, 0.33, 1.32, 0.4125, 1.4025, 0.5775, 1.5675, 0.66, 1.65, 0.7425, 1.7325, 0.825, 1.815, 0.9075, 1.8975, 0.495, 1.485, 0, 0.99, 0.0825, 1.0725, 0.165, 1.155, 0.2475, 1.2375, 0.33, 1.32, 0.4125, 1.4025, 0.5775, 1.5675, 0.66, 1.65, 0.7425, 1.7325, 0.825, 1.815, 0.9075, 1.8975, 0.495, 1.485, 0, 0.99, 0.0825, 1.0725, 0.165, 1.155, 0.2475, 1.2375, 0.33, 1.32, 0.4125, 1.4025, 0.5775, 1.5675, 0.66, 1.65, 0.7425, 1.7325, 0.825, 1.815, 0.9075, 1.8975, 0.495],
  "SoftwareVersions": "syngo_MR_E11",
  "SpacingBetweenSlices": 2,
  "StationName": "AWP166078",
  "TaskName": "motor",
  "TotalReadoutTime": 0.0534586,
  "TxRefAmp": 210.913,
  "dcmmeta_affine": [
    [-1.9941813945770264, -0.0452541708946228, -0.14557750523090363, 106.81019592285156],
    [-0.014347304590046406, 1.9570844173431396, -0.4118431806564331, -81.06324005126953],
    [-0.15177254378795624, 0.4096006751060486, 1.9517152309417725, -66.17008972167969],
    [0.0, 0.0, 0.0, 1.0]
],
  "dcmmeta_reorient_transform": [
    [0.0, -1.0, 0.0, 99.0],
    [1.0, 0.0, 0.0, 0.0],
    [0.0, 0.0, 1.0, 0.0],
    [0.0, 0.0, 0.0, 1.0]
],
  "dcmmeta_shape": [100, 100, 72, 232],
  "dcmmeta_slice_dim": 2,
  "dcmmeta_version": 0.6,
  "global": {
    "const": {
      "AcquisitionMatrix": [100, 0, 0, 100],
      "AngioFlag": "N",
      "BitsAllocated": 16,
      "BitsStored": 12,
      "BodyPartExamined": "BRAIN",
      "Columns": 900,
      "EchoNumbers": 1,
      "EchoTime": 34.0,
      "EchoTrainLength": 100,
      "FlipAngle": 90.0,
      "HighBit": 11,
      "ImageOrientationPatient": [0.99709067427542, 0.00717365219627, -0.0758862700833, -0.0226270845659, 0.97854220014148, -0.2048003359038],
      "ImagePositionPatient": [-881.90090631378, -901.26079370768, 198.92966337552],
      "ImageType": [
        "ORIGINAL",
        "PRIMARY",
        "M",
        "ND",
        "MOSAIC"
],
      "ImagedNucleus": "1H",
      "ImagingFrequency": 123.257831,
      "InPlanePhaseEncodingDirection": "COL",
      "LargestImagePixelValue": 4095,
      "MRAcquisitionType": "2D",
      "MagneticFieldStrength": 3.0,
      "Manufacturer": "SIEMENS",
      "ManufacturerModelName": "Prisma",
      "Modality": "MR",
      "NumberOfAverages": 1.0,
      "NumberOfPhaseEncodingSteps": 100,
      "PercentPhaseFieldOfView": 100.0,
      "PercentSampling": 100.0,
      "PerformedProcedureStepStartTime": "090311.637000",
      "PhotometricInterpretation": "MONOCHROME2",
      "PixelBandwidth": 2380.0,
      "PixelRepresentation": 0,
      "PixelSpacing": [2.0, 2.0],
      "ProtocolName": "bold_100x100_s3_2x2x2_232",
      "RepetitionTime": 2000.0,
      "Rows": 900,
      "SAR": 0.06445990978359,
      "SamplesPerPixel": 1,
      "ScanOptions": "FS",
      "ScanningSequence": "EP",
      "SequenceName": "*epfid2d1_100",
      "SequenceVariant": "SK",
      "SeriesDescription": "bold_100x100_s3_2x2x2_232",
      "SeriesNumber": 10,
      "SeriesTime": "095942.002000",
      "SliceLocation": -55.654493411099,
      "SliceThickness": 2.0,
      "SmallestImagePixelValue": 0,
      "SoftwareVersions": "syngo MR E11",
      "SpacingBetweenSlices": 1.9999999839192,
      "SpecificCharacterSet": "ISO_IR 100",
      "StudyID": "1",
      "StudyTime": "090311.493000",
      "TransmitCoilName": "Body",
      "VariableFlipAngleFlag": "N",
      "WindowCenterWidthExplanation": "Algo1",
      "dBdt": 0.0},
    "slices": {}
  },
  "time": {
    "samples": {
      "AcquisitionNumber": [1, 2, 3, 4, 5, 6, 7, 8, 9, 10, 11, 12, 13, 14, 15, 16, 17, 18, 19, 20, 21, 22, 23, 24, 25, 26, 27, 28, 29, 30, 31, 32, 33, 34, 35, 36, 37, 38, 39, 40, 41, 42, 43, 44, 45, 46, 47, 48, 49, 50, 51, 52, 53, 54, 55, 56, 57, 58, 59, 60, 61, 62, 63, 64, 65, 66, 67, 68, 69, 70, 71, 72, 73, 74, 75, 76, 77, 78, 79, 80, 81, 82, 83, 84, 85, 86, 87, 88, 89, 90, 91, 92, 93, 94, 95, 96, 97, 98, 99, 100, 101, 102, 103, 104, 105, 106, 107, 108, 109, 110, 111, 112, 113, 114, 115, 116, 117, 118, 119, 120, 121, 122, 123, 124, 125, 126, 127, 128, 129, 130, 131, 132, 133, 134, 135, 136, 137, 138, 139, 140, 141, 142, 143, 144, 145, 146, 147, 148, 149, 150, 151, 152, 153, 154, 155, 156, 157, 158, 159, 160, 161, 162, 163, 164, 165, 166, 167, 168, 169, 170, 171, 172, 173, 174, 175, 176, 177, 178, 179, 180, 181, 182, 183, 184, 185, 186, 187, 188, 189, 190, 191, 192, 193, 194, 195, 196, 197, 198, 199, 200, 201, 202, 203, 204, 205, 206, 207, 208, 209, 210, 211, 212, 213, 214, 215, 216, 217, 218, 219, 220, 221, 222, 223, 224, 225, 226, 227, 228, 229, 230, 231, 232],
      "AcquisitionTime": ["095939.212500", "095941.212500", "095943.212500", "095945.212500", "095947.212500", "095949.212500", "095951.212500", "095953.212500", "095955.212500", "095957.212500", "095959.212500", "100001.212500", "100003.212500", "100005.212500", "100007.212500", "100009.212500", "100011.212500", "100013.212500", "100015.212500", "100017.212500", "100019.212500", "100021.212500", "100023.212500", "100025.212500", "100027.212500", "100029.212500", "100031.212500", "100033.212500", "100035.212500", "100037.212500", "100039.212500", "100041.212500", "100043.212500", "100045.212500", "100047.212500", "100049.212500", "100051.212500", "100053.212500", "100055.212500", "100057.212500", "100059.212500", "100101.212500", "100103.212500", "100105.212500", "100107.212500", "100109.212500", "100111.212500", "100113.212500", "100115.212500", "100117.212500", "100119.212500", "100121.212500", "100123.212500", "100125.212500", "100127.212500", "100129.212500", "100131.212500", "100133.212500", "100135.212500", "100137.212500", "100139.212500", "100141.212500", "100143.212500", "100145.212500", "100147.212500", "100149.212500", "100151.212500", "100153.212500", "100155.212500", "100157.212500", "100159.212500", "100201.212500", "100203.212500", "100205.212500", "100207.212500", "100209.212500", "100211.212500", "100213.212500", "100215.212500", "100217.212500", "100219.212500", "100221.212500", "100223.212500", "100225.212500", "100227.212500", "100229.212500", "100231.212500", "100233.212500", "100235.212500", "100237.212500", "100239.212500", "100241.212500", "100243.212500", "100245.212500", "100247.212500", "100249.212500", "100251.212500", "100253.212500", "100255.212500", "100257.212500", "100259.212500", "100301.212500", "100303.212500", "100305.212500", "100307.212500", "100309.212500", "100311.212500", "100313.212500", "100315.212500", "100317.212500", "100319.212500", "100321.212500", "100323.212500", "100325.212500", "100327.212500", "100329.212500", "100331.212500", "100333.212500", "100335.212500", "100337.212500", "100339.212500", "100341.212500", "100343.212500", "100345.212500", "100347.212500", "100349.212500", "100351.212500", "100353.212500", "100355.212500", "100357.212500", "100359.212500", "100401.212500", "100403.212500", "100405.212500", "100407.212500", "100409.212500", "100411.212500", "100413.212500", "100415.212500", "100417.212500", "100419.212500", "100421.212500", "100423.212500", "100425.212500", "100427.212500", "100429.212500", "100431.212500", "100433.212500", "100435.212500", "100437.212500", "100439.212500", "100441.212500", "100443.212500", "100445.212500", "100447.212500", "100449.212500", "100451.212500", "100453.212500", "100455.212500", "100457.212500", "100459.212500", "100501.212500", "100503.212500", "100505.212500", "100507.212500", "100509.212500", "100511.212500", "100513.212500", "100515.212500", "100517.212500", "100519.212500", "100521.212500", "100523.212500", "100525.212500", "100527.212500", "100529.212500", "100531.212500", "100533.212500", "100535.212500", "100537.212500", "100539.212500", "100541.212500", "100543.212500", "100545.212500", "100547.212500", "100549.212500", "100551.212500", "100553.212500", "100555.212500", "100557.212500", "100559.212500", "100601.212500", "100603.212500", "100605.212500", "100607.212500", "100609.212500", "100611.212500", "100613.212500", "100615.212500", "100617.212500", "100619.212500", "100621.212500", "100623.212500", "100625.212500", "100627.212500", "100629.212500", "100631.212500", "100633.212500", "100635.212500", "100637.212500", "100639.212500", "100641.212500", "100643.212500", "100645.212500", "100647.212500", "100649.212500", "100651.212500", "100653.212500", "100655.212500", "100657.212500", "100659.212500", "100701.212500", "100703.212500", "100705.212500", "100707.212500", "100709.212500", "100711.212500", "100713.212500", "100715.212500", "100717.212500", "100719.212500", "100721.212500"],
      "ContentTime": ["095942.006000", "095943.501000", "095945.500000", "095947.501000", "095949.501000", "095951.501000", "095953.502000", "095955.502000", "095957.500000", "095959.500000", "100001.500000", "100003.500000", "100005.501000", "100007.501000", "100009.501000", "100011.501000", "100013.501000", "100015.500000", "100017.501000", "100019.501000", "100021.501000", "100023.501000", "100025.502000", "100027.501000", "100029.502000", "100031.502000", "100033.500000", "100035.501000", "100037.500000", "100039.501000", "100041.502000", "100043.501000", "100045.502000", "100047.501000", "100049.501000", "100051.500000", "100053.500000", "100055.501000", "100057.501000", "100059.501000", "100101.501000", "100103.502000", "100105.502000", "100107.500000", "100109.500000", "100111.500000", "100113.501000", "100115.501000", "100117.501000", "100119.501000", "100121.502000", "100123.501000", "100125.501000", "100127.501000", "100129.501000", "100131.501000", "100133.502000", "100135.501000", "100137.501000", "100139.501000", "100141.502000", "100143.500000", "100145.500000", "100147.500000", "100149.501000", "100151.501000", "100153.501000", "100155.501000", "100157.502000", "100159.502000", "100201.500000", "100203.501000", "100205.500000", "100207.501000", "100209.501000", "100211.501000", "100213.501000", "100215.502000", "100217.500000", "100219.500000", "100221.501000", "100223.500000", "100225.501000", "100227.501000", "100229.502000", "100231.502000", "100233.501000", "100235.501000", "100237.501000", "100239.501000", "100241.501000", "100243.501000", "100245.501000", "100247.501000", "100249.501000", "100251.502000", "100253.500000", "100255.500000", "100257.500000", "100259.501000", "100301.501000", "100303.501000", "100305.502000", "100307.501000", "100309.502000", "100311.500000", "100313.500000", "100315.501000", "100317.502000", "100319.501000", "100321.502000", "100323.502000", "100325.501000", "100327.500000", "100329.500000", "100331.500000", "100333.500000", "100335.501000", "100337.501000", "100339.501000", "100341.502000", "100343.501000", "100345.501000", "100347.501000", "100349.501000", "100351.501000", "100353.502000", "100355.501000", "100357.502000", "100359.501000", "100401.501000", "100403.500000", "100405.500000", "100407.500000", "100409.502000", "100411.501000", "100413.502000", "100415.501000", "100417.501000", "100419.501000", "100421.501000", "100423.501000", "100425.500000", "100427.502000", "100429.502000", "100431.502000", "100433.502000", "100435.501000", "100437.500000", "100439.501000", "100441.500000", "100443.500000", "100445.501000", "100447.501000", "100449.502000", "100451.501000", "100453.502000", "100455.500000", "100457.500000", "100459.500000", "100501.501000", "100503.501000", "100505.502000", "100507.501000", "100509.502000", "100511.502000", "100513.500000", "100515.501000", "100517.501000", "100519.501000", "100521.502000", "100523.502000", "100525.501000", "100527.501000", "100529.501000", "100531.500000", "100533.500000", "100535.500000", "100537.501000", "100539.501000", "100541.502000", "100543.501000", "100545.501000", "100547.501000", "100549.500000", "100551.500000", "100553.501000", "100555.502000", "100557.501000", "100559.502000", "100601.501000", "100603.501000", "100605.501000", "100607.501000", "100609.500000", "100611.501000", "100613.502000", "100615.501000", "100617.502000", "100619.501000", "100621.501000", "100623.501000", "100625.501000", "100627.500000", "100629.501000", "100631.502000", "100633.501000", "100635.501000", "100637.502000", "100639.502000", "100641.500000", "100643.501000", "100645.500000", "100647.502000", "100649.502000", "100651.501000", "100653.502000", "100655.502000", "100657.500000", "100659.500000", "100701.500000", "100703.501000", "100705.501000", "100707.501000", "100709.502000", "100711.501000", "100713.502000", "100715.500000", "100717.500000", "100719.500000", "100721.501000", "100723.192000"],
      "InstanceCreationTime": ["095942.006000", "095943.501000", "095945.500000", "095947.501000", "095949.501000", "095951.501000", "095953.502000", "095955.502000", "095957.500000", "095959.500000", "100001.500000", "100003.500000", "100005.501000", "100007.501000", "100009.501000", "100011.501000", "100013.501000", "100015.500000", "100017.501000", "100019.501000", "100021.501000", "100023.501000", "100025.502000", "100027.501000", "100029.502000", "100031.502000", "100033.500000", "100035.501000", "100037.500000", "100039.501000", "100041.502000", "100043.501000", "100045.502000", "100047.501000", "100049.501000", "100051.500000", "100053.500000", "100055.501000", "100057.501000", "100059.501000", "100101.501000", "100103.502000", "100105.502000", "100107.500000", "100109.500000", "100111.500000", "100113.501000", "100115.501000", "100117.501000", "100119.501000", "100121.502000", "100123.501000", "100125.501000", "100127.501000", "100129.501000", "100131.501000", "100133.502000", "100135.501000", "100137.501000", "100139.501000", "100141.502000", "100143.500000", "100145.500000", "100147.500000", "100149.501000", "100151.501000", "100153.501000", "100155.501000", "100157.502000", "100159.502000", "100201.500000", "100203.501000", "100205.500000", "100207.501000", "100209.501000", "100211.501000", "100213.501000", "100215.502000", "100217.500000", "100219.500000", "100221.501000", "100223.500000", "100225.501000", "100227.501000", "100229.502000", "100231.502000", "100233.501000", "100235.501000", "100237.501000", "100239.501000", "100241.501000", "100243.501000", "100245.501000", "100247.501000", "100249.501000", "100251.502000", "100253.500000", "100255.500000", "100257.500000", "100259.501000", "100301.501000", "100303.501000", "100305.502000", "100307.501000", "100309.502000", "100311.500000", "100313.500000", "100315.501000", "100317.502000", "100319.501000", "100321.502000", "100323.502000", "100325.501000", "100327.500000", "100329.500000", "100331.500000", "100333.500000", "100335.501000", "100337.501000", "100339.501000", "100341.502000", "100343.501000", "100345.501000", "100347.501000", "100349.501000", "100351.501000", "100353.502000", "100355.501000", "100357.502000", "100359.501000", "100401.501000", "100403.500000", "100405.500000", "100407.500000", "100409.502000", "100411.501000", "100413.502000", "100415.501000", "100417.501000", "100419.501000", "100421.501000", "100423.501000", "100425.500000", "100427.502000", "100429.502000", "100431.502000", "100433.502000", "100435.501000", "100437.500000", "100439.501000", "100441.500000", "100443.500000", "100445.501000", "100447.501000", "100449.502000", "100451.501000", "100453.502000", "100455.500000", "100457.500000", "100459.500000", "100501.501000", "100503.501000", "100505.502000", "100507.501000", "100509.502000", "100511.502000", "100513.500000", "100515.501000", "100517.501000", "100519.501000", "100521.502000", "100523.502000", "100525.501000", "100527.501000", "100529.501000", "100531.500000", "100533.500000", "100535.500000", "100537.501000", "100539.501000", "100541.502000", "100543.501000", "100545.501000", "100547.501000", "100549.500000", "100551.500000", "100553.501000", "100555.502000", "100557.501000", "100559.502000", "100601.501000", "100603.501000", "100605.501000", "100607.501000", "100609.500000", "100611.501000", "100613.502000", "100615.501000", "100617.502000", "100619.501000", "100621.501000", "100623.501000", "100625.501000", "100627.500000", "100629.501000", "100631.502000", "100633.501000", "100635.501000", "100637.502000", "100639.502000", "100641.500000", "100643.501000", "100645.500000", "100647.502000", "100649.502000", "100651.501000", "100653.502000", "100655.502000", "100657.500000", "100659.500000", "100701.500000", "100703.501000", "100705.501000", "100707.501000", "100709.502000", "100711.501000", "100713.502000", "100715.500000", "100717.500000", "100719.500000", "100721.501000", "100723.192000"],
      "InstanceNumber": [1, 2, 3, 4, 5, 6, 7, 8, 9, 10, 11, 12, 13, 14, 15, 16, 17, 18, 19, 20, 21, 22, 23, 24, 25, 26, 27, 28, 29, 30, 31, 32, 33, 34, 35, 36, 37, 38, 39, 40, 41, 42, 43, 44, 45, 46, 47, 48, 49, 50, 51, 52, 53, 54, 55, 56, 57, 58, 59, 60, 61, 62, 63, 64, 65, 66, 67, 68, 69, 70, 71, 72, 73, 74, 75, 76, 77, 78, 79, 80, 81, 82, 83, 84, 85, 86, 87, 88, 89, 90, 91, 92, 93, 94, 95, 96, 97, 98, 99, 100, 101, 102, 103, 104, 105, 106, 107, 108, 109, 110, 111, 112, 113, 114, 115, 116, 117, 118, 119, 120, 121, 122, 123, 124, 125, 126, 127, 128, 129, 130, 131, 132, 133, 134, 135, 136, 137, 138, 139, 140, 141, 142, 143, 144, 145, 146, 147, 148, 149, 150, 151, 152, 153, 154, 155, 156, 157, 158, 159, 160, 161, 162, 163, 164, 165, 166, 167, 168, 169, 170, 171, 172, 173, 174, 175, 176, 177, 178, 179, 180, 181, 182, 183, 184, 185, 186, 187, 188, 189, 190, 191, 192, 193, 194, 195, 196, 197, 198, 199, 200, 201, 202, 203, 204, 205, 206, 207, 208, 209, 210, 211, 212, 213, 214, 215, 216, 217, 218, 219, 220, 221, 222, 223, 224, 225, 226, 227, 228, 229, 230, 231, 232],
      "WindowCenter": [850.0, 850.0, 851.0, 850.0, 850.0, 848.0, 844.0, 845.0, 844.0, 845.0, 846.0, 848.0, 850.0, 850.0, 849.0, 849.0, 849.0, 848.0, 846.0, 844.0, 843.0, 848.0, 848.0, 852.0, 849.0, 849.0, 849.0, 851.0, 852.0, 852.0, 852.0, 851.0, 849.0, 848.0, 847.0, 848.0, 848.0, 847.0, 848.0, 850.0, 848.0, 847.0, 847.0, 848.0, 848.0, 847.0, 847.0, 846.0, 846.0, 847.0, 847.0, 846.0, 844.0, 844.0, 845.0, 845.0, 846.0, 842.0, 836.0, 832.0, 834.0, 841.0, 838.0, 840.0, 836.0, 833.0, 833.0, 834.0, 835.0, 838.0, 841.0, 844.0, 846.0, 846.0, 847.0, 847.0, 851.0, 850.0, 852.0, 852.0, 852.0, 851.0, 852.0, 851.0, 852.0, 852.0, 851.0, 851.0, 851.0, 852.0, 853.0, 852.0, 851.0, 849.0, 848.0, 848.0, 847.0, 848.0, 849.0, 848.0, 847.0, 844.0, 843.0, 844.0, 846.0, 845.0, 844.0, 843.0, 841.0, 840.0, 834.0, 843.0, 840.0, 847.0, 844.0, 842.0, 836.0, 833.0, 832.0, 833.0, 835.0, 838.0, 840.0, 842.0, 844.0, 843.0, 845.0, 847.0, 847.0, 849.0, 850.0, 849.0, 846.0, 846.0, 848.0, 849.0, 848.0, 848.0, 850.0, 851.0, 851.0, 851.0, 852.0, 852.0, 852.0, 850.0, 849.0, 847.0, 845.0, 844.0, 847.0, 849.0, 849.0, 849.0, 843.0, 844.0, 845.0, 845.0, 848.0, 847.0, 846.0, 845.0, 844.0, 845.0, 845.0, 847.0, 849.0, 850.0, 848.0, 846.0, 845.0, 848.0, 848.0, 848.0, 846.0, 845.0, 848.0, 853.0, 853.0, 849.0, 846.0, 845.0, 841.0, 844.0, 842.0, 839.0, 839.0, 841.0, 843.0, 844.0, 844.0, 847.0, 848.0, 847.0, 848.0, 850.0, 849.0, 847.0, 846.0, 849.0, 851.0, 850.0, 849.0, 848.0, 849.0, 850.0, 849.0, 847.0, 846.0, 846.0, 850.0, 846.0, 843.0, 839.0, 841.0, 841.0, 842.0, 842.0, 841.0, 842.0, 844.0, 846.0, 847.0, 847.0, 848.0, 848.0, 848.0, 849.0, 849.0, 847.0, 844.0, 842.0],
      "WindowWidth": [1886.0, 1883.0, 1888.0, 1885.0, 1883.0, 1877.0, 1866.0, 1868.0, 1866.0, 1867.0, 1870.0, 1877.0, 1883.0, 1884.0, 1882.0, 1881.0, 1882.0, 1878.0, 1872.0, 1866.0, 1862.0, 1879.0, 1878.0, 1890.0, 1881.0, 1878.0, 1880.0, 1885.0, 1891.0, 1890.0, 1889.0, 1886.0, 1881.0, 1875.0, 1874.0, 1876.0, 1877.0, 1875.0, 1879.0, 1883.0, 1878.0, 1874.0, 1874.0, 1876.0, 1877.0, 1874.0, 1873.0, 1871.0, 1872.0, 1874.0, 1873.0, 1871.0, 1867.0, 1865.0, 1869.0, 1870.0, 1871.0, 1859.0, 1842.0, 1830.0, 1837.0, 1858.0, 1848.0, 1854.0, 1843.0, 1833.0, 1832.0, 1835.0, 1839.0, 1847.0, 1857.0, 1864.0, 1869.0, 1870.0, 1874.0, 1873.0, 1884.0, 1883.0, 1888.0, 1889.0, 1888.0, 1886.0, 1886.0, 1885.0, 1888.0, 1890.0, 1888.0, 1886.0, 1887.0, 1891.0, 1894.0, 1890.0, 1885.0, 1881.0, 1877.0, 1876.0, 1875.0, 1878.0, 1880.0, 1878.0, 1873.0, 1866.0, 1863.0, 1865.0, 1871.0, 1869.0, 1866.0, 1862.0, 1856.0, 1854.0, 1838.0, 1866.0, 1857.0, 1876.0, 1866.0, 1857.0, 1841.0, 1832.0, 1831.0, 1832.0, 1840.0, 1849.0, 1854.0, 1860.0, 1864.0, 1863.0, 1868.0, 1873.0, 1875.0, 1880.0, 1882.0, 1878.0, 1871.0, 1872.0, 1878.0, 1879.0, 1876.0, 1877.0, 1885.0, 1888.0, 1887.0, 1887.0, 1889.0, 1891.0, 1888.0, 1885.0, 1880.0, 1874.0, 1867.0, 1867.0, 1875.0, 1880.0, 1882.0, 1880.0, 1864.0, 1865.0, 1869.0, 1868.0, 1877.0, 1875.0, 1870.0, 1868.0, 1866.0, 1867.0, 1870.0, 1874.0, 1880.0, 1882.0, 1877.0, 1871.0, 1870.0, 1876.0, 1878.0, 1877.0, 1870.0, 1870.0, 1879.0, 1891.0, 1891.0, 1882.0, 1872.0, 1867.0, 1858.0, 1864.0, 1858.0, 1851.0, 1850.0, 1857.0, 1862.0, 1863.0, 1866.0, 1874.0, 1878.0, 1875.0, 1877.0, 1882.0, 1880.0, 1875.0, 1872.0, 1879.0, 1885.0, 1883.0, 1881.0, 1878.0, 1880.0, 1885.0, 1881.0, 1875.0, 1873.0, 1872.0, 1882.0, 1872.0, 1862.0, 1850.0, 1855.0, 1857.0, 1858.0, 1858.0, 1855.0, 1857.0, 1866.0, 1872.0, 1873.0, 1875.0, 1877.0, 1877.0, 1877.0, 1880.0, 1879.0, 1874.0, 1864.0, 1859.0]
    },
    "slices": {}
  }
}