{
  "AcquisitionMatrixPE": 100,
  "AcquisitionNumber": 1,
  "AcquisitionTime": "09:29:49.302500",
  "BandwidthPerPixelPhaseEncode": 18.519,
  "BaseResolution": 100,
  "BodyPartExamined": "BRAIN",
  "ConsistencyInfo": "N4_VE11C_LATEST_20160120",
  "ConversionSoftware": "dcm2niix",
  "ConversionSoftwareVersion": "v1.0.20180622 GCC4.9.2",
  "DerivedVendorReportedEchoSpacing": 0.000539986,
  "DeviceSerialNumber": "166078",
  "DwellTime": 2.1e-06,
  "EchoTime": 0.034,
  "EchoTrainLength": 100,
  "EffectiveEchoSpacing": 0.000539986,
  "FlipAngle": 90,
  "ImageOrientationPatientDICOM": [0.997091, 0.00717365, -0.0758863, -0.0226271, 0.978542, -0.2048],
  "ImageType": [
    "ORIGINAL",
    "PRIMARY",
    "M",
    "ND",
    "MOSAIC"
],
  "InPlanePhaseEncodingDirectionDICOM": "COL",
  "InstitutionAddress": "Street_StreetNo_Bei_Jing_District_CN_ZIP",
  "InstitutionName": "BeiJing_Normal_University",
  "InstitutionalDepartmentName": "Department",
  "MRAcquisitionType": "2D",
  "MagneticFieldStrength": 3,
  "Manufacturer": "Siemens",
  "ManufacturersModelName": "Prisma",
  "Modality": "MR",
  "MultibandAccelerationFactor": 3,
  "PartialFourier": 1,
  "PatientPosition": "HFS",
  "PercentPhaseFOV": 100,
  "PhaseEncodingDirection": "j-",
  "PhaseEncodingSteps": 100,
  "PhaseResolution": 1,
  "PixelBandwidth": 2380,
  "ProcedureStepDescription": "BNU_P2018_64CH_Liu.Jia",
  "ProtocolName": "bold_100x100_s3_2x2x2_232",
  "PulseSequenceDetails": "%SiemensSeq%_ep2d_bold",
  "ReceiveCoilActiveElements": "HC1-7;NC1",
  "ReceiveCoilName": "HeadNeck_64",
  "ReconMatrixPE": 100,
  "RepetitionTime": 2,
  "SAR": 0.0644599,
  "ScanOptions": "FS",
  "ScanningSequence": "EP",
  "SequenceName": "_epfid2d1_100",
  "SequenceVariant": "SK",
  "SeriesDescription": "bold_100x100_s3_2x2x2_232",
  "SeriesNumber": 5,
  "ShimSetting": [-5477, -11479, -1230, 410, 12, -291, -177, 127],
  "SliceThickness": 2,
  "SliceTiming": [1.485, 0, 0.99, 0.0825, 1.0725, 0.165, 1.155, 0.2475, 1.2375, 0.33, 1.32, 0.4125, 1.4025, 0.5775, 1.5675, 0.66, 1.65, 0.7425, 1.7325, 0.825, 1.815, 0.9075, 1.8975, 0.495, 1.485, 0, 0.99, 0.0825, 1.0725, 0.165, 1.155, 0.2475, 1.2375, 0.33, 1.32, 0.4125, 1.4025, 0.5775, 1.5675, 0.66, 1.65, 0.7425, 1.7325, 0.825, 1.815, 0.9075, 1.8975, 0.495, 1.485, 0, 0.99, 0.0825, 1.0725, 0.165, 1.155, 0.2475, 1.2375, 0.33, 1.32, 0.4125, 1.4025, 0.5775, 1.5675, 0.66, 1.65, 0.7425, 1.7325, 0.825, 1.815, 0.9075, 1.8975, 0.495],
  "SoftwareVersions": "syngo_MR_E11",
  "SpacingBetweenSlices": 2,
  "StationName": "AWP166078",
  "TaskName": "motor",
  "TotalReadoutTime": 0.0534586,
  "TxRefAmp": 210.913,
  "dcmmeta_affine": [
    [-1.9941813945770264, -0.0452541708946228, -0.14557750523090363, 106.81019592285156],
    [-0.014347304590046406, 1.9570844173431396, -0.4118431806564331, -81.06324005126953],
    [-0.15177254378795624, 0.4096006751060486, 1.9517152309417725, -66.17008972167969],
    [0.0, 0.0, 0.0, 1.0]
],
  "dcmmeta_reorient_transform": [
    [0.0, -1.0, 0.0, 99.0],
    [1.0, 0.0, 0.0, 0.0],
    [0.0, 0.0, 1.0, 0.0],
    [0.0, 0.0, 0.0, 1.0]
],
  "dcmmeta_shape": [100, 100, 72, 232],
  "dcmmeta_slice_dim": 2,
  "dcmmeta_version": 0.6,
  "global": {
    "const": {
      "AcquisitionMatrix": [100, 0, 0, 100],
      "AngioFlag": "N",
      "BitsAllocated": 16,
      "BitsStored": 12,
      "BodyPartExamined": "BRAIN",
      "Columns": 900,
      "EchoNumbers": 1,
      "EchoTime": 34.0,
      "EchoTrainLength": 100,
      "FlipAngle": 90.0,
      "HighBit": 11,
      "ImageOrientationPatient": [0.99709067427542, 0.00717365219627, -0.0758862700833, -0.0226270845659, 0.97854220014148, -0.2048003359038],
      "ImagePositionPatient": [-881.90090631378, -901.26079370768, 198.92966337552],
      "ImageType": [
        "ORIGINAL",
        "PRIMARY",
        "M",
        "ND",
        "MOSAIC"
],
      "ImagedNucleus": "1H",
      "ImagingFrequency": 123.257818,
      "InPlanePhaseEncodingDirection": "COL",
      "LargestImagePixelValue": 4095,
      "MRAcquisitionType": "2D",
      "MagneticFieldStrength": 3.0,
      "Manufacturer": "SIEMENS",
      "ManufacturerModelName": "Prisma",
      "Modality": "MR",
      "NumberOfAverages": 1.0,
      "NumberOfPhaseEncodingSteps": 100,
      "PercentPhaseFieldOfView": 100.0,
      "PercentSampling": 100.0,
      "PerformedProcedureStepStartTime": "090311.637000",
      "PhotometricInterpretation": "MONOCHROME2",
      "PixelBandwidth": 2380.0,
      "PixelRepresentation": 0,
      "PixelSpacing": [2.0, 2.0],
      "ProtocolName": "bold_100x100_s3_2x2x2_232",
      "RepetitionTime": 2000.0,
      "Rows": 900,
      "SAR": 0.06445990978359,
      "SamplesPerPixel": 1,
      "ScanOptions": "FS",
      "ScanningSequence": "EP",
      "SequenceName": "*epfid2d1_100",
      "SequenceVariant": "SK",
      "SeriesDescription": "bold_100x100_s3_2x2x2_232",
      "SeriesNumber": 5,
      "SeriesTime": "092951.914000",
      "SliceLocation": -55.654493411099,
      "SliceThickness": 2.0,
      "SmallestImagePixelValue": 0,
      "SoftwareVersions": "syngo MR E11",
      "SpacingBetweenSlices": 1.9999999839192,
      "SpecificCharacterSet": "ISO_IR 100",
      "StudyID": "1",
      "StudyTime": "090311.493000",
      "TransmitCoilName": "Body",
      "VariableFlipAngleFlag": "N",
      "WindowCenterWidthExplanation": "Algo1",
      "dBdt": 0.0},
    "slices": {}
  },
  "time": {
    "samples": {
      "AcquisitionNumber": [1, 2, 3, 4, 5, 6, 7, 8, 9, 10, 11, 12, 13, 14, 15, 16, 17, 18, 19, 20, 21, 22, 23, 24, 25, 26, 27, 28, 29, 30, 31, 32, 33, 34, 35, 36, 37, 38, 39, 40, 41, 42, 43, 44, 45, 46, 47, 48, 49, 50, 51, 52, 53, 54, 55, 56, 57, 58, 59, 60, 61, 62, 63, 64, 65, 66, 67, 68, 69, 70, 71, 72, 73, 74, 75, 76, 77, 78, 79, 80, 81, 82, 83, 84, 85, 86, 87, 88, 89, 90, 91, 92, 93, 94, 95, 96, 97, 98, 99, 100, 101, 102, 103, 104, 105, 106, 107, 108, 109, 110, 111, 112, 113, 114, 115, 116, 117, 118, 119, 120, 121, 122, 123, 124, 125, 126, 127, 128, 129, 130, 131, 132, 133, 134, 135, 136, 137, 138, 139, 140, 141, 142, 143, 144, 145, 146, 147, 148, 149, 150, 151, 152, 153, 154, 155, 156, 157, 158, 159, 160, 161, 162, 163, 164, 165, 166, 167, 168, 169, 170, 171, 172, 173, 174, 175, 176, 177, 178, 179, 180, 181, 182, 183, 184, 185, 186, 187, 188, 189, 190, 191, 192, 193, 194, 195, 196, 197, 198, 199, 200, 201, 202, 203, 204, 205, 206, 207, 208, 209, 210, 211, 212, 213, 214, 215, 216, 217, 218, 219, 220, 221, 222, 223, 224, 225, 226, 227, 228, 229, 230, 231, 232],
      "AcquisitionTime": ["092949.302500", "092951.302500", "092953.302500", "092955.302500", "092957.302500", "092959.302500", "093001.302500", "093003.302500", "093005.302500", "093007.302500", "093009.302500", "093011.302500", "093013.302500", "093015.302500", "093017.302500", "093019.302500", "093021.302500", "093023.302500", "093025.302500", "093027.302500", "093029.302500", "093031.302500", "093033.302500", "093035.302500", "093037.302500", "093039.302500", "093041.302500", "093043.302500", "093045.302500", "093047.302500", "093049.302500", "093051.302500", "093053.302500", "093055.302500", "093057.302500", "093059.302500", "093101.302500", "093103.302500", "093105.302500", "093107.302500", "093109.302500", "093111.302500", "093113.302500", "093115.302500", "093117.302500", "093119.302500", "093121.302500", "093123.302500", "093125.302500", "093127.302500", "093129.302500", "093131.302500", "093133.302500", "093135.302500", "093137.302500", "093139.302500", "093141.302500", "093143.302500", "093145.302500", "093147.302500", "093149.302500", "093151.302500", "093153.302500", "093155.302500", "093157.302500", "093159.302500", "093201.302500", "093203.302500", "093205.302500", "093207.302500", "093209.302500", "093211.302500", "093213.302500", "093215.302500", "093217.302500", "093219.302500", "093221.302500", "093223.302500", "093225.302500", "093227.302500", "093229.302500", "093231.302500", "093233.302500", "093235.302500", "093237.302500", "093239.302500", "093241.302500", "093243.302500", "093245.302500", "093247.302500", "093249.302500", "093251.302500", "093253.302500", "093255.302500", "093257.302500", "093259.302500", "093301.302500", "093303.302500", "093305.302500", "093307.302500", "093309.302500", "093311.302500", "093313.302500", "093315.302500", "093317.302500", "093319.302500", "093321.302500", "093323.302500", "093325.302500", "093327.302500", "093329.302500", "093331.302500", "093333.302500", "093335.302500", "093337.302500", "093339.302500", "093341.302500", "093343.302500", "093345.302500", "093347.302500", "093349.302500", "093351.302500", "093353.302500", "093355.302500", "093357.302500", "093359.302500", "093401.302500", "093403.302500", "093405.302500", "093407.302500", "093409.302500", "093411.302500", "093413.302500", "093415.302500", "093417.302500", "093419.302500", "093421.302500", "093423.302500", "093425.302500", "093427.302500", "093429.302500", "093431.302500", "093433.302500", "093435.302500", "093437.302500", "093439.302500", "093441.302500", "093443.302500", "093445.302500", "093447.302500", "093449.302500", "093451.302500", "093453.302500", "093455.302500", "093457.302500", "093459.302500", "093501.302500", "093503.302500", "093505.302500", "093507.302500", "093509.302500", "093511.302500", "093513.302500", "093515.302500", "093517.302500", "093519.302500", "093521.302500", "093523.302500", "093525.302500", "093527.302500", "093529.302500", "093531.302500", "093533.302500", "093535.302500", "093537.302500", "093539.302500", "093541.302500", "093543.302500", "093545.302500", "093547.302500", "093549.302500", "093551.302500", "093553.302500", "093555.302500", "093557.302500", "093559.302500", "093601.302500", "093603.302500", "093605.302500", "093607.302500", "093609.302500", "093611.302500", "093613.302500", "093615.302500", "093617.302500", "093619.302500", "093621.302500", "093623.302500", "093625.302500", "093627.302500", "093629.302500", "093631.302500", "093633.302500", "093635.302500", "093637.302500", "093639.302500", "093641.302500", "093643.302500", "093645.302500", "093647.302500", "093649.302500", "093651.302500", "093653.302500", "093655.302500", "093657.302500", "093659.302500", "093701.302500", "093703.302500", "093705.302500", "093707.302500", "093709.302500", "093711.302500", "093713.302500", "093715.302500", "093717.302500", "093719.302500", "093721.302500", "093723.302500", "093725.302500", "093727.302500", "093729.302500", "093731.302500"],
      "ContentTime": ["092951.918000", "092953.414000", "092955.414000", "092957.413000", "092959.413000", "093001.412000", "093003.414000", "093005.413000", "093007.433000", "093009.413000", "093011.413000", "093013.413000", "093015.413000", "093017.414000", "093019.413000", "093021.413000", "093023.413000", "093025.413000", "093027.413000", "093029.413000", "093031.413000", "093033.413000", "093035.413000", "093037.413000", "093039.413000", "093041.413000", "093043.414000", "093045.413000", "093047.414000", "093049.413000", "093051.413000", "093053.412000", "093055.412000", "093057.413000", "093059.413000", "093101.413000", "093103.414000", "093105.414000", "093107.413000", "093109.413000", "093111.413000", "093113.414000", "093115.413000", "093117.413000", "093119.414000", "093121.413000", "093123.413000", "093125.413000", "093127.413000", "093129.412000", "093131.413000", "093133.413000", "093135.413000", "093137.413000", "093139.413000", "093141.413000", "093143.413000", "093145.413000", "093147.412000", "093149.414000", "093151.414000", "093153.413000", "093155.413000", "093157.414000", "093159.414000", "093201.413000", "093203.412000", "093205.413000", "093207.413000", "093209.413000", "093211.413000", "093213.413000", "093215.413000", "093217.413000", "093219.413000", "093221.412000", "093223.413000", "093225.413000", "093227.413000", "093229.413000", "093231.413000", "093233.413000", "093235.414000", "093237.413000", "093239.412000", "093241.413000", "093243.414000", "093245.413000", "093247.413000", "093249.413000", "093251.414000", "093253.413000", "093255.413000", "093257.412000", "093259.413000", "093301.413000", "093303.413000", "093305.414000", "093307.414000", "093309.413000", "093311.413000", "093313.412000", "093315.413000", "093317.413000", "093319.414000", "093321.413000", "093323.414000", "093325.413000", "093327.414000", "093329.413000", "093331.412000", "093333.413000", "093335.413000", "093337.414000", "093339.413000", "093341.413000", "093343.413000", "093345.413000", "093347.414000", "093349.412000", "093351.413000", "093353.413000", "093355.413000", "093357.414000", "093359.413000", "093401.413000", "093403.413000", "093405.413000", "093407.412000", "093409.413000", "093411.413000", "093413.413000", "093415.413000", "093417.414000", "093419.414000", "093421.414000", "093423.412000", "093425.414000", "093427.414000", "093429.413000", "093431.414000", "093433.414000", "093435.414000", "093437.414000", "093439.413000", "093441.412000", "093443.414000", "093445.413000", "093447.413000", "093449.413000", "093451.413000", "093453.413000", "093455.413000", "093457.413000", "093459.413000", "093501.413000", "093503.413000", "093505.413000", "093507.413000", "093509.413000", "093511.413000", "093513.413000", "093515.413000", "093517.412000", "093519.414000", "093521.413000", "093523.413000", "093525.413000", "093527.414000", "093529.413000", "093531.414000", "093533.412000", "093535.413000", "093537.413000", "093539.414000", "093541.414000", "093543.414000", "093545.414000", "093547.413000", "093549.413000", "093551.413000", "093553.413000", "093555.413000", "093557.414000", "093559.413000", "093601.413000", "093603.413000", "093605.413000", "093607.414000", "093609.412000", "093611.413000", "093613.413000", "093615.414000", "093617.413000", "093619.413000", "093621.413000", "093623.413000", "093625.413000", "093627.413000", "093629.414000", "093631.414000", "093633.413000", "093635.414000", "093637.414000", "093639.414000", "093641.413000", "093643.412000", "093645.413000", "093647.413000", "093649.413000", "093651.414000", "093653.413000", "093655.413000", "093657.413000", "093659.413000", "093701.412000", "093703.414000", "093705.413000", "093707.413000", "093709.413000", "093711.414000", "093713.414000", "093715.413000", "093717.413000", "093719.413000", "093721.413000", "093723.413000", "093725.414000", "093727.413000", "093729.413000", "093731.414000", "093733.178000"],
      "InstanceCreationTime": ["092951.918000", "092953.414000", "092955.414000", "092957.413000", "092959.413000", "093001.412000", "093003.414000", "093005.413000", "093007.433000", "093009.413000", "093011.413000", "093013.413000", "093015.413000", "093017.414000", "093019.413000", "093021.413000", "093023.413000", "093025.413000", "093027.413000", "093029.413000", "093031.413000", "093033.413000", "093035.413000", "093037.413000", "093039.413000", "093041.413000", "093043.414000", "093045.413000", "093047.414000", "093049.413000", "093051.413000", "093053.412000", "093055.412000", "093057.413000", "093059.413000", "093101.413000", "093103.414000", "093105.414000", "093107.413000", "093109.413000", "093111.413000", "093113.414000", "093115.413000", "093117.413000", "093119.414000", "093121.413000", "093123.413000", "093125.413000", "093127.413000", "093129.412000", "093131.413000", "093133.413000", "093135.413000", "093137.413000", "093139.413000", "093141.413000", "093143.413000", "093145.413000", "093147.412000", "093149.414000", "093151.414000", "093153.413000", "093155.413000", "093157.414000", "093159.414000", "093201.413000", "093203.412000", "093205.413000", "093207.413000", "093209.413000", "093211.413000", "093213.413000", "093215.413000", "093217.413000", "093219.413000", "093221.412000", "093223.413000", "093225.413000", "093227.413000", "093229.413000", "093231.413000", "093233.413000", "093235.414000", "093237.413000", "093239.412000", "093241.413000", "093243.414000", "093245.413000", "093247.413000", "093249.413000", "093251.414000", "093253.413000", "093255.413000", "093257.412000", "093259.413000", "093301.413000", "093303.413000", "093305.414000", "093307.414000", "093309.413000", "093311.413000", "093313.412000", "093315.413000", "093317.413000", "093319.414000", "093321.413000", "093323.414000", "093325.413000", "093327.414000", "093329.413000", "093331.412000", "093333.413000", "093335.413000", "093337.414000", "093339.413000", "093341.413000", "093343.413000", "093345.413000", "093347.414000", "093349.412000", "093351.413000", "093353.413000", "093355.413000", "093357.414000", "093359.413000", "093401.413000", "093403.413000", "093405.413000", "093407.412000", "093409.413000", "093411.413000", "093413.413000", "093415.413000", "093417.414000", "093419.414000", "093421.414000", "093423.412000", "093425.414000", "093427.414000", "093429.413000", "093431.414000", "093433.414000", "093435.414000", "093437.414000", "093439.413000", "093441.412000", "093443.414000", "093445.413000", "093447.413000", "093449.413000", "093451.413000", "093453.413000", "093455.413000", "093457.413000", "093459.413000", "093501.413000", "093503.413000", "093505.413000", "093507.413000", "093509.413000", "093511.413000", "093513.413000", "093515.413000", "093517.412000", "093519.414000", "093521.413000", "093523.413000", "093525.413000", "093527.414000", "093529.413000", "093531.414000", "093533.412000", "093535.413000", "093537.413000", "093539.414000", "093541.414000", "093543.414000", "093545.414000", "093547.413000", "093549.413000", "093551.413000", "093553.413000", "093555.413000", "093557.414000", "093559.413000", "093601.413000", "093603.413000", "093605.413000", "093607.414000", "093609.412000", "093611.413000", "093613.413000", "093615.414000", "093617.413000", "093619.413000", "093621.413000", "093623.413000", "093625.413000", "093627.413000", "093629.414000", "093631.414000", "093633.413000", "093635.414000", "093637.414000", "093639.414000", "093641.413000", "093643.412000", "093645.413000", "093647.413000", "093649.413000", "093651.414000", "093653.413000", "093655.413000", "093657.413000", "093659.413000", "093701.412000", "093703.414000", "093705.413000", "093707.413000", "093709.413000", "093711.414000", "093713.414000", "093715.413000", "093717.413000", "093719.413000", "093721.413000", "093723.413000", "093725.414000", "093727.413000", "093729.413000", "093731.414000", "093733.178000"],
      "InstanceNumber": [1, 2, 3, 4, 5, 6, 7, 8, 9, 10, 11, 12, 13, 14, 15, 16, 17, 18, 19, 20, 21, 22, 23, 24, 25, 26, 27, 28, 29, 30, 31, 32, 33, 34, 35, 36, 37, 38, 39, 40, 41, 42, 43, 44, 45, 46, 47, 48, 49, 50, 51, 52, 53, 54, 55, 56, 57, 58, 59, 60, 61, 62, 63, 64, 65, 66, 67, 68, 69, 70, 71, 72, 73, 74, 75, 76, 77, 78, 79, 80, 81, 82, 83, 84, 85, 86, 87, 88, 89, 90, 91, 92, 93, 94, 95, 96, 97, 98, 99, 100, 101, 102, 103, 104, 105, 106, 107, 108, 109, 110, 111, 112, 113, 114, 115, 116, 117, 118, 119, 120, 121, 122, 123, 124, 125, 126, 127, 128, 129, 130, 131, 132, 133, 134, 135, 136, 137, 138, 139, 140, 141, 142, 143, 144, 145, 146, 147, 148, 149, 150, 151, 152, 153, 154, 155, 156, 157, 158, 159, 160, 161, 162, 163, 164, 165, 166, 167, 168, 169, 170, 171, 172, 173, 174, 175, 176, 177, 178, 179, 180, 181, 182, 183, 184, 185, 186, 187, 188, 189, 190, 191, 192, 193, 194, 195, 196, 197, 198, 199, 200, 201, 202, 203, 204, 205, 206, 207, 208, 209, 210, 211, 212, 213, 214, 215, 216, 217, 218, 219, 220, 221, 222, 223, 224, 225, 226, 227, 228, 229, 230, 231, 232],
      "WindowCenter": [852.0, 851.0, 849.0, 848.0, 846.0, 846.0, 846.0, 846.0, 847.0, 846.0, 847.0, 846.0, 848.0, 850.0, 847.0, 849.0, 848.0, 849.0, 850.0, 850.0, 850.0, 851.0, 852.0, 852.0, 850.0, 849.0, 849.0, 850.0, 850.0, 850.0, 850.0, 850.0, 849.0, 847.0, 848.0, 848.0, 849.0, 848.0, 848.0, 848.0, 848.0, 847.0, 846.0, 847.0, 849.0, 850.0, 849.0, 848.0, 848.0, 848.0, 849.0, 851.0, 852.0, 850.0, 849.0, 849.0, 849.0, 849.0, 849.0, 850.0, 850.0, 849.0, 849.0, 850.0, 852.0, 850.0, 848.0, 847.0, 848.0, 849.0, 850.0, 850.0, 850.0, 850.0, 850.0, 849.0, 849.0, 848.0, 850.0, 850.0, 850.0, 849.0, 848.0, 849.0, 851.0, 851.0, 851.0, 851.0, 852.0, 853.0, 853.0, 852.0, 850.0, 849.0, 849.0, 850.0, 851.0, 851.0, 851.0, 851.0, 851.0, 851.0, 851.0, 851.0, 851.0, 849.0, 848.0, 849.0, 850.0, 850.0, 849.0, 847.0, 847.0, 848.0, 848.0, 847.0, 848.0, 849.0, 849.0, 848.0, 847.0, 846.0, 845.0, 845.0, 846.0, 848.0, 848.0, 847.0, 848.0, 850.0, 852.0, 852.0, 852.0, 855.0, 856.0, 855.0, 852.0, 849.0, 849.0, 850.0, 851.0, 850.0, 851.0, 852.0, 851.0, 848.0, 846.0, 846.0, 848.0, 849.0, 850.0, 851.0, 852.0, 854.0, 853.0, 852.0, 849.0, 852.0, 851.0, 851.0, 851.0, 850.0, 852.0, 854.0, 854.0, 852.0, 851.0, 850.0, 850.0, 850.0, 850.0, 849.0, 848.0, 847.0, 847.0, 846.0, 846.0, 845.0, 845.0, 847.0, 848.0, 848.0, 848.0, 848.0, 848.0, 848.0, 848.0, 848.0, 848.0, 848.0, 850.0, 851.0, 853.0, 854.0, 853.0, 852.0, 852.0, 852.0, 851.0, 849.0, 848.0, 847.0, 849.0, 850.0, 850.0, 849.0, 849.0, 851.0, 851.0, 850.0, 849.0, 849.0, 850.0, 852.0, 851.0, 851.0, 850.0, 849.0, 846.0, 844.0, 847.0, 844.0, 844.0, 847.0, 849.0, 851.0, 851.0, 850.0, 848.0, 848.0, 848.0, 849.0],
      "WindowWidth": [1892.0, 1888.0, 1884.0, 1878.0, 1873.0, 1874.0, 1876.0, 1876.0, 1877.0, 1874.0, 1877.0, 1874.0, 1879.0, 1886.0, 1877.0, 1882.0, 1882.0, 1883.0, 1885.0, 1886.0, 1886.0, 1888.0, 1892.0, 1891.0, 1888.0, 1883.0, 1885.0, 1887.0, 1888.0, 1887.0, 1887.0, 1886.0, 1883.0, 1875.0, 1878.0, 1880.0, 1884.0, 1880.0, 1879.0, 1879.0, 1880.0, 1876.0, 1873.0, 1877.0, 1885.0, 1887.0, 1883.0, 1880.0, 1880.0, 1880.0, 1884.0, 1889.0, 1892.0, 1887.0, 1884.0, 1883.0, 1884.0, 1883.0, 1883.0, 1885.0, 1886.0, 1883.0, 1883.0, 1889.0, 1892.0, 1887.0, 1882.0, 1878.0, 1880.0, 1885.0, 1887.0, 1886.0, 1886.0, 1888.0, 1886.0, 1885.0, 1885.0, 1882.0, 1887.0, 1888.0, 1885.0, 1883.0, 1881.0, 1883.0, 1888.0, 1889.0, 1888.0, 1889.0, 1891.0, 1896.0, 1896.0, 1892.0, 1887.0, 1884.0, 1883.0, 1887.0, 1889.0, 1889.0, 1888.0, 1889.0, 1889.0, 1887.0, 1889.0, 1889.0, 1887.0, 1884.0, 1880.0, 1882.0, 1886.0, 1886.0, 1882.0, 1878.0, 1878.0, 1880.0, 1881.0, 1878.0, 1882.0, 1884.0, 1884.0, 1880.0, 1878.0, 1874.0, 1870.0, 1871.0, 1875.0, 1881.0, 1879.0, 1878.0, 1881.0, 1886.0, 1891.0, 1891.0, 1893.0, 1903.0, 1906.0, 1900.0, 1890.0, 1883.0, 1882.0, 1885.0, 1888.0, 1887.0, 1890.0, 1892.0, 1888.0, 1878.0, 1873.0, 1874.0, 1879.0, 1883.0, 1885.0, 1889.0, 1893.0, 1899.0, 1895.0, 1891.0, 1882.0, 1892.0, 1889.0, 1889.0, 1886.0, 1887.0, 1893.0, 1899.0, 1898.0, 1892.0, 1888.0, 1886.0, 1885.0, 1885.0, 1886.0, 1883.0, 1879.0, 1875.0, 1875.0, 1872.0, 1872.0, 1872.0, 1872.0, 1876.0, 1879.0, 1880.0, 1880.0, 1880.0, 1880.0, 1880.0, 1880.0, 1879.0, 1878.0, 1881.0, 1886.0, 1890.0, 1897.0, 1899.0, 1896.0, 1893.0, 1892.0, 1892.0, 1887.0, 1882.0, 1881.0, 1878.0, 1882.0, 1886.0, 1885.0, 1882.0, 1884.0, 1889.0, 1890.0, 1884.0, 1882.0, 1883.0, 1886.0, 1891.0, 1890.0, 1888.0, 1884.0, 1881.0, 1874.0, 1868.0, 1876.0, 1869.0, 1868.0, 1875.0, 1881.0, 1888.0, 1888.0, 1885.0, 1879.0, 1879.0, 1880.0, 1883.0]
    },
    "slices": {}
  }
}