{
  "AcquisitionMatrixPE": 100,
  "AcquisitionNumber": 1,
  "AcquisitionTime": "09:12:17.135000",
  "BandwidthPerPixelPhaseEncode": 18.519,
  "BaseResolution": 100,
  "BodyPartExamined": "BRAIN",
  "ConsistencyInfo": "N4_VE11C_LATEST_20160120",
  "ConversionSoftware": "dcm2niix",
  "ConversionSoftwareVersion": "v1.0.20180622 GCC4.9.2",
  "DerivedVendorReportedEchoSpacing": 0.000539986,
  "DeviceSerialNumber": "166078",
  "DwellTime": 2.1e-06,
  "EchoTime": 0.034,
  "EchoTrainLength": 100,
  "EffectiveEchoSpacing": 0.000539986,
  "FlipAngle": 90,
  "ImageOrientationPatientDICOM": [0.997091, 0.00717365, -0.0758863, -0.0226271, 0.978542, -0.2048],
  "ImageType": [
    "ORIGINAL",
    "PRIMARY",
    "M",
    "ND",
    "MOSAIC"
],
  "InPlanePhaseEncodingDirectionDICOM": "COL",
  "InstitutionAddress": "Street_StreetNo_Bei_Jing_District_CN_ZIP",
  "InstitutionName": "BeiJing_Normal_University",
  "InstitutionalDepartmentName": "Department",
  "MRAcquisitionType": "2D",
  "MagneticFieldStrength": 3,
  "Manufacturer": "Siemens",
  "ManufacturersModelName": "Prisma",
  "Modality": "MR",
  "MultibandAccelerationFactor": 3,
  "PartialFourier": 1,
  "PatientPosition": "HFS",
  "PercentPhaseFOV": 100,
  "PhaseEncodingDirection": "j-",
  "PhaseEncodingSteps": 100,
  "PhaseResolution": 1,
  "PixelBandwidth": 2380,
  "ProcedureStepDescription": "BNU_P2018_64CH_Liu.Jia",
  "ProtocolName": "bold_100x100_s3_2x2x2_232",
  "PulseSequenceDetails": "%SiemensSeq%_ep2d_bold",
  "ReceiveCoilActiveElements": "HC1-7;NC1",
  "ReceiveCoilName": "HeadNeck_64",
  "ReconMatrixPE": 100,
  "RepetitionTime": 2,
  "SAR": 0.0644599,
  "ScanOptions": "FS",
  "ScanningSequence": "EP",
  "SequenceName": "_epfid2d1_100",
  "SequenceVariant": "SK",
  "SeriesDescription": "bold_100x100_s3_2x2x2_232",
  "SeriesNumber": 3,
  "ShimSetting": [-5477, -11479, -1230, 410, 12, -291, -177, 127],
  "SliceThickness": 2,
  "SliceTiming": [1.485, 0, 0.99, 0.0825, 1.0725, 0.165, 1.155, 0.2475, 1.2375, 0.33, 1.32, 0.4125, 1.4025, 0.5775, 1.5675, 0.66, 1.65, 0.7425, 1.7325, 0.825, 1.815, 0.9075, 1.8975, 0.495, 1.485, 0, 0.99, 0.0825, 1.0725, 0.165, 1.155, 0.2475, 1.2375, 0.33, 1.32, 0.4125, 1.4025, 0.5775, 1.5675, 0.66, 1.65, 0.7425, 1.7325, 0.825, 1.815, 0.9075, 1.8975, 0.495, 1.485, 0, 0.99, 0.0825, 1.0725, 0.165, 1.155, 0.2475, 1.2375, 0.33, 1.32, 0.4125, 1.4025, 0.5775, 1.5675, 0.66, 1.65, 0.7425, 1.7325, 0.825, 1.815, 0.9075, 1.8975, 0.495],
  "SoftwareVersions": "syngo_MR_E11",
  "SpacingBetweenSlices": 2,
  "StationName": "AWP166078",
  "TaskName": "motor",
  "TotalReadoutTime": 0.0534586,
  "TxRefAmp": 210.913,
  "dcmmeta_affine": [
    [-1.9941813945770264, -0.0452541708946228, -0.14557750523090363, 106.81019592285156],
    [-0.014347304590046406, 1.9570844173431396, -0.4118431806564331, -81.06324005126953],
    [-0.15177254378795624, 0.4096006751060486, 1.9517152309417725, -66.17008972167969],
    [0.0, 0.0, 0.0, 1.0]
],
  "dcmmeta_reorient_transform": [
    [0.0, -1.0, 0.0, 99.0],
    [1.0, 0.0, 0.0, 0.0],
    [0.0, 0.0, 1.0, 0.0],
    [0.0, 0.0, 0.0, 1.0]
],
  "dcmmeta_shape": [100, 100, 72, 232],
  "dcmmeta_slice_dim": 2,
  "dcmmeta_version": 0.6,
  "global": {
    "const": {
      "AcquisitionMatrix": [100, 0, 0, 100],
      "AngioFlag": "N",
      "BitsAllocated": 16,
      "BitsStored": 12,
      "BodyPartExamined": "BRAIN",
      "Columns": 900,
      "EchoNumbers": 1,
      "EchoTime": 34.0,
      "EchoTrainLength": 100,
      "FlipAngle": 90.0,
      "HighBit": 11,
      "ImageOrientationPatient": [0.99709067427542, 0.00717365219627, -0.0758862700833, -0.0226270845659, 0.97854220014148, -0.2048003359038],
      "ImagePositionPatient": [-881.90090631378, -901.26079370768, 198.92966337552],
      "ImageType": [
        "ORIGINAL",
        "PRIMARY",
        "M",
        "ND",
        "MOSAIC"
],
      "ImagedNucleus": "1H",
      "ImagingFrequency": 123.257798,
      "InPlanePhaseEncodingDirection": "COL",
      "LargestImagePixelValue": 4095,
      "MRAcquisitionType": "2D",
      "MagneticFieldStrength": 3.0,
      "Manufacturer": "SIEMENS",
      "ManufacturerModelName": "Prisma",
      "Modality": "MR",
      "NumberOfAverages": 1.0,
      "NumberOfPhaseEncodingSteps": 100,
      "PercentPhaseFieldOfView": 100.0,
      "PercentSampling": 100.0,
      "PerformedProcedureStepStartTime": "090311.637000",
      "PhotometricInterpretation": "MONOCHROME2",
      "PixelBandwidth": 2380.0,
      "PixelRepresentation": 0,
      "PixelSpacing": [2.0, 2.0],
      "ProtocolName": "bold_100x100_s3_2x2x2_232",
      "RepetitionTime": 2000.0,
      "Rows": 900,
      "SAR": 0.06445990978359,
      "SamplesPerPixel": 1,
      "ScanOptions": "FS",
      "ScanningSequence": "EP",
      "SequenceName": "*epfid2d1_100",
      "SequenceVariant": "SK",
      "SeriesDescription": "bold_100x100_s3_2x2x2_232",
      "SeriesNumber": 3,
      "SeriesTime": "091219.374000",
      "SliceLocation": -55.654493411099,
      "SliceThickness": 2.0,
      "SmallestImagePixelValue": 0,
      "SoftwareVersions": "syngo MR E11",
      "SpacingBetweenSlices": 1.9999999839192,
      "SpecificCharacterSet": "ISO_IR 100",
      "StudyID": "1",
      "StudyTime": "090311.493000",
      "TransmitCoilName": "Body",
      "VariableFlipAngleFlag": "N",
      "WindowCenterWidthExplanation": "Algo1",
      "dBdt": 0.0},
    "slices": {}
  },
  "time": {
    "samples": {
      "AcquisitionNumber": [1, 2, 3, 4, 5, 6, 7, 8, 9, 10, 11, 12, 13, 14, 15, 16, 17, 18, 19, 20, 21, 22, 23, 24, 25, 26, 27, 28, 29, 30, 31, 32, 33, 34, 35, 36, 37, 38, 39, 40, 41, 42, 43, 44, 45, 46, 47, 48, 49, 50, 51, 52, 53, 54, 55, 56, 57, 58, 59, 60, 61, 62, 63, 64, 65, 66, 67, 68, 69, 70, 71, 72, 73, 74, 75, 76, 77, 78, 79, 80, 81, 82, 83, 84, 85, 86, 87, 88, 89, 90, 91, 92, 93, 94, 95, 96, 97, 98, 99, 100, 101, 102, 103, 104, 105, 106, 107, 108, 109, 110, 111, 112, 113, 114, 115, 116, 117, 118, 119, 120, 121, 122, 123, 124, 125, 126, 127, 128, 129, 130, 131, 132, 133, 134, 135, 136, 137, 138, 139, 140, 141, 142, 143, 144, 145, 146, 147, 148, 149, 150, 151, 152, 153, 154, 155, 156, 157, 158, 159, 160, 161, 162, 163, 164, 165, 166, 167, 168, 169, 170, 171, 172, 173, 174, 175, 176, 177, 178, 179, 180, 181, 182, 183, 184, 185, 186, 187, 188, 189, 190, 191, 192, 193, 194, 195, 196, 197, 198, 199, 200, 201, 202, 203, 204, 205, 206, 207, 208, 209, 210, 211, 212, 213, 214, 215, 216, 217, 218, 219, 220, 221, 222, 223, 224, 225, 226, 227, 228, 229, 230, 231, 232],
      "AcquisitionTime": ["091217.135000", "091219.135000", "091221.135000", "091223.135000", "091225.135000", "091227.135000", "091229.135000", "091231.135000", "091233.135000", "091235.135000", "091237.135000", "091239.135000", "091241.135000", "091243.135000", "091245.135000", "091247.135000", "091249.135000", "091251.135000", "091253.135000", "091255.135000", "091257.135000", "091259.135000", "091301.135000", "091303.135000", "091305.135000", "091307.135000", "091309.135000", "091311.135000", "091313.135000", "091315.135000", "091317.135000", "091319.135000", "091321.135000", "091323.135000", "091325.135000", "091327.135000", "091329.135000", "091331.135000", "091333.135000", "091335.135000", "091337.135000", "091339.135000", "091341.135000", "091343.135000", "091345.135000", "091347.135000", "091349.135000", "091351.135000", "091353.135000", "091355.135000", "091357.135000", "091359.135000", "091401.135000", "091403.135000", "091405.135000", "091407.135000", "091409.135000", "091411.135000", "091413.135000", "091415.135000", "091417.135000", "091419.135000", "091421.135000", "091423.135000", "091425.135000", "091427.135000", "091429.135000", "091431.135000", "091433.135000", "091435.135000", "091437.135000", "091439.135000", "091441.135000", "091443.135000", "091445.135000", "091447.135000", "091449.135000", "091451.135000", "091453.135000", "091455.135000", "091457.135000", "091459.135000", "091501.135000", "091503.135000", "091505.135000", "091507.135000", "091509.135000", "091511.135000", "091513.135000", "091515.135000", "091517.135000", "091519.135000", "091521.135000", "091523.135000", "091525.135000", "091527.135000", "091529.135000", "091531.135000", "091533.135000", "091535.135000", "091537.135000", "091539.135000", "091541.135000", "091543.135000", "091545.135000", "091547.135000", "091549.135000", "091551.135000", "091553.135000", "091555.135000", "091557.135000", "091559.135000", "091601.135000", "091603.135000", "091605.135000", "091607.135000", "091609.135000", "091611.135000", "091613.135000", "091615.135000", "091617.135000", "091619.135000", "091621.135000", "091623.135000", "091625.135000", "091627.135000", "091629.135000", "091631.135000", "091633.135000", "091635.135000", "091637.135000", "091639.135000", "091641.135000", "091643.135000", "091645.135000", "091647.135000", "091649.135000", "091651.135000", "091653.135000", "091655.135000", "091657.135000", "091659.135000", "091701.135000", "091703.135000", "091705.135000", "091707.135000", "091709.135000", "091711.135000", "091713.135000", "091715.135000", "091717.135000", "091719.135000", "091721.135000", "091723.135000", "091725.135000", "091727.135000", "091729.135000", "091731.135000", "091733.135000", "091735.135000", "091737.135000", "091739.135000", "091741.135000", "091743.135000", "091745.135000", "091747.135000", "091749.135000", "091751.135000", "091753.135000", "091755.135000", "091757.135000", "091759.135000", "091801.135000", "091803.135000", "091805.135000", "091807.135000", "091809.135000", "091811.135000", "091813.135000", "091815.135000", "091817.135000", "091819.135000", "091821.135000", "091823.135000", "091825.135000", "091827.135000", "091829.135000", "091831.135000", "091833.135000", "091835.135000", "091837.135000", "091839.135000", "091841.135000", "091843.135000", "091845.135000", "091847.135000", "091849.135000", "091851.135000", "091853.135000", "091855.135000", "091857.135000", "091859.135000", "091901.135000", "091903.135000", "091905.135000", "091907.135000", "091909.135000", "091911.135000", "091913.135000", "091915.135000", "091917.135000", "091919.135000", "091921.135000", "091923.135000", "091925.135000", "091927.135000", "091929.135000", "091931.135000", "091933.135000", "091935.135000", "091937.135000", "091939.135000", "091941.135000", "091943.135000", "091945.135000", "091947.135000", "091949.135000", "091951.135000", "091953.135000", "091955.135000", "091957.135000", "091959.135000"],
      "ContentTime": ["091219.378000", "091220.862000", "091222.861000", "091224.861000", "091226.862000", "091228.861000", "091230.861000", "091232.861000", "091234.862000", "091236.863000", "091238.861000", "091240.861000", "091242.862000", "091244.862000", "091246.861000", "091248.861000", "091250.862000", "091252.863000", "091254.863000", "091256.861000", "091258.861000", "091300.861000", "091302.862000", "091304.861000", "091306.862000", "091308.861000", "091310.862000", "091312.862000", "091314.861000", "091316.862000", "091318.861000", "091320.862000", "091322.862000", "091324.862000", "091326.862000", "091328.863000", "091330.862000", "091332.861000", "091334.861000", "091336.861000", "091338.861000", "091340.861000", "091342.861000", "091344.862000", "091346.862000", "091348.861000", "091350.862000", "091352.861000", "091354.862000", "091356.861000", "091358.861000", "091400.862000", "091402.863000", "091404.863000", "091406.861000", "091408.861000", "091410.861000", "091412.862000", "091414.861000", "091416.861000", "091418.861000", "091420.862000", "091422.862000", "091424.861000", "091426.861000", "091428.862000", "091430.861000", "091432.861000", "091434.861000", "091436.862000", "091438.862000", "091440.862000", "091442.861000", "091444.862000", "091446.861000", "091448.862000", "091450.862000", "091452.861000", "091454.863000", "091456.863000", "091458.862000", "091500.861000", "091502.861000", "091504.861000", "091506.861000", "091508.862000", "091510.861000", "091512.862000", "091514.863000", "091516.862000", "091518.861000", "091520.862000", "091522.861000", "091524.861000", "091526.861000", "091528.861000", "091530.862000", "091532.862000", "091534.861000", "091536.861000", "091538.861000", "091540.861000", "091542.862000", "091544.861000", "091546.862000", "091548.862000", "091550.862000", "091552.862000", "091554.862000", "091556.861000", "091558.862000", "091600.862000", "091602.861000", "091604.863000", "091606.863000", "091608.861000", "091610.861000", "091612.862000", "091614.861000", "091616.861000", "091618.861000", "091620.861000", "091622.862000", "091624.863000", "091626.862000", "091628.861000", "091630.861000", "091632.861000", "091634.861000", "091636.861000", "091638.863000", "091640.863000", "091642.862000", "091644.862000", "091646.861000", "091648.861000", "091650.862000", "091652.862000", "091654.861000", "091656.862000", "091658.862000", "091700.862000", "091702.862000", "091704.862000", "091706.861000", "091708.862000", "091710.861000", "091712.861000", "091714.863000", "091716.862000", "091718.862000", "091720.861000", "091722.862000", "091724.861000", "091726.862000", "091728.862000", "091730.861000", "091732.862000", "091734.862000", "091736.861000", "091738.861000", "091740.861000", "091742.861000", "091744.861000", "091746.861000", "091748.862000", "091750.862000", "091752.863000", "091754.861000", "091756.861000", "091758.862000", "091800.862000", "091802.862000", "091804.861000", "091806.863000", "091808.862000", "091810.877000", "091812.862000", "091814.862000", "091816.861000", "091818.862000", "091820.862000", "091822.862000", "091824.862000", "091826.863000", "091828.862000", "091830.862000", "091832.861000", "091834.862000", "091836.861000", "091838.861000", "091840.862000", "091842.862000", "091844.862000", "091846.861000", "091848.862000", "091850.861000", "091852.861000", "091854.862000", "091856.861000", "091858.862000", "091900.862000", "091902.862000", "091904.861000", "091906.861000", "091908.861000", "091910.861000", "091912.861000", "091914.861000", "091916.862000", "091918.863000", "091920.862000", "091922.861000", "091924.861000", "091926.862000", "091928.862000", "091930.861000", "091932.861000", "091934.862000", "091936.863000", "091938.862000", "091940.862000", "091942.862000", "091944.861000", "091946.862000", "091948.861000", "091950.861000", "091952.862000", "091954.863000", "091956.861000", "091958.861000", "092000.412000"],
      "InstanceCreationTime": ["091219.378000", "091220.862000", "091222.861000", "091224.861000", "091226.862000", "091228.861000", "091230.861000", "091232.861000", "091234.862000", "091236.863000", "091238.861000", "091240.861000", "091242.862000", "091244.862000", "091246.861000", "091248.861000", "091250.862000", "091252.863000", "091254.863000", "091256.861000", "091258.861000", "091300.861000", "091302.862000", "091304.861000", "091306.862000", "091308.861000", "091310.862000", "091312.862000", "091314.861000", "091316.862000", "091318.861000", "091320.862000", "091322.862000", "091324.862000", "091326.862000", "091328.863000", "091330.862000", "091332.861000", "091334.861000", "091336.861000", "091338.861000", "091340.861000", "091342.861000", "091344.862000", "091346.862000", "091348.861000", "091350.862000", "091352.861000", "091354.862000", "091356.861000", "091358.861000", "091400.862000", "091402.863000", "091404.863000", "091406.861000", "091408.861000", "091410.861000", "091412.862000", "091414.861000", "091416.861000", "091418.861000", "091420.862000", "091422.862000", "091424.861000", "091426.861000", "091428.862000", "091430.861000", "091432.861000", "091434.861000", "091436.862000", "091438.862000", "091440.862000", "091442.861000", "091444.862000", "091446.861000", "091448.862000", "091450.862000", "091452.861000", "091454.863000", "091456.863000", "091458.862000", "091500.861000", "091502.861000", "091504.861000", "091506.861000", "091508.862000", "091510.861000", "091512.862000", "091514.863000", "091516.862000", "091518.861000", "091520.862000", "091522.861000", "091524.861000", "091526.861000", "091528.861000", "091530.862000", "091532.862000", "091534.861000", "091536.861000", "091538.861000", "091540.861000", "091542.862000", "091544.861000", "091546.862000", "091548.862000", "091550.862000", "091552.862000", "091554.862000", "091556.861000", "091558.862000", "091600.862000", "091602.861000", "091604.863000", "091606.863000", "091608.861000", "091610.861000", "091612.862000", "091614.861000", "091616.861000", "091618.861000", "091620.861000", "091622.862000", "091624.863000", "091626.862000", "091628.861000", "091630.861000", "091632.861000", "091634.861000", "091636.861000", "091638.863000", "091640.863000", "091642.862000", "091644.862000", "091646.861000", "091648.861000", "091650.862000", "091652.862000", "091654.861000", "091656.862000", "091658.862000", "091700.862000", "091702.862000", "091704.862000", "091706.861000", "091708.862000", "091710.861000", "091712.861000", "091714.863000", "091716.862000", "091718.862000", "091720.861000", "091722.862000", "091724.861000", "091726.862000", "091728.862000", "091730.861000", "091732.862000", "091734.862000", "091736.861000", "091738.861000", "091740.861000", "091742.861000", "091744.861000", "091746.861000", "091748.862000", "091750.862000", "091752.863000", "091754.861000", "091756.861000", "091758.862000", "091800.862000", "091802.862000", "091804.861000", "091806.863000", "091808.862000", "091810.877000", "091812.862000", "091814.862000", "091816.861000", "091818.862000", "091820.862000", "091822.862000", "091824.862000", "091826.863000", "091828.862000", "091830.862000", "091832.861000", "091834.862000", "091836.861000", "091838.861000", "091840.862000", "091842.862000", "091844.862000", "091846.861000", "091848.862000", "091850.861000", "091852.861000", "091854.862000", "091856.861000", "091858.862000", "091900.862000", "091902.862000", "091904.861000", "091906.861000", "091908.861000", "091910.861000", "091912.861000", "091914.861000", "091916.862000", "091918.863000", "091920.862000", "091922.861000", "091924.861000", "091926.862000", "091928.862000", "091930.861000", "091932.861000", "091934.862000", "091936.863000", "091938.862000", "091940.862000", "091942.862000", "091944.861000", "091946.862000", "091948.861000", "091950.861000", "091952.862000", "091954.863000", "091956.861000", "091958.861000", "092000.412000"],
      "InstanceNumber": [1, 2, 3, 4, 5, 6, 7, 8, 9, 10, 11, 12, 13, 14, 15, 16, 17, 18, 19, 20, 21, 22, 23, 24, 25, 26, 27, 28, 29, 30, 31, 32, 33, 34, 35, 36, 37, 38, 39, 40, 41, 42, 43, 44, 45, 46, 47, 48, 49, 50, 51, 52, 53, 54, 55, 56, 57, 58, 59, 60, 61, 62, 63, 64, 65, 66, 67, 68, 69, 70, 71, 72, 73, 74, 75, 76, 77, 78, 79, 80, 81, 82, 83, 84, 85, 86, 87, 88, 89, 90, 91, 92, 93, 94, 95, 96, 97, 98, 99, 100, 101, 102, 103, 104, 105, 106, 107, 108, 109, 110, 111, 112, 113, 114, 115, 116, 117, 118, 119, 120, 121, 122, 123, 124, 125, 126, 127, 128, 129, 130, 131, 132, 133, 134, 135, 136, 137, 138, 139, 140, 141, 142, 143, 144, 145, 146, 147, 148, 149, 150, 151, 152, 153, 154, 155, 156, 157, 158, 159, 160, 161, 162, 163, 164, 165, 166, 167, 168, 169, 170, 171, 172, 173, 174, 175, 176, 177, 178, 179, 180, 181, 182, 183, 184, 185, 186, 187, 188, 189, 190, 191, 192, 193, 194, 195, 196, 197, 198, 199, 200, 201, 202, 203, 204, 205, 206, 207, 208, 209, 210, 211, 212, 213, 214, 215, 216, 217, 218, 219, 220, 221, 222, 223, 224, 225, 226, 227, 228, 229, 230, 231, 232],
      "WindowCenter": [853.0, 852.0, 851.0, 851.0, 850.0, 851.0, 851.0, 851.0, 850.0, 850.0, 851.0, 851.0, 852.0, 852.0, 853.0, 853.0, 852.0, 854.0, 855.0, 854.0, 853.0, 854.0, 855.0, 855.0, 854.0, 854.0, 853.0, 853.0, 853.0, 854.0, 854.0, 853.0, 852.0, 852.0, 852.0, 851.0, 851.0, 851.0, 852.0, 852.0, 853.0, 854.0, 854.0, 853.0, 854.0, 856.0, 857.0, 857.0, 856.0, 856.0, 855.0, 854.0, 852.0, 853.0, 853.0, 851.0, 852.0, 851.0, 852.0, 853.0, 853.0, 853.0, 850.0, 849.0, 849.0, 849.0, 849.0, 850.0, 850.0, 850.0, 852.0, 853.0, 851.0, 851.0, 851.0, 851.0, 851.0, 851.0, 851.0, 851.0, 851.0, 851.0, 852.0, 853.0, 853.0, 853.0, 852.0, 853.0, 853.0, 852.0, 852.0, 852.0, 852.0, 853.0, 853.0, 852.0, 851.0, 851.0, 849.0, 850.0, 851.0, 852.0, 852.0, 850.0, 851.0, 851.0, 852.0, 852.0, 851.0, 851.0, 853.0, 854.0, 853.0, 852.0, 853.0, 852.0, 851.0, 849.0, 849.0, 849.0, 849.0, 850.0, 850.0, 850.0, 851.0, 851.0, 850.0, 851.0, 850.0, 850.0, 848.0, 847.0, 848.0, 847.0, 846.0, 848.0, 848.0, 849.0, 848.0, 848.0, 849.0, 850.0, 852.0, 853.0, 851.0, 850.0, 850.0, 851.0, 851.0, 851.0, 850.0, 850.0, 851.0, 851.0, 850.0, 849.0, 850.0, 850.0, 850.0, 849.0, 850.0, 849.0, 848.0, 848.0, 850.0, 850.0, 848.0, 847.0, 848.0, 848.0, 847.0, 847.0, 848.0, 848.0, 849.0, 849.0, 849.0, 847.0, 847.0, 848.0, 850.0, 850.0, 849.0, 848.0, 849.0, 850.0, 849.0, 849.0, 850.0, 852.0, 852.0, 850.0, 849.0, 850.0, 849.0, 849.0, 849.0, 851.0, 851.0, 851.0, 850.0, 850.0, 851.0, 851.0, 850.0, 850.0, 850.0, 850.0, 850.0, 850.0, 849.0, 849.0, 850.0, 851.0, 852.0, 852.0, 851.0, 851.0, 851.0, 851.0, 852.0, 852.0, 852.0, 852.0, 852.0, 852.0, 852.0, 850.0, 850.0, 850.0, 850.0, 849.0],
      "WindowWidth": [1902.0, 1896.0, 1895.0, 1894.0, 1892.0, 1895.0, 1895.0, 1894.0, 1890.0, 1890.0, 1893.0, 1895.0, 1895.0, 1897.0, 1901.0, 1899.0, 1897.0, 1904.0, 1906.0, 1903.0, 1901.0, 1903.0, 1906.0, 1906.0, 1903.0, 1902.0, 1900.0, 1900.0, 1901.0, 1902.0, 1901.0, 1900.0, 1897.0, 1896.0, 1895.0, 1894.0, 1893.0, 1894.0, 1894.0, 1895.0, 1900.0, 1901.0, 1899.0, 1896.0, 1900.0, 1908.0, 1910.0, 1910.0, 1908.0, 1907.0, 1905.0, 1901.0, 1894.0, 1899.0, 1898.0, 1893.0, 1894.0, 1892.0, 1896.0, 1898.0, 1898.0, 1896.0, 1888.0, 1885.0, 1884.0, 1886.0, 1886.0, 1887.0, 1887.0, 1890.0, 1893.0, 1896.0, 1892.0, 1891.0, 1892.0, 1892.0, 1890.0, 1891.0, 1892.0, 1892.0, 1891.0, 1892.0, 1894.0, 1898.0, 1899.0, 1897.0, 1895.0, 1897.0, 1897.0, 1895.0, 1893.0, 1893.0, 1895.0, 1896.0, 1896.0, 1894.0, 1891.0, 1890.0, 1885.0, 1889.0, 1892.0, 1893.0, 1892.0, 1889.0, 1891.0, 1890.0, 1892.0, 1892.0, 1891.0, 1892.0, 1896.0, 1899.0, 1896.0, 1894.0, 1894.0, 1894.0, 1891.0, 1884.0, 1882.0, 1883.0, 1884.0, 1886.0, 1886.0, 1887.0, 1889.0, 1888.0, 1888.0, 1888.0, 1888.0, 1887.0, 1880.0, 1878.0, 1881.0, 1877.0, 1876.0, 1882.0, 1882.0, 1883.0, 1880.0, 1881.0, 1885.0, 1887.0, 1893.0, 1895.0, 1890.0, 1885.0, 1887.0, 1888.0, 1889.0, 1888.0, 1886.0, 1887.0, 1889.0, 1888.0, 1885.0, 1883.0, 1885.0, 1886.0, 1886.0, 1884.0, 1884.0, 1882.0, 1881.0, 1879.0, 1886.0, 1886.0, 1880.0, 1877.0, 1879.0, 1878.0, 1878.0, 1878.0, 1879.0, 1881.0, 1882.0, 1883.0, 1882.0, 1878.0, 1876.0, 1878.0, 1886.0, 1885.0, 1883.0, 1879.0, 1884.0, 1885.0, 1884.0, 1882.0, 1885.0, 1892.0, 1891.0, 1886.0, 1884.0, 1884.0, 1883.0, 1882.0, 1883.0, 1888.0, 1889.0, 1888.0, 1884.0, 1884.0, 1888.0, 1888.0, 1885.0, 1884.0, 1882.0, 1883.0, 1883.0, 1883.0, 1881.0, 1880.0, 1883.0, 1887.0, 1890.0, 1888.0, 1885.0, 1885.0, 1886.0, 1888.0, 1890.0, 1890.0, 1890.0, 1890.0, 1891.0, 1891.0, 1891.0, 1885.0, 1884.0, 1885.0, 1883.0, 1881.0]
    },
    "slices": {}
  }
}