{
  "AcquisitionMatrixPE": 100,
  "AcquisitionNumber": 1,
  "AcquisitionTime": "09:41:56.120000",
  "BandwidthPerPixelPhaseEncode": 18.519,
  "BaseResolution": 100,
  "BodyPartExamined": "BRAIN",
  "ConsistencyInfo": "N4_VE11C_LATEST_20160120",
  "ConversionSoftware": "dcm2niix",
  "ConversionSoftwareVersion": "v1.0.20180622 GCC4.9.2",
  "DerivedVendorReportedEchoSpacing": 0.000539986,
  "DeviceSerialNumber": "166078",
  "DwellTime": 2.1e-06,
  "EchoTime": 0.034,
  "EchoTrainLength": 100,
  "EffectiveEchoSpacing": 0.000539986,
  "FlipAngle": 90,
  "ImageOrientationPatientDICOM": [0.997091, 0.00717365, -0.0758863, -0.0226271, 0.978542, -0.2048],
  "ImageType": [
    "ORIGINAL",
    "PRIMARY",
    "M",
    "ND",
    "MOSAIC"
],
  "InPlanePhaseEncodingDirectionDICOM": "COL",
  "InstitutionAddress": "Street_StreetNo_Bei_Jing_District_CN_ZIP",
  "InstitutionName": "BeiJing_Normal_University",
  "InstitutionalDepartmentName": "Department",
  "MRAcquisitionType": "2D",
  "MagneticFieldStrength": 3,
  "Manufacturer": "Siemens",
  "ManufacturersModelName": "Prisma",
  "Modality": "MR",
  "MultibandAccelerationFactor": 3,
  "PartialFourier": 1,
  "PatientPosition": "HFS",
  "PercentPhaseFOV": 100,
  "PhaseEncodingDirection": "j-",
  "PhaseEncodingSteps": 100,
  "PhaseResolution": 1,
  "PixelBandwidth": 2380,
  "ProcedureStepDescription": "BNU_P2018_64CH_Liu.Jia",
  "ProtocolName": "bold_100x100_s3_2x2x2_232",
  "PulseSequenceDetails": "%SiemensSeq%_ep2d_bold",
  "ReceiveCoilActiveElements": "HC1-7;NC1",
  "ReceiveCoilName": "HeadNeck_64",
  "ReconMatrixPE": 100,
  "RepetitionTime": 2,
  "SAR": 0.0644599,
  "ScanOptions": "FS",
  "ScanningSequence": "EP",
  "SequenceName": "_epfid2d1_100",
  "SequenceVariant": "SK",
  "SeriesDescription": "bold_100x100_s3_2x2x2_232",
  "SeriesNumber": 8,
  "ShimSetting": [-5477, -11479, -1230, 410, 12, -291, -177, 127],
  "SliceThickness": 2,
  "SliceTiming": [1.4825, 0, 0.9875, 0.0825, 1.07, 0.165, 1.1525, 0.2475, 1.235, 0.33, 1.3175, 0.4125, 1.4, 0.5775, 1.565, 0.66, 1.6475, 0.7425, 1.73, 0.8225, 1.8125, 0.905, 1.895, 0.495, 1.4825, 0, 0.9875, 0.0825, 1.07, 0.165, 1.1525, 0.2475, 1.235, 0.33, 1.3175, 0.4125, 1.4, 0.5775, 1.565, 0.66, 1.6475, 0.7425, 1.73, 0.8225, 1.8125, 0.905, 1.895, 0.495, 1.4825, 0, 0.9875, 0.0825, 1.07, 0.165, 1.1525, 0.2475, 1.235, 0.33, 1.3175, 0.4125, 1.4, 0.5775, 1.565, 0.66, 1.6475, 0.7425, 1.73, 0.8225, 1.8125, 0.905, 1.895, 0.495],
  "SoftwareVersions": "syngo_MR_E11",
  "SpacingBetweenSlices": 2,
  "StationName": "AWP166078",
  "TaskName": "motor",
  "TotalReadoutTime": 0.0534586,
  "TxRefAmp": 210.913,
  "dcmmeta_affine": [
    [-1.9941813945770264, -0.0452541708946228, -0.14557750523090363, 106.81019592285156],
    [-0.014347304590046406, 1.9570844173431396, -0.4118431806564331, -81.06324005126953],
    [-0.15177254378795624, 0.4096006751060486, 1.9517152309417725, -66.17008972167969],
    [0.0, 0.0, 0.0, 1.0]
],
  "dcmmeta_reorient_transform": [
    [0.0, -1.0, 0.0, 99.0],
    [1.0, 0.0, 0.0, 0.0],
    [0.0, 0.0, 1.0, 0.0],
    [0.0, 0.0, 0.0, 1.0]
],
  "dcmmeta_shape": [100, 100, 72, 232],
  "dcmmeta_slice_dim": 2,
  "dcmmeta_version": 0.6,
  "global": {
    "const": {
      "AcquisitionMatrix": [100, 0, 0, 100],
      "AngioFlag": "N",
      "BitsAllocated": 16,
      "BitsStored": 12,
      "BodyPartExamined": "BRAIN",
      "Columns": 900,
      "EchoNumbers": 1,
      "EchoTime": 34.0,
      "EchoTrainLength": 100,
      "FlipAngle": 90.0,
      "HighBit": 11,
      "ImageOrientationPatient": [0.99709067427542, 0.00717365219627, -0.0758862700833, -0.0226270845659, 0.97854220014148, -0.2048003359038],
      "ImagePositionPatient": [-881.90090631378, -901.26079370768, 198.92966337552],
      "ImageType": [
        "ORIGINAL",
        "PRIMARY",
        "M",
        "ND",
        "MOSAIC"
],
      "ImagedNucleus": "1H",
      "ImagingFrequency": 123.257818,
      "InPlanePhaseEncodingDirection": "COL",
      "LargestImagePixelValue": 4095,
      "MRAcquisitionType": "2D",
      "MagneticFieldStrength": 3.0,
      "Manufacturer": "SIEMENS",
      "ManufacturerModelName": "Prisma",
      "Modality": "MR",
      "NumberOfAverages": 1.0,
      "NumberOfPhaseEncodingSteps": 100,
      "PercentPhaseFieldOfView": 100.0,
      "PercentSampling": 100.0,
      "PerformedProcedureStepStartTime": "090311.637000",
      "PhotometricInterpretation": "MONOCHROME2",
      "PixelBandwidth": 2380.0,
      "PixelRepresentation": 0,
      "PixelSpacing": [2.0, 2.0],
      "ProtocolName": "bold_100x100_s3_2x2x2_232",
      "RepetitionTime": 2000.0,
      "Rows": 900,
      "SAR": 0.06445990978359,
      "SamplesPerPixel": 1,
      "ScanOptions": "FS",
      "ScanningSequence": "EP",
      "SequenceName": "*epfid2d1_100",
      "SequenceVariant": "SK",
      "SeriesDescription": "bold_100x100_s3_2x2x2_232",
      "SeriesNumber": 8,
      "SeriesTime": "094158.467000",
      "SliceLocation": -55.654493411099,
      "SliceThickness": 2.0,
      "SmallestImagePixelValue": 0,
      "SoftwareVersions": "syngo MR E11",
      "SpacingBetweenSlices": 1.9999999839192,
      "SpecificCharacterSet": "ISO_IR 100",
      "StudyID": "1",
      "StudyTime": "090311.493000",
      "TransmitCoilName": "Body",
      "VariableFlipAngleFlag": "N",
      "WindowCenterWidthExplanation": "Algo1",
      "dBdt": 0.0},
    "slices": {}
  },
  "time": {
    "samples": {
      "AcquisitionNumber": [1, 2, 3, 4, 5, 6, 7, 8, 9, 10, 11, 12, 13, 14, 15, 16, 17, 18, 19, 20, 21, 22, 23, 24, 25, 26, 27, 28, 29, 30, 31, 32, 33, 34, 35, 36, 37, 38, 39, 40, 41, 42, 43, 44, 45, 46, 47, 48, 49, 50, 51, 52, 53, 54, 55, 56, 57, 58, 59, 60, 61, 62, 63, 64, 65, 66, 67, 68, 69, 70, 71, 72, 73, 74, 75, 76, 77, 78, 79, 80, 81, 82, 83, 84, 85, 86, 87, 88, 89, 90, 91, 92, 93, 94, 95, 96, 97, 98, 99, 100, 101, 102, 103, 104, 105, 106, 107, 108, 109, 110, 111, 112, 113, 114, 115, 116, 117, 118, 119, 120, 121, 122, 123, 124, 125, 126, 127, 128, 129, 130, 131, 132, 133, 134, 135, 136, 137, 138, 139, 140, 141, 142, 143, 144, 145, 146, 147, 148, 149, 150, 151, 152, 153, 154, 155, 156, 157, 158, 159, 160, 161, 162, 163, 164, 165, 166, 167, 168, 169, 170, 171, 172, 173, 174, 175, 176, 177, 178, 179, 180, 181, 182, 183, 184, 185, 186, 187, 188, 189, 190, 191, 192, 193, 194, 195, 196, 197, 198, 199, 200, 201, 202, 203, 204, 205, 206, 207, 208, 209, 210, 211, 212, 213, 214, 215, 216, 217, 218, 219, 220, 221, 222, 223, 224, 225, 226, 227, 228, 229, 230, 231, 232],
      "AcquisitionTime": ["094156.120000", "094158.120000", "094200.120000", "094202.120000", "094204.120000", "094206.120000", "094208.120000", "094210.120000", "094212.120000", "094214.120000", "094216.120000", "094218.120000", "094220.120000", "094222.120000", "094224.120000", "094226.120000", "094228.120000", "094230.120000", "094232.120000", "094234.120000", "094236.120000", "094238.120000", "094240.120000", "094242.120000", "094244.120000", "094246.120000", "094248.120000", "094250.120000", "094252.120000", "094254.120000", "094256.120000", "094258.120000", "094300.120000", "094302.120000", "094304.120000", "094306.120000", "094308.120000", "094310.120000", "094312.120000", "094314.120000", "094316.120000", "094318.120000", "094320.120000", "094322.120000", "094324.120000", "094326.120000", "094328.120000", "094330.120000", "094332.120000", "094334.120000", "094336.120000", "094338.120000", "094340.120000", "094342.120000", "094344.120000", "094346.120000", "094348.120000", "094350.120000", "094352.120000", "094354.120000", "094356.120000", "094358.120000", "094400.120000", "094402.120000", "094404.120000", "094406.120000", "094408.120000", "094410.120000", "094412.120000", "094414.120000", "094416.120000", "094418.120000", "094420.120000", "094422.120000", "094424.120000", "094426.120000", "094428.120000", "094430.120000", "094432.120000", "094434.120000", "094436.120000", "094438.120000", "094440.120000", "094442.120000", "094444.120000", "094446.120000", "094448.120000", "094450.120000", "094452.120000", "094454.120000", "094456.120000", "094458.120000", "094500.120000", "094502.120000", "094504.120000", "094506.120000", "094508.120000", "094510.120000", "094512.120000", "094514.120000", "094516.120000", "094518.120000", "094520.120000", "094522.120000", "094524.120000", "094526.120000", "094528.120000", "094530.120000", "094532.120000", "094534.120000", "094536.120000", "094538.120000", "094540.120000", "094542.120000", "094544.120000", "094546.120000", "094548.120000", "094550.120000", "094552.120000", "094554.120000", "094556.120000", "094558.120000", "094600.120000", "094602.120000", "094604.120000", "094606.120000", "094608.120000", "094610.120000", "094612.120000", "094614.120000", "094616.120000", "094618.120000", "094620.120000", "094622.120000", "094624.120000", "094626.120000", "094628.120000", "094630.120000", "094632.120000", "094634.120000", "094636.120000", "094638.120000", "094640.120000", "094642.120000", "094644.120000", "094646.120000", "094648.120000", "094650.120000", "094652.120000", "094654.120000", "094656.120000", "094658.120000", "094700.120000", "094702.120000", "094704.120000", "094706.120000", "094708.120000", "094710.120000", "094712.120000", "094714.120000", "094716.120000", "094718.120000", "094720.120000", "094722.120000", "094724.120000", "094726.120000", "094728.120000", "094730.120000", "094732.120000", "094734.120000", "094736.120000", "094738.120000", "094740.120000", "094742.120000", "094744.120000", "094746.120000", "094748.120000", "094750.120000", "094752.120000", "094754.120000", "094756.120000", "094758.120000", "094800.120000", "094802.120000", "094804.120000", "094806.120000", "094808.120000", "094810.120000", "094812.120000", "094814.120000", "094816.120000", "094818.120000", "094820.120000", "094822.120000", "094824.120000", "094826.120000", "094828.120000", "094830.120000", "094832.120000", "094834.120000", "094836.120000", "094838.120000", "094840.120000", "094842.120000", "094844.120000", "094846.120000", "094848.120000", "094850.120000", "094852.120000", "094854.120000", "094856.120000", "094858.120000", "094900.120000", "094902.120000", "094904.120000", "094906.120000", "094908.120000", "094910.120000", "094912.120000", "094914.120000", "094916.120000", "094918.120000", "094920.120000", "094922.120000", "094924.120000", "094926.120000", "094928.120000", "094930.120000", "094932.120000", "094934.120000", "094936.120000", "094938.120000"],
      "ContentTime": ["094158.471000", "094159.967000", "094201.967000", "094203.967000", "094205.967000", "094207.967000", "094209.967000", "094211.968000", "094213.967000", "094215.966000", "094217.967000", "094219.967000", "094221.968000", "094223.967000", "094225.967000", "094227.967000", "094229.967000", "094231.967000", "094233.966000", "094235.967000", "094237.967000", "094239.967000", "094241.967000", "094243.968000", "094245.967000", "094247.967000", "094249.968000", "094251.967000", "094253.968000", "094255.967000", "094257.967000", "094259.968000", "094301.967000", "094303.967000", "094305.967000", "094307.966000", "094309.967000", "094311.967000", "094313.967000", "094315.967000", "094317.968000", "094319.968000", "094321.968000", "094323.968000", "094325.966000", "094327.967000", "094329.968000", "094331.967000", "094333.968000", "094335.967000", "094337.967000", "094339.967000", "094341.967000", "094343.966000", "094345.967000", "094347.968000", "094349.968000", "094351.967000", "094353.968000", "094355.967000", "094357.967000", "094359.968000", "094401.967000", "094403.967000", "094405.968000", "094407.968000", "094409.968000", "094411.967000", "094413.968000", "094415.967000", "094417.966000", "094419.967000", "094421.967000", "094423.967000", "094425.968000", "094427.967000", "094429.967000", "094431.968000", "094433.968000", "094435.967000", "094437.967000", "094439.967000", "094441.968000", "094443.968000", "094445.968000", "094447.967000", "094449.967000", "094451.968000", "094453.966000", "094455.968000", "094457.967000", "094459.968000", "094501.968000", "094503.967000", "094505.967000", "094507.967000", "094509.968000", "094511.966000", "094513.967000", "094515.967000", "094517.967000", "094519.967000", "094521.967000", "094523.967000", "094525.967000", "094527.966000", "094529.968000", "094531.967000", "094533.968000", "094535.968000", "094537.967000", "094539.968000", "094541.967000", "094543.967000", "094545.966000", "094547.968000", "094549.967000", "094551.968000", "094553.967000", "094555.967000", "094557.967000", "094559.967000", "094601.968000", "094603.967000", "094605.967000", "094607.968000", "094609.967000", "094611.968000", "094613.968000", "094615.968000", "094617.967000", "094619.968000", "094621.966000", "094623.968000", "094625.967000", "094627.967000", "094629.968000", "094631.968000", "094633.967000", "094635.968000", "094637.966000", "094639.968000", "094641.967000", "094643.967000", "094645.967000", "094647.967000", "094649.967000", "094651.967000", "094653.968000", "094655.966000", "094657.967000", "094659.968000", "094701.967000", "094703.967000", "094705.967000", "094707.967000", "094709.968000", "094711.968000", "094713.966000", "094715.968000", "094717.968000", "094719.968000", "094721.968000", "094723.968000", "094725.968000", "094727.968000", "094729.967000", "094731.966000", "094733.967000", "094735.967000", "094737.967000", "094739.967000", "094741.967000", "094743.967000", "094745.967000", "094747.966000", "094749.968000", "094751.968000", "094753.968000", "094755.968000", "094757.968000", "094759.967000", "094801.967000", "094803.967000", "094805.966000", "094807.967000", "094809.968000", "094811.968000", "094813.968000", "094815.968000", "094817.967000", "094819.967000", "094821.968000", "094823.967000", "094825.968000", "094827.968000", "094829.968000", "094831.967000", "094833.968000", "094835.968000", "094837.968000", "094839.968000", "094841.967000", "094843.967000", "094845.968000", "094847.967000", "094849.968000", "094851.968000", "094853.967000", "094855.968000", "094857.967000", "094859.967000", "094901.967000", "094903.968000", "094905.968000", "094907.967000", "094909.968000", "094911.967000", "094913.967000", "094915.967000", "094917.986000", "094919.967000", "094921.967000", "094923.967000", "094925.967000", "094927.967000", "094929.968000", "094931.968000", "094933.967000", "094935.968000", "094937.967000", "094939.517000"],
      "InstanceCreationTime": ["094158.471000", "094159.967000", "094201.967000", "094203.967000", "094205.967000", "094207.967000", "094209.967000", "094211.968000", "094213.967000", "094215.966000", "094217.967000", "094219.967000", "094221.968000", "094223.967000", "094225.967000", "094227.967000", "094229.967000", "094231.967000", "094233.966000", "094235.967000", "094237.967000", "094239.967000", "094241.967000", "094243.968000", "094245.967000", "094247.967000", "094249.968000", "094251.967000", "094253.968000", "094255.967000", "094257.967000", "094259.968000", "094301.967000", "094303.967000", "094305.967000", "094307.966000", "094309.967000", "094311.967000", "094313.967000", "094315.967000", "094317.968000", "094319.968000", "094321.968000", "094323.968000", "094325.966000", "094327.967000", "094329.968000", "094331.967000", "094333.968000", "094335.967000", "094337.967000", "094339.967000", "094341.967000", "094343.966000", "094345.967000", "094347.968000", "094349.968000", "094351.967000", "094353.968000", "094355.967000", "094357.967000", "094359.968000", "094401.967000", "094403.967000", "094405.968000", "094407.968000", "094409.968000", "094411.967000", "094413.968000", "094415.967000", "094417.966000", "094419.967000", "094421.967000", "094423.967000", "094425.968000", "094427.967000", "094429.967000", "094431.968000", "094433.968000", "094435.967000", "094437.967000", "094439.967000", "094441.968000", "094443.968000", "094445.968000", "094447.967000", "094449.967000", "094451.968000", "094453.966000", "094455.968000", "094457.967000", "094459.968000", "094501.968000", "094503.967000", "094505.967000", "094507.967000", "094509.968000", "094511.966000", "094513.967000", "094515.967000", "094517.967000", "094519.967000", "094521.967000", "094523.967000", "094525.967000", "094527.966000", "094529.968000", "094531.967000", "094533.968000", "094535.968000", "094537.967000", "094539.968000", "094541.967000", "094543.967000", "094545.966000", "094547.968000", "094549.967000", "094551.968000", "094553.967000", "094555.967000", "094557.967000", "094559.967000", "094601.968000", "094603.967000", "094605.967000", "094607.968000", "094609.967000", "094611.968000", "094613.968000", "094615.968000", "094617.967000", "094619.968000", "094621.966000", "094623.968000", "094625.967000", "094627.967000", "094629.968000", "094631.968000", "094633.967000", "094635.968000", "094637.966000", "094639.968000", "094641.967000", "094643.967000", "094645.967000", "094647.967000", "094649.967000", "094651.967000", "094653.968000", "094655.966000", "094657.967000", "094659.968000", "094701.967000", "094703.967000", "094705.967000", "094707.967000", "094709.968000", "094711.968000", "094713.966000", "094715.968000", "094717.968000", "094719.968000", "094721.968000", "094723.968000", "094725.968000", "094727.968000", "094729.967000", "094731.966000", "094733.967000", "094735.967000", "094737.967000", "094739.967000", "094741.967000", "094743.967000", "094745.967000", "094747.966000", "094749.968000", "094751.968000", "094753.968000", "094755.968000", "094757.968000", "094759.967000", "094801.967000", "094803.967000", "094805.966000", "094807.967000", "094809.968000", "094811.968000", "094813.968000", "094815.968000", "094817.967000", "094819.967000", "094821.968000", "094823.967000", "094825.968000", "094827.968000", "094829.968000", "094831.967000", "094833.968000", "094835.968000", "094837.968000", "094839.968000", "094841.967000", "094843.967000", "094845.968000", "094847.967000", "094849.968000", "094851.968000", "094853.967000", "094855.968000", "094857.967000", "094859.967000", "094901.967000", "094903.968000", "094905.968000", "094907.967000", "094909.968000", "094911.967000", "094913.967000", "094915.967000", "094917.986000", "094919.967000", "094921.967000", "094923.967000", "094925.967000", "094927.967000", "094929.968000", "094931.968000", "094933.967000", "094935.968000", "094937.967000", "094939.517000"],
      "InstanceNumber": [1, 2, 3, 4, 5, 6, 7, 8, 9, 10, 11, 12, 13, 14, 15, 16, 17, 18, 19, 20, 21, 22, 23, 24, 25, 26, 27, 28, 29, 30, 31, 32, 33, 34, 35, 36, 37, 38, 39, 40, 41, 42, 43, 44, 45, 46, 47, 48, 49, 50, 51, 52, 53, 54, 55, 56, 57, 58, 59, 60, 61, 62, 63, 64, 65, 66, 67, 68, 69, 70, 71, 72, 73, 74, 75, 76, 77, 78, 79, 80, 81, 82, 83, 84, 85, 86, 87, 88, 89, 90, 91, 92, 93, 94, 95, 96, 97, 98, 99, 100, 101, 102, 103, 104, 105, 106, 107, 108, 109, 110, 111, 112, 113, 114, 115, 116, 117, 118, 119, 120, 121, 122, 123, 124, 125, 126, 127, 128, 129, 130, 131, 132, 133, 134, 135, 136, 137, 138, 139, 140, 141, 142, 143, 144, 145, 146, 147, 148, 149, 150, 151, 152, 153, 154, 155, 156, 157, 158, 159, 160, 161, 162, 163, 164, 165, 166, 167, 168, 169, 170, 171, 172, 173, 174, 175, 176, 177, 178, 179, 180, 181, 182, 183, 184, 185, 186, 187, 188, 189, 190, 191, 192, 193, 194, 195, 196, 197, 198, 199, 200, 201, 202, 203, 204, 205, 206, 207, 208, 209, 210, 211, 212, 213, 214, 215, 216, 217, 218, 219, 220, 221, 222, 223, 224, 225, 226, 227, 228, 229, 230, 231, 232],
      "WindowCenter": [852.0, 850.0, 851.0, 851.0, 851.0, 851.0, 851.0, 851.0, 850.0, 850.0, 850.0, 851.0, 850.0, 851.0, 852.0, 852.0, 850.0, 849.0, 847.0, 848.0, 850.0, 851.0, 849.0, 848.0, 847.0, 847.0, 849.0, 849.0, 850.0, 850.0, 850.0, 850.0, 849.0, 849.0, 848.0, 846.0, 844.0, 843.0, 844.0, 845.0, 847.0, 849.0, 848.0, 849.0, 851.0, 852.0, 853.0, 852.0, 852.0, 851.0, 850.0, 852.0, 853.0, 853.0, 852.0, 852.0, 853.0, 854.0, 854.0, 853.0, 853.0, 854.0, 853.0, 853.0, 853.0, 852.0, 850.0, 850.0, 851.0, 851.0, 851.0, 852.0, 853.0, 854.0, 853.0, 847.0, 852.0, 848.0, 853.0, 852.0, 847.0, 843.0, 839.0, 838.0, 839.0, 842.0, 845.0, 848.0, 851.0, 851.0, 852.0, 852.0, 854.0, 855.0, 856.0, 855.0, 856.0, 856.0, 855.0, 855.0, 855.0, 854.0, 854.0, 853.0, 853.0, 850.0, 852.0, 852.0, 852.0, 853.0, 852.0, 852.0, 853.0, 855.0, 855.0, 857.0, 857.0, 856.0, 854.0, 849.0, 846.0, 843.0, 843.0, 841.0, 844.0, 844.0, 845.0, 845.0, 848.0, 851.0, 855.0, 855.0, 854.0, 853.0, 852.0, 852.0, 853.0, 854.0, 853.0, 852.0, 853.0, 854.0, 856.0, 855.0, 853.0, 851.0, 850.0, 850.0, 852.0, 852.0, 851.0, 852.0, 851.0, 850.0, 851.0, 852.0, 852.0, 852.0, 853.0, 854.0, 852.0, 849.0, 846.0, 845.0, 845.0, 847.0, 848.0, 848.0, 847.0, 848.0, 850.0, 850.0, 849.0, 849.0, 849.0, 849.0, 850.0, 850.0, 848.0, 849.0, 849.0, 850.0, 849.0, 850.0, 850.0, 850.0, 850.0, 849.0, 850.0, 850.0, 851.0, 850.0, 849.0, 848.0, 846.0, 846.0, 846.0, 847.0, 849.0, 848.0, 846.0, 844.0, 844.0, 843.0, 846.0, 848.0, 849.0, 849.0, 849.0, 848.0, 850.0, 848.0, 847.0, 850.0, 848.0, 847.0, 846.0, 846.0, 846.0, 848.0, 848.0, 845.0, 852.0, 850.0, 847.0, 843.0, 843.0, 844.0, 845.0, 845.0, 848.0, 852.0],
      "WindowWidth": [1891.0, 1886.0, 1888.0, 1889.0, 1888.0, 1888.0, 1889.0, 1888.0, 1886.0, 1886.0, 1888.0, 1888.0, 1886.0, 1887.0, 1891.0, 1891.0, 1886.0, 1883.0, 1878.0, 1880.0, 1887.0, 1888.0, 1882.0, 1878.0, 1875.0, 1878.0, 1882.0, 1884.0, 1885.0, 1884.0, 1884.0, 1886.0, 1882.0, 1883.0, 1879.0, 1873.0, 1867.0, 1865.0, 1868.0, 1871.0, 1876.0, 1881.0, 1880.0, 1880.0, 1887.0, 1891.0, 1892.0, 1892.0, 1891.0, 1888.0, 1886.0, 1890.0, 1894.0, 1895.0, 1891.0, 1889.0, 1892.0, 1895.0, 1896.0, 1893.0, 1895.0, 1897.0, 1894.0, 1893.0, 1893.0, 1890.0, 1885.0, 1886.0, 1889.0, 1888.0, 1888.0, 1891.0, 1896.0, 1896.0, 1893.0, 1877.0, 1893.0, 1878.0, 1895.0, 1891.0, 1875.0, 1862.0, 1853.0, 1850.0, 1853.0, 1860.0, 1869.0, 1879.0, 1886.0, 1888.0, 1890.0, 1891.0, 1895.0, 1901.0, 1903.0, 1900.0, 1901.0, 1902.0, 1900.0, 1901.0, 1900.0, 1898.0, 1895.0, 1893.0, 1893.0, 1886.0, 1891.0, 1891.0, 1893.0, 1895.0, 1892.0, 1892.0, 1895.0, 1900.0, 1901.0, 1906.0, 1906.0, 1902.0, 1895.0, 1882.0, 1871.0, 1864.0, 1863.0, 1859.0, 1865.0, 1865.0, 1867.0, 1869.0, 1878.0, 1889.0, 1898.0, 1898.0, 1896.0, 1893.0, 1891.0, 1891.0, 1894.0, 1896.0, 1893.0, 1891.0, 1892.0, 1897.0, 1902.0, 1900.0, 1892.0, 1885.0, 1882.0, 1885.0, 1889.0, 1889.0, 1888.0, 1889.0, 1887.0, 1885.0, 1886.0, 1889.0, 1890.0, 1891.0, 1894.0, 1896.0, 1890.0, 1881.0, 1872.0, 1868.0, 1869.0, 1875.0, 1879.0, 1878.0, 1875.0, 1878.0, 1884.0, 1885.0, 1882.0, 1880.0, 1880.0, 1882.0, 1885.0, 1884.0, 1880.0, 1880.0, 1882.0, 1883.0, 1882.0, 1884.0, 1884.0, 1885.0, 1883.0, 1882.0, 1883.0, 1885.0, 1888.0, 1883.0, 1880.0, 1876.0, 1871.0, 1871.0, 1873.0, 1876.0, 1880.0, 1878.0, 1871.0, 1866.0, 1864.0, 1864.0, 1872.0, 1877.0, 1880.0, 1880.0, 1881.0, 1879.0, 1882.0, 1877.0, 1875.0, 1882.0, 1877.0, 1873.0, 1870.0, 1871.0, 1871.0, 1877.0, 1879.0, 1869.0, 1887.0, 1884.0, 1873.0, 1863.0, 1862.0, 1866.0, 1868.0, 1869.0, 1878.0, 1888.0]
    },
    "slices": {}
  }
}