{
  "AcquisitionMatrixPE": 100,
  "AcquisitionNumber": 1,
  "AcquisitionTime": "11:01:55.147500",
  "BandwidthPerPixelPhaseEncode": 18.519,
  "BaseResolution": 100,
  "BodyPartExamined": "BRAIN",
  "ConsistencyInfo": "N4_VE11C_LATEST_20160120",
  "ConversionSoftware": "dcm2niix",
  "ConversionSoftwareVersion": "v1.0.20180622 GCC4.9.2",
  "DerivedVendorReportedEchoSpacing": 0.000539986,
  "DeviceSerialNumber": "166078",
  "DwellTime": 2.1e-06,
  "EchoTime": 0.034,
  "EchoTrainLength": 100,
  "EffectiveEchoSpacing": 0.000539986,
  "FlipAngle": 90,
  "ImageOrientationPatientDICOM": [0.999718, 0.0190503, -0.0141595, -0.0191956, 0.999764, -0.0102026],
  "ImageType": [
    "ORIGINAL",
    "PRIMARY",
    "M",
    "ND",
    "MOSAIC"
],
  "InPlanePhaseEncodingDirectionDICOM": "COL",
  "InstitutionAddress": "Street_StreetNo_Bei_Jing_District_CN_ZIP",
  "InstitutionName": "BeiJing_Normal_University",
  "InstitutionalDepartmentName": "Department",
  "MRAcquisitionType": "2D",
  "MagneticFieldStrength": 3,
  "Manufacturer": "Siemens",
  "ManufacturersModelName": "Prisma",
  "Modality": "MR",
  "MultibandAccelerationFactor": 3,
  "PartialFourier": 1,
  "PatientPosition": "HFS",
  "PercentPhaseFOV": 100,
  "PhaseEncodingDirection": "j-",
  "PhaseEncodingSteps": 100,
  "PhaseResolution": 1,
  "PixelBandwidth": 2380,
  "ProcedureStepDescription": "BNU_P2018_64CH_Liu.Jia",
  "ProtocolName": "bold_100x100_s3_2x2x2_232",
  "PulseSequenceDetails": "%SiemensSeq%_ep2d_bold",
  "ReceiveCoilActiveElements": "HC1-7;NC1",
  "ReceiveCoilName": "HeadNeck_64",
  "ReconMatrixPE": 100,
  "RepetitionTime": 2,
  "SAR": 0.0602672,
  "ScanOptions": "FS",
  "ScanningSequence": "EP",
  "SequenceName": "_epfid2d1_100",
  "SequenceVariant": "SK",
  "SeriesDescription": "bold_100x100_s3_2x2x2_232",
  "SeriesNumber": 10,
  "ShimSetting": [-5479, -11487, -1289, 326, -30, -245, -137, 72],
  "SliceThickness": 2,
  "SliceTiming": [1.485, 0, 0.99, 0.0825, 1.0725, 0.165, 1.155, 0.2475, 1.2375, 0.33, 1.32, 0.4125, 1.4025, 0.5775, 1.5675, 0.66, 1.65, 0.7425, 1.7325, 0.825, 1.815, 0.9075, 1.8975, 0.495, 1.485, 0, 0.99, 0.0825, 1.0725, 0.165, 1.155, 0.2475, 1.2375, 0.33, 1.32, 0.4125, 1.4025, 0.5775, 1.5675, 0.66, 1.65, 0.7425, 1.7325, 0.825, 1.815, 0.9075, 1.8975, 0.495, 1.485, 0, 0.99, 0.0825, 1.0725, 0.165, 1.155, 0.2475, 1.2375, 0.33, 1.32, 0.4125, 1.4025, 0.5775, 1.5675, 0.66, 1.65, 0.7425, 1.7325, 0.825, 1.815, 0.9075, 1.8975, 0.495],
  "SoftwareVersions": "syngo_MR_E11",
  "SpacingBetweenSlices": 2,
  "StationName": "AWP166078",
  "TaskName": "motor",
  "TotalReadoutTime": 0.0534586,
  "TxRefAmp": 218.108,
  "dcmmeta_affine": [
    [-1.9994364976882935, -0.038391273468732834, -0.027923593297600746, 102.86151123046875],
    [-0.038100533187389374, 1.9995273351669312, -0.020943056792020798, -84.71147918701172],
    [-0.028319010511040688, 0.020405204966664314, 1.9996954202651978, -73.04048156738281],
    [0.0, 0.0, 0.0, 1.0]
],
  "dcmmeta_reorient_transform": [
    [0.0, -1.0, 0.0, 99.0],
    [1.0, 0.0, 0.0, 0.0],
    [0.0, 0.0, 1.0, 0.0],
    [0.0, 0.0, 0.0, 1.0]
],
  "dcmmeta_shape": [100, 100, 72, 232],
  "dcmmeta_slice_dim": 2,
  "dcmmeta_version": 0.6,
  "global": {
    "const": {
      "AcquisitionMatrix": [100, 0, 0, 100],
      "AngioFlag": "N",
      "BitsAllocated": 16,
      "BitsStored": 12,
      "BodyPartExamined": "BRAIN",
      "Columns": 900,
      "EchoNumbers": 1,
      "EchoTime": 34.0,
      "EchoTrainLength": 100,
      "FlipAngle": 90.0,
      "HighBit": 11,
      "ImageOrientationPatient": [0.99971825819018, 0.01905026639309, -0.0141595053426, -0.0191956366331, 0.99976368929403, -0.0102026027779],
      "ImagePositionPatient": [-883.47887309038, -928.29289737579, -51.530676177818],
      "ImageType": [
        "ORIGINAL",
        "PRIMARY",
        "M",
        "ND",
        "MOSAIC"
],
      "ImagedNucleus": "1H",
      "ImagingFrequency": 123.257847,
      "InPlanePhaseEncodingDirection": "COL",
      "MRAcquisitionType": "2D",
      "MagneticFieldStrength": 3.0,
      "Manufacturer": "SIEMENS",
      "ManufacturerModelName": "Prisma",
      "Modality": "MR",
      "NumberOfAverages": 1.0,
      "NumberOfPhaseEncodingSteps": 100,
      "PercentPhaseFieldOfView": 100.0,
      "PercentSampling": 100.0,
      "PerformedProcedureStepStartTime": "101315.842000",
      "PhotometricInterpretation": "MONOCHROME2",
      "PixelBandwidth": 2380.0,
      "PixelRepresentation": 0,
      "PixelSpacing": [2.0, 2.0],
      "ProtocolName": "bold_100x100_s3_2x2x2_232",
      "RepetitionTime": 2000.0,
      "Rows": 900,
      "SAR": 0.06026717751994,
      "SamplesPerPixel": 1,
      "ScanOptions": "FS",
      "ScanningSequence": "EP",
      "SequenceName": "*epfid2d1_100",
      "SequenceVariant": "SK",
      "SeriesDescription": "bold_100x100_s3_2x2x2_232",
      "SeriesNumber": 10,
      "SeriesTime": "110158.132000",
      "SliceLocation": -73.578426524756,
      "SliceThickness": 2.0,
      "SmallestImagePixelValue": 0,
      "SoftwareVersions": "syngo MR E11",
      "SpacingBetweenSlices": 1.9999999694725,
      "SpecificCharacterSet": "ISO_IR 100",
      "StudyID": "1",
      "StudyTime": "101315.743000",
      "TransmitCoilName": "Body",
      "VariableFlipAngleFlag": "N",
      "WindowCenterWidthExplanation": "Algo1",
      "dBdt": 0.0},
    "slices": {}
  },
  "time": {
    "samples": {
      "AcquisitionNumber": [1, 2, 3, 4, 5, 6, 7, 8, 9, 10, 11, 12, 13, 14, 15, 16, 17, 18, 19, 20, 21, 22, 23, 24, 25, 26, 27, 28, 29, 30, 31, 32, 33, 34, 35, 36, 37, 38, 39, 40, 41, 42, 43, 44, 45, 46, 47, 48, 49, 50, 51, 52, 53, 54, 55, 56, 57, 58, 59, 60, 61, 62, 63, 64, 65, 66, 67, 68, 69, 70, 71, 72, 73, 74, 75, 76, 77, 78, 79, 80, 81, 82, 83, 84, 85, 86, 87, 88, 89, 90, 91, 92, 93, 94, 95, 96, 97, 98, 99, 100, 101, 102, 103, 104, 105, 106, 107, 108, 109, 110, 111, 112, 113, 114, 115, 116, 117, 118, 119, 120, 121, 122, 123, 124, 125, 126, 127, 128, 129, 130, 131, 132, 133, 134, 135, 136, 137, 138, 139, 140, 141, 142, 143, 144, 145, 146, 147, 148, 149, 150, 151, 152, 153, 154, 155, 156, 157, 158, 159, 160, 161, 162, 163, 164, 165, 166, 167, 168, 169, 170, 171, 172, 173, 174, 175, 176, 177, 178, 179, 180, 181, 182, 183, 184, 185, 186, 187, 188, 189, 190, 191, 192, 193, 194, 195, 196, 197, 198, 199, 200, 201, 202, 203, 204, 205, 206, 207, 208, 209, 210, 211, 212, 213, 214, 215, 216, 217, 218, 219, 220, 221, 222, 223, 224, 225, 226, 227, 228, 229, 230, 231, 232],
      "AcquisitionTime": ["110155.147500", "110157.147500", "110159.147500", "110201.147500", "110203.147500", "110205.147500", "110207.147500", "110209.147500", "110211.147500", "110213.147500", "110215.147500", "110217.147500", "110219.147500", "110221.147500", "110223.147500", "110225.147500", "110227.147500", "110229.147500", "110231.147500", "110233.147500", "110235.147500", "110237.147500", "110239.147500", "110241.147500", "110243.147500", "110245.147500", "110247.147500", "110249.147500", "110251.147500", "110253.147500", "110255.147500", "110257.147500", "110259.147500", "110301.147500", "110303.147500", "110305.147500", "110307.147500", "110309.147500", "110311.147500", "110313.147500", "110315.147500", "110317.147500", "110319.147500", "110321.147500", "110323.147500", "110325.147500", "110327.147500", "110329.147500", "110331.147500", "110333.147500", "110335.147500", "110337.147500", "110339.147500", "110341.147500", "110343.147500", "110345.147500", "110347.147500", "110349.147500", "110351.147500", "110353.147500", "110355.147500", "110357.147500", "110359.147500", "110401.147500", "110403.147500", "110405.147500", "110407.147500", "110409.147500", "110411.147500", "110413.147500", "110415.147500", "110417.147500", "110419.147500", "110421.147500", "110423.147500", "110425.147500", "110427.147500", "110429.147500", "110431.147500", "110433.147500", "110435.147500", "110437.147500", "110439.147500", "110441.147500", "110443.147500", "110445.147500", "110447.147500", "110449.147500", "110451.147500", "110453.147500", "110455.147500", "110457.147500", "110459.147500", "110501.147500", "110503.147500", "110505.147500", "110507.147500", "110509.147500", "110511.147500", "110513.147500", "110515.147500", "110517.147500", "110519.147500", "110521.147500", "110523.147500", "110525.147500", "110527.147500", "110529.147500", "110531.147500", "110533.147500", "110535.147500", "110537.147500", "110539.147500", "110541.147500", "110543.147500", "110545.147500", "110547.147500", "110549.147500", "110551.147500", "110553.147500", "110555.147500", "110557.147500", "110559.147500", "110601.147500", "110603.147500", "110605.147500", "110607.147500", "110609.147500", "110611.147500", "110613.147500", "110615.147500", "110617.147500", "110619.147500", "110621.147500", "110623.147500", "110625.147500", "110627.147500", "110629.147500", "110631.147500", "110633.147500", "110635.147500", "110637.147500", "110639.147500", "110641.147500", "110643.147500", "110645.147500", "110647.147500", "110649.147500", "110651.147500", "110653.147500", "110655.147500", "110657.147500", "110659.147500", "110701.147500", "110703.147500", "110705.147500", "110707.147500", "110709.147500", "110711.147500", "110713.147500", "110715.147500", "110717.147500", "110719.147500", "110721.147500", "110723.147500", "110725.147500", "110727.147500", "110729.147500", "110731.147500", "110733.147500", "110735.147500", "110737.147500", "110739.147500", "110741.147500", "110743.147500", "110745.147500", "110747.147500", "110749.147500", "110751.147500", "110753.147500", "110755.147500", "110757.147500", "110759.147500", "110801.147500", "110803.147500", "110805.147500", "110807.147500", "110809.147500", "110811.147500", "110813.147500", "110815.147500", "110817.147500", "110819.147500", "110821.147500", "110823.147500", "110825.147500", "110827.147500", "110829.147500", "110831.147500", "110833.147500", "110835.147500", "110837.147500", "110839.147500", "110841.147500", "110843.147500", "110845.147500", "110847.147500", "110849.147500", "110851.147500", "110853.147500", "110855.147500", "110857.147500", "110859.147500", "110901.147500", "110903.147500", "110905.147500", "110907.147500", "110909.147500", "110911.147500", "110913.147500", "110915.147500", "110917.147500", "110919.147500", "110921.147500", "110923.147500", "110925.147500", "110927.147500", "110929.147500", "110931.147500", "110933.147500", "110935.147500", "110937.147500"],
      "ContentTime": ["110158.135000", "110159.631000", "110201.632000", "110203.632000", "110205.631000", "110207.631000", "110209.631000", "110211.631000", "110213.631000", "110215.632000", "110217.631000", "110219.632000", "110221.632000", "110223.631000", "110225.632000", "110227.632000", "110229.632000", "110231.631000", "110233.632000", "110235.631000", "110237.632000", "110239.631000", "110241.631000", "110243.631000", "110245.631000", "110247.631000", "110249.632000", "110251.632000", "110253.631000", "110255.632000", "110257.632000", "110259.631000", "110301.632000", "110303.632000", "110305.632000", "110307.631000", "110309.632000", "110311.632000", "110313.632000", "110315.631000", "110317.631000", "110319.631000", "110321.631000", "110323.632000", "110325.631000", "110327.631000", "110329.632000", "110331.632000", "110333.631000", "110335.631000", "110337.631000", "110339.631000", "110341.631000", "110343.631000", "110345.631000", "110347.632000", "110349.632000", "110351.632000", "110353.631000", "110355.631000", "110357.632000", "110359.631000", "110401.631000", "110403.631000", "110405.632000", "110407.632000", "110409.632000", "110411.632000", "110413.632000", "110415.631000", "110417.632000", "110419.631000", "110421.633000", "110423.633000", "110425.632000", "110427.632000", "110429.631000", "110431.631000", "110433.631000", "110435.632000", "110437.631000", "110439.632000", "110441.632000", "110443.632000", "110445.631000", "110447.631000", "110449.631000", "110451.631000", "110453.631000", "110455.631000", "110457.632000", "110459.632000", "110501.631000", "110503.631000", "110505.632000", "110507.631000", "110509.631000", "110511.631000", "110513.633000", "110515.632000", "110517.631000", "110519.631000", "110521.631000", "110523.632000", "110525.631000", "110527.631000", "110529.632000", "110531.632000", "110533.632000", "110535.631000", "110537.631000", "110539.631000", "110541.631000", "110543.631000", "110545.631000", "110547.632000", "110549.632000", "110551.632000", "110553.631000", "110555.632000", "110557.631000", "110559.632000", "110601.631000", "110603.632000", "110605.631000", "110607.632000", "110609.631000", "110611.632000", "110613.631000", "110615.632000", "110617.631000", "110619.632000", "110621.632000", "110623.632000", "110625.633000", "110627.632000", "110629.631000", "110631.631000", "110633.632000", "110635.632000", "110637.632000", "110639.632000", "110641.632000", "110643.632000", "110645.631000", "110647.631000", "110649.631000", "110651.631000", "110653.632000", "110655.631000", "110657.631000", "110659.632000", "110701.633000", "110703.632000", "110705.631000", "110707.632000", "110709.632000", "110711.631000", "110713.632000", "110715.631000", "110717.632000", "110719.632000", "110721.632000", "110723.632000", "110725.632000", "110727.631000", "110729.632000", "110731.631000", "110733.632000", "110735.632000", "110737.631000", "110739.631000", "110741.632000", "110743.631000", "110745.631000", "110747.632000", "110749.631000", "110751.633000", "110753.633000", "110755.632000", "110757.631000", "110759.632000", "110801.631000", "110803.631000", "110805.632000", "110807.632000", "110809.632000", "110811.632000", "110813.632000", "110815.631000", "110817.631000", "110819.631000", "110821.631000", "110823.631000", "110825.631000", "110827.632000", "110829.631000", "110831.631000", "110833.632000", "110835.632000", "110837.632000", "110839.631000", "110841.632000", "110843.632000", "110845.632000", "110847.632000", "110849.631000", "110851.631000", "110853.632000", "110855.631000", "110857.631000", "110859.632000", "110901.632000", "110903.632000", "110905.631000", "110907.632000", "110909.631000", "110911.631000", "110913.632000", "110915.632000", "110917.632000", "110919.632000", "110921.632000", "110923.631000", "110925.631000", "110927.632000", "110929.632000", "110931.631000", "110933.631000", "110935.631000", "110937.633000", "110939.206000"],
      "InstanceCreationTime": ["110158.135000", "110159.631000", "110201.632000", "110203.632000", "110205.631000", "110207.631000", "110209.631000", "110211.631000", "110213.631000", "110215.632000", "110217.631000", "110219.632000", "110221.632000", "110223.631000", "110225.632000", "110227.632000", "110229.632000", "110231.631000", "110233.632000", "110235.631000", "110237.632000", "110239.631000", "110241.631000", "110243.631000", "110245.631000", "110247.631000", "110249.632000", "110251.632000", "110253.631000", "110255.632000", "110257.632000", "110259.631000", "110301.632000", "110303.632000", "110305.632000", "110307.631000", "110309.632000", "110311.632000", "110313.632000", "110315.631000", "110317.631000", "110319.631000", "110321.631000", "110323.632000", "110325.631000", "110327.631000", "110329.632000", "110331.632000", "110333.631000", "110335.631000", "110337.631000", "110339.631000", "110341.631000", "110343.631000", "110345.631000", "110347.632000", "110349.632000", "110351.632000", "110353.631000", "110355.631000", "110357.632000", "110359.631000", "110401.631000", "110403.631000", "110405.632000", "110407.632000", "110409.632000", "110411.632000", "110413.632000", "110415.631000", "110417.632000", "110419.631000", "110421.633000", "110423.633000", "110425.632000", "110427.632000", "110429.631000", "110431.631000", "110433.631000", "110435.632000", "110437.631000", "110439.632000", "110441.632000", "110443.632000", "110445.631000", "110447.631000", "110449.631000", "110451.631000", "110453.631000", "110455.631000", "110457.632000", "110459.632000", "110501.631000", "110503.631000", "110505.632000", "110507.631000", "110509.631000", "110511.631000", "110513.633000", "110515.632000", "110517.631000", "110519.631000", "110521.631000", "110523.632000", "110525.631000", "110527.631000", "110529.632000", "110531.632000", "110533.632000", "110535.631000", "110537.631000", "110539.631000", "110541.631000", "110543.631000", "110545.631000", "110547.632000", "110549.632000", "110551.632000", "110553.631000", "110555.632000", "110557.631000", "110559.632000", "110601.631000", "110603.632000", "110605.631000", "110607.632000", "110609.631000", "110611.632000", "110613.631000", "110615.632000", "110617.631000", "110619.632000", "110621.632000", "110623.632000", "110625.633000", "110627.632000", "110629.631000", "110631.631000", "110633.632000", "110635.632000", "110637.632000", "110639.632000", "110641.632000", "110643.632000", "110645.631000", "110647.631000", "110649.631000", "110651.631000", "110653.632000", "110655.631000", "110657.631000", "110659.632000", "110701.633000", "110703.632000", "110705.631000", "110707.632000", "110709.632000", "110711.631000", "110713.632000", "110715.631000", "110717.632000", "110719.632000", "110721.632000", "110723.632000", "110725.632000", "110727.631000", "110729.632000", "110731.631000", "110733.632000", "110735.632000", "110737.631000", "110739.631000", "110741.632000", "110743.631000", "110745.631000", "110747.632000", "110749.631000", "110751.633000", "110753.633000", "110755.632000", "110757.631000", "110759.632000", "110801.631000", "110803.631000", "110805.632000", "110807.632000", "110809.632000", "110811.632000", "110813.632000", "110815.631000", "110817.631000", "110819.631000", "110821.631000", "110823.631000", "110825.631000", "110827.632000", "110829.631000", "110831.631000", "110833.632000", "110835.632000", "110837.632000", "110839.631000", "110841.632000", "110843.632000", "110845.632000", "110847.632000", "110849.631000", "110851.631000", "110853.632000", "110855.631000", "110857.631000", "110859.632000", "110901.632000", "110903.632000", "110905.631000", "110907.632000", "110909.631000", "110911.631000", "110913.632000", "110915.632000", "110917.632000", "110919.632000", "110921.632000", "110923.631000", "110925.631000", "110927.632000", "110929.632000", "110931.631000", "110933.631000", "110935.631000", "110937.633000", "110939.206000"],
      "InstanceNumber": [1, 2, 3, 4, 5, 6, 7, 8, 9, 10, 11, 12, 13, 14, 15, 16, 17, 18, 19, 20, 21, 22, 23, 24, 25, 26, 27, 28, 29, 30, 31, 32, 33, 34, 35, 36, 37, 38, 39, 40, 41, 42, 43, 44, 45, 46, 47, 48, 49, 50, 51, 52, 53, 54, 55, 56, 57, 58, 59, 60, 61, 62, 63, 64, 65, 66, 67, 68, 69, 70, 71, 72, 73, 74, 75, 76, 77, 78, 79, 80, 81, 82, 83, 84, 85, 86, 87, 88, 89, 90, 91, 92, 93, 94, 95, 96, 97, 98, 99, 100, 101, 102, 103, 104, 105, 106, 107, 108, 109, 110, 111, 112, 113, 114, 115, 116, 117, 118, 119, 120, 121, 122, 123, 124, 125, 126, 127, 128, 129, 130, 131, 132, 133, 134, 135, 136, 137, 138, 139, 140, 141, 142, 143, 144, 145, 146, 147, 148, 149, 150, 151, 152, 153, 154, 155, 156, 157, 158, 159, 160, 161, 162, 163, 164, 165, 166, 167, 168, 169, 170, 171, 172, 173, 174, 175, 176, 177, 178, 179, 180, 181, 182, 183, 184, 185, 186, 187, 188, 189, 190, 191, 192, 193, 194, 195, 196, 197, 198, 199, 200, 201, 202, 203, 204, 205, 206, 207, 208, 209, 210, 211, 212, 213, 214, 215, 216, 217, 218, 219, 220, 221, 222, 223, 224, 225, 226, 227, 228, 229, 230, 231, 232],
      "LargestImagePixelValue": [3336, 3467, 3484, 3427, 3389, 3363, 3344, 3514, 3398, 3306, 3290, 3294, 3316, 3427, 3364, 3342, 3323, 3446, 3349, 3345, 3436, 3343, 3313, 3448, 3311, 3358, 3417, 3458, 3407, 3438, 3325, 3349, 3484, 3392, 3388, 3392, 3374, 3384, 3391, 3418, 3365, 3354, 3381, 3445, 3412, 3379, 3386, 3385, 3381, 3394, 3415, 3419, 3381, 3371, 3374, 3432, 3437, 3414, 3389, 3398, 3391, 3430, 3374, 3418, 3367, 3374, 3369, 3357, 3356, 3364, 3381, 3392, 3427, 3489, 3392, 3350, 3479, 3392, 3431, 3434, 3364, 3391, 3359, 3358, 3387, 3383, 3457, 3424, 3388, 3349, 3352, 3359, 3363, 3384, 3402, 3378, 3351, 3386, 3298, 3469, 3397, 3319, 3340, 3294, 3485, 3415, 3399, 3393, 3394, 3414, 3378, 3378, 3386, 3363, 3333, 3373, 3379, 3439, 3368, 3369, 3390, 3366, 3407, 3384, 3423, 3369, 3388, 3397, 3384, 3375, 3350, 3418, 3360, 3331, 3389, 3361, 3382, 3392, 3361, 3418, 3373, 3357, 3354, 3461, 3422, 3384, 3390, 3421, 3401, 3403, 3391, 3456, 3409, 3395, 3411, 3397, 3373, 3389, 3411, 3409, 3394, 3420, 3382, 3402, 3447, 3394, 3375, 3385, 3364, 3397, 3394, 3415, 3404, 3415, 3370, 3378, 3388, 3399, 3405, 3414, 3414, 3364, 3408, 3418, 3392, 3397, 3411, 3356, 3392, 3399, 3378, 3408, 3427, 3427, 3408, 3421, 3397, 3463, 3400, 3400, 3436, 3387, 3405, 3389, 3372, 3414, 3410, 3410, 3379, 3418, 3393, 3380, 3403, 3388, 3428, 3358, 3378, 3362, 3360, 3368, 3363, 3360, 3333, 3366, 3354, 3384, 3386, 3383, 3369, 3407, 3429, 3414],
      "WindowCenter": [764.0, 764.0, 764.0, 763.0, 763.0, 763.0, 764.0, 764.0, 763.0, 762.0, 764.0, 765.0, 765.0, 766.0, 765.0, 764.0, 764.0, 765.0, 764.0, 763.0, 764.0, 763.0, 763.0, 764.0, 762.0, 763.0, 764.0, 765.0, 764.0, 764.0, 763.0, 763.0, 761.0, 768.0, 763.0, 766.0, 764.0, 765.0, 765.0, 767.0, 765.0, 763.0, 764.0, 766.0, 767.0, 766.0, 766.0, 765.0, 765.0, 766.0, 767.0, 767.0, 766.0, 767.0, 766.0, 766.0, 766.0, 765.0, 765.0, 765.0, 765.0, 764.0, 764.0, 764.0, 764.0, 765.0, 765.0, 765.0, 764.0, 764.0, 764.0, 765.0, 765.0, 766.0, 767.0, 767.0, 768.0, 766.0, 766.0, 765.0, 765.0, 766.0, 766.0, 766.0, 765.0, 765.0, 766.0, 766.0, 765.0, 765.0, 765.0, 765.0, 766.0, 765.0, 765.0, 764.0, 765.0, 766.0, 762.0, 767.0, 765.0, 763.0, 764.0, 764.0, 764.0, 767.0, 765.0, 766.0, 764.0, 766.0, 762.0, 767.0, 764.0, 763.0, 763.0, 764.0, 765.0, 766.0, 765.0, 765.0, 764.0, 767.0, 766.0, 765.0, 765.0, 764.0, 762.0, 766.0, 763.0, 765.0, 765.0, 766.0, 766.0, 765.0, 767.0, 766.0, 765.0, 764.0, 764.0, 765.0, 764.0, 763.0, 763.0, 764.0, 765.0, 765.0, 766.0, 767.0, 766.0, 766.0, 766.0, 765.0, 766.0, 766.0, 767.0, 767.0, 766.0, 766.0, 767.0, 766.0, 765.0, 765.0, 767.0, 767.0, 767.0, 765.0, 764.0, 765.0, 765.0, 766.0, 766.0, 766.0, 765.0, 764.0, 763.0, 763.0, 764.0, 766.0, 766.0, 765.0, 765.0, 764.0, 764.0, 764.0, 764.0, 765.0, 766.0, 766.0, 765.0, 765.0, 765.0, 765.0, 763.0, 768.0, 766.0, 766.0, 765.0, 765.0, 765.0, 765.0, 764.0, 764.0, 765.0, 765.0, 765.0, 765.0, 765.0, 766.0, 766.0, 767.0, 768.0, 768.0, 767.0, 765.0, 765.0, 764.0, 765.0, 767.0, 768.0, 768.0, 766.0, 765.0, 764.0, 764.0, 764.0, 764.0, 764.0, 764.0, 764.0, 764.0, 763.0, 763.0],
      "WindowWidth": [1672.0, 1672.0, 1672.0, 1671.0, 1671.0, 1671.0, 1672.0, 1672.0, 1669.0, 1667.0, 1673.0, 1676.0, 1677.0, 1677.0, 1675.0, 1673.0, 1674.0, 1676.0, 1672.0, 1671.0, 1673.0, 1670.0, 1670.0, 1671.0, 1668.0, 1669.0, 1673.0, 1676.0, 1673.0, 1673.0, 1669.0, 1669.0, 1666.0, 1685.0, 1671.0, 1680.0, 1673.0, 1677.0, 1677.0, 1681.0, 1676.0, 1671.0, 1672.0, 1680.0, 1682.0, 1679.0, 1677.0, 1676.0, 1676.0, 1680.0, 1682.0, 1682.0, 1680.0, 1680.0, 1678.0, 1678.0, 1677.0, 1676.0, 1675.0, 1676.0, 1675.0, 1674.0, 1671.0, 1671.0, 1672.0, 1676.0, 1676.0, 1674.0, 1673.0, 1672.0, 1673.0, 1675.0, 1676.0, 1680.0, 1681.0, 1681.0, 1683.0, 1679.0, 1678.0, 1677.0, 1677.0, 1680.0, 1679.0, 1677.0, 1675.0, 1674.0, 1677.0, 1678.0, 1678.0, 1676.0, 1675.0, 1678.0, 1678.0, 1676.0, 1676.0, 1674.0, 1675.0, 1678.0, 1667.0, 1683.0, 1675.0, 1671.0, 1673.0, 1672.0, 1672.0, 1680.0, 1676.0, 1678.0, 1673.0, 1678.0, 1667.0, 1681.0, 1673.0, 1670.0, 1669.0, 1672.0, 1674.0, 1677.0, 1675.0, 1674.0, 1673.0, 1680.0, 1680.0, 1677.0, 1675.0, 1671.0, 1666.0, 1679.0, 1670.0, 1677.0, 1675.0, 1679.0, 1679.0, 1677.0, 1680.0, 1678.0, 1676.0, 1673.0, 1673.0, 1675.0, 1672.0, 1671.0, 1670.0, 1673.0, 1675.0, 1676.0, 1678.0, 1680.0, 1679.0, 1678.0, 1678.0, 1677.0, 1677.0, 1680.0, 1681.0, 1681.0, 1679.0, 1680.0, 1680.0, 1679.0, 1677.0, 1677.0, 1681.0, 1681.0, 1680.0, 1677.0, 1674.0, 1674.0, 1675.0, 1677.0, 1680.0, 1679.0, 1677.0, 1673.0, 1669.0, 1670.0, 1672.0, 1677.0, 1680.0, 1677.0, 1675.0, 1673.0, 1672.0, 1673.0, 1673.0, 1676.0, 1678.0, 1678.0, 1677.0, 1675.0, 1674.0, 1675.0, 1671.0, 1685.0, 1678.0, 1679.0, 1676.0, 1677.0, 1675.0, 1675.0, 1672.0, 1674.0, 1677.0, 1677.0, 1675.0, 1675.0, 1677.0, 1678.0, 1679.0, 1682.0, 1684.0, 1684.0, 1681.0, 1676.0, 1675.0, 1673.0, 1677.0, 1681.0, 1684.0, 1684.0, 1679.0, 1675.0, 1674.0, 1672.0, 1671.0, 1672.0, 1673.0, 1673.0, 1672.0, 1672.0, 1670.0, 1668.0]
    },
    "slices": {}
  }
}