{
  "AcquisitionMatrixPE": 100,
  "AcquisitionNumber": 1,
  "AcquisitionTime": "10:44:56.607500",
  "BandwidthPerPixelPhaseEncode": 18.519,
  "BaseResolution": 100,
  "BodyPartExamined": "BRAIN",
  "ConsistencyInfo": "N4_VE11C_LATEST_20160120",
  "ConversionSoftware": "dcm2niix",
  "ConversionSoftwareVersion": "v1.0.20180622 GCC4.9.2",
  "DerivedVendorReportedEchoSpacing": 0.000539986,
  "DeviceSerialNumber": "166078",
  "DwellTime": 2.1e-06,
  "EchoTime": 0.034,
  "EchoTrainLength": 100,
  "EffectiveEchoSpacing": 0.000539986,
  "FlipAngle": 90,
  "ImageOrientationPatientDICOM": [0.999718, 0.0190503, -0.0141595, -0.0191956, 0.999764, -0.0102026],
  "ImageType": [
    "ORIGINAL",
    "PRIMARY",
    "M",
    "ND",
    "MOSAIC"
],
  "InPlanePhaseEncodingDirectionDICOM": "COL",
  "InstitutionAddress": "Street_StreetNo_Bei_Jing_District_CN_ZIP",
  "InstitutionName": "BeiJing_Normal_University",
  "InstitutionalDepartmentName": "Department",
  "MRAcquisitionType": "2D",
  "MagneticFieldStrength": 3,
  "Manufacturer": "Siemens",
  "ManufacturersModelName": "Prisma",
  "Modality": "MR",
  "MultibandAccelerationFactor": 3,
  "PartialFourier": 1,
  "PatientPosition": "HFS",
  "PercentPhaseFOV": 100,
  "PhaseEncodingDirection": "j-",
  "PhaseEncodingSteps": 100,
  "PhaseResolution": 1,
  "PixelBandwidth": 2380,
  "ProcedureStepDescription": "BNU_P2018_64CH_Liu.Jia",
  "ProtocolName": "bold_100x100_s3_2x2x2_232",
  "PulseSequenceDetails": "%SiemensSeq%_ep2d_bold",
  "ReceiveCoilActiveElements": "HC1-7;NC1",
  "ReceiveCoilName": "HeadNeck_64",
  "ReconMatrixPE": 100,
  "RepetitionTime": 2,
  "SAR": 0.0602672,
  "ScanOptions": "FS",
  "ScanningSequence": "EP",
  "SequenceName": "_epfid2d1_100",
  "SequenceVariant": "SK",
  "SeriesDescription": "bold_100x100_s3_2x2x2_232",
  "SeriesNumber": 8,
  "ShimSetting": [-5479, -11487, -1289, 326, -30, -245, -137, 72],
  "SliceThickness": 2,
  "SliceTiming": [1.485, 0, 0.99, 0.0825, 1.0725, 0.165, 1.155, 0.2475, 1.2375, 0.33, 1.32, 0.4125, 1.4025, 0.5775, 1.5675, 0.66, 1.65, 0.7425, 1.7325, 0.825, 1.815, 0.9075, 1.8975, 0.495, 1.485, 0, 0.99, 0.0825, 1.0725, 0.165, 1.155, 0.2475, 1.2375, 0.33, 1.32, 0.4125, 1.4025, 0.5775, 1.5675, 0.66, 1.65, 0.7425, 1.7325, 0.825, 1.815, 0.9075, 1.8975, 0.495, 1.485, 0, 0.99, 0.0825, 1.0725, 0.165, 1.155, 0.2475, 1.2375, 0.33, 1.32, 0.4125, 1.4025, 0.5775, 1.5675, 0.66, 1.65, 0.7425, 1.7325, 0.825, 1.815, 0.9075, 1.8975, 0.495],
  "SoftwareVersions": "syngo_MR_E11",
  "SpacingBetweenSlices": 2,
  "StationName": "AWP166078",
  "TaskName": "motor",
  "TotalReadoutTime": 0.0534586,
  "TxRefAmp": 218.108,
  "dcmmeta_affine": [
    [-1.9994364976882935, -0.038391273468732834, -0.027923593297600746, 102.86151123046875],
    [-0.038100533187389374, 1.9995273351669312, -0.020943056792020798, -84.71147918701172],
    [-0.028319010511040688, 0.020405204966664314, 1.9996954202651978, -73.04048156738281],
    [0.0, 0.0, 0.0, 1.0]
],
  "dcmmeta_reorient_transform": [
    [0.0, -1.0, 0.0, 99.0],
    [1.0, 0.0, 0.0, 0.0],
    [0.0, 0.0, 1.0, 0.0],
    [0.0, 0.0, 0.0, 1.0]
],
  "dcmmeta_shape": [100, 100, 72, 232],
  "dcmmeta_slice_dim": 2,
  "dcmmeta_version": 0.6,
  "global": {
    "const": {
      "AcquisitionMatrix": [100, 0, 0, 100],
      "AngioFlag": "N",
      "BitsAllocated": 16,
      "BitsStored": 12,
      "BodyPartExamined": "BRAIN",
      "Columns": 900,
      "EchoNumbers": 1,
      "EchoTime": 34.0,
      "EchoTrainLength": 100,
      "FlipAngle": 90.0,
      "HighBit": 11,
      "ImageOrientationPatient": [0.99971825819018, 0.01905026639309, -0.0141595053426, -0.0191956366331, 0.99976368929403, -0.0102026027779],
      "ImagePositionPatient": [-883.47887309038, -928.29289737579, -51.530676177818],
      "ImageType": [
        "ORIGINAL",
        "PRIMARY",
        "M",
        "ND",
        "MOSAIC"
],
      "ImagedNucleus": "1H",
      "ImagingFrequency": 123.257839,
      "InPlanePhaseEncodingDirection": "COL",
      "MRAcquisitionType": "2D",
      "MagneticFieldStrength": 3.0,
      "Manufacturer": "SIEMENS",
      "ManufacturerModelName": "Prisma",
      "Modality": "MR",
      "NumberOfAverages": 1.0,
      "NumberOfPhaseEncodingSteps": 100,
      "PercentPhaseFieldOfView": 100.0,
      "PercentSampling": 100.0,
      "PerformedProcedureStepStartTime": "101315.842000",
      "PhotometricInterpretation": "MONOCHROME2",
      "PixelBandwidth": 2380.0,
      "PixelRepresentation": 0,
      "PixelSpacing": [2.0, 2.0],
      "ProtocolName": "bold_100x100_s3_2x2x2_232",
      "RepetitionTime": 2000.0,
      "Rows": 900,
      "SAR": 0.06026717751994,
      "SamplesPerPixel": 1,
      "ScanOptions": "FS",
      "ScanningSequence": "EP",
      "SequenceName": "*epfid2d1_100",
      "SequenceVariant": "SK",
      "SeriesDescription": "bold_100x100_s3_2x2x2_232",
      "SeriesNumber": 8,
      "SeriesTime": "104459.633000",
      "SliceLocation": -73.578426524756,
      "SliceThickness": 2.0,
      "SmallestImagePixelValue": 0,
      "SoftwareVersions": "syngo MR E11",
      "SpacingBetweenSlices": 1.9999999694725,
      "SpecificCharacterSet": "ISO_IR 100",
      "StudyID": "1",
      "StudyTime": "101315.743000",
      "TransmitCoilName": "Body",
      "VariableFlipAngleFlag": "N",
      "WindowCenterWidthExplanation": "Algo1",
      "dBdt": 0.0},
    "slices": {}
  },
  "time": {
    "samples": {
      "AcquisitionNumber": [1, 2, 3, 4, 5, 6, 7, 8, 9, 10, 11, 12, 13, 14, 15, 16, 17, 18, 19, 20, 21, 22, 23, 24, 25, 26, 27, 28, 29, 30, 31, 32, 33, 34, 35, 36, 37, 38, 39, 40, 41, 42, 43, 44, 45, 46, 47, 48, 49, 50, 51, 52, 53, 54, 55, 56, 57, 58, 59, 60, 61, 62, 63, 64, 65, 66, 67, 68, 69, 70, 71, 72, 73, 74, 75, 76, 77, 78, 79, 80, 81, 82, 83, 84, 85, 86, 87, 88, 89, 90, 91, 92, 93, 94, 95, 96, 97, 98, 99, 100, 101, 102, 103, 104, 105, 106, 107, 108, 109, 110, 111, 112, 113, 114, 115, 116, 117, 118, 119, 120, 121, 122, 123, 124, 125, 126, 127, 128, 129, 130, 131, 132, 133, 134, 135, 136, 137, 138, 139, 140, 141, 142, 143, 144, 145, 146, 147, 148, 149, 150, 151, 152, 153, 154, 155, 156, 157, 158, 159, 160, 161, 162, 163, 164, 165, 166, 167, 168, 169, 170, 171, 172, 173, 174, 175, 176, 177, 178, 179, 180, 181, 182, 183, 184, 185, 186, 187, 188, 189, 190, 191, 192, 193, 194, 195, 196, 197, 198, 199, 200, 201, 202, 203, 204, 205, 206, 207, 208, 209, 210, 211, 212, 213, 214, 215, 216, 217, 218, 219, 220, 221, 222, 223, 224, 225, 226, 227, 228, 229, 230, 231, 232],
      "AcquisitionTime": ["104456.607500", "104458.607500", "104500.607500", "104502.607500", "104504.607500", "104506.607500", "104508.607500", "104510.607500", "104512.607500", "104514.607500", "104516.607500", "104518.607500", "104520.607500", "104522.607500", "104524.607500", "104526.607500", "104528.607500", "104530.607500", "104532.607500", "104534.607500", "104536.607500", "104538.607500", "104540.607500", "104542.607500", "104544.607500", "104546.607500", "104548.607500", "104550.607500", "104552.607500", "104554.607500", "104556.607500", "104558.607500", "104600.607500", "104602.607500", "104604.607500", "104606.607500", "104608.607500", "104610.607500", "104612.607500", "104614.607500", "104616.607500", "104618.607500", "104620.607500", "104622.607500", "104624.607500", "104626.607500", "104628.607500", "104630.607500", "104632.607500", "104634.607500", "104636.607500", "104638.607500", "104640.607500", "104642.607500", "104644.607500", "104646.607500", "104648.607500", "104650.607500", "104652.607500", "104654.607500", "104656.607500", "104658.607500", "104700.607500", "104702.607500", "104704.607500", "104706.607500", "104708.607500", "104710.607500", "104712.607500", "104714.607500", "104716.607500", "104718.607500", "104720.607500", "104722.607500", "104724.607500", "104726.607500", "104728.607500", "104730.607500", "104732.607500", "104734.607500", "104736.607500", "104738.607500", "104740.607500", "104742.607500", "104744.607500", "104746.607500", "104748.607500", "104750.607500", "104752.607500", "104754.607500", "104756.607500", "104758.607500", "104800.607500", "104802.607500", "104804.607500", "104806.607500", "104808.607500", "104810.607500", "104812.607500", "104814.607500", "104816.607500", "104818.607500", "104820.607500", "104822.607500", "104824.607500", "104826.607500", "104828.607500", "104830.607500", "104832.607500", "104834.607500", "104836.607500", "104838.607500", "104840.607500", "104842.607500", "104844.607500", "104846.607500", "104848.607500", "104850.607500", "104852.607500", "104854.607500", "104856.607500", "104858.607500", "104900.607500", "104902.607500", "104904.607500", "104906.607500", "104908.607500", "104910.607500", "104912.607500", "104914.607500", "104916.607500", "104918.607500", "104920.607500", "104922.607500", "104924.607500", "104926.607500", "104928.607500", "104930.607500", "104932.607500", "104934.607500", "104936.607500", "104938.607500", "104940.607500", "104942.607500", "104944.607500", "104946.607500", "104948.607500", "104950.607500", "104952.607500", "104954.607500", "104956.607500", "104958.607500", "105000.607500", "105002.607500", "105004.607500", "105006.607500", "105008.607500", "105010.607500", "105012.607500", "105014.607500", "105016.607500", "105018.607500", "105020.607500", "105022.607500", "105024.607500", "105026.607500", "105028.607500", "105030.607500", "105032.607500", "105034.607500", "105036.607500", "105038.607500", "105040.607500", "105042.607500", "105044.607500", "105046.607500", "105048.607500", "105050.607500", "105052.607500", "105054.607500", "105056.607500", "105058.607500", "105100.607500", "105102.607500", "105104.607500", "105106.607500", "105108.607500", "105110.607500", "105112.607500", "105114.607500", "105116.607500", "105118.607500", "105120.607500", "105122.607500", "105124.607500", "105126.607500", "105128.607500", "105130.607500", "105132.607500", "105134.607500", "105136.607500", "105138.607500", "105140.607500", "105142.607500", "105144.607500", "105146.607500", "105148.607500", "105150.607500", "105152.607500", "105154.607500", "105156.607500", "105158.607500", "105200.607500", "105202.607500", "105204.607500", "105206.607500", "105208.607500", "105210.607500", "105212.607500", "105214.607500", "105216.607500", "105218.607500", "105220.607500", "105222.607500", "105224.607500", "105226.607500", "105228.607500", "105230.607500", "105232.607500", "105234.607500", "105236.607500", "105238.607500"],
      "ContentTime": ["104459.637000", "104501.132000", "104503.132000", "104505.131000", "104507.132000", "104509.132000", "104511.132000", "104513.133000", "104515.132000", "104517.133000", "104519.133000", "104521.131000", "104523.131000", "104525.132000", "104527.132000", "104529.132000", "104531.132000", "104533.132000", "104535.132000", "104537.132000", "104539.131000", "104541.131000", "104543.132000", "104545.133000", "104547.133000", "104549.133000", "104551.133000", "104553.133000", "104555.132000", "104557.131000", "104559.132000", "104601.133000", "104603.132000", "104605.133000", "104607.132000", "104609.132000", "104611.133000", "104613.133000", "104615.131000", "104617.131000", "104619.132000", "104621.133000", "104623.132000", "104625.132000", "104627.133000", "104629.132000", "104631.131000", "104633.131000", "104635.132000", "104637.133000", "104639.132000", "104641.132000", "104643.132000", "104645.132000", "104647.132000", "104649.131000", "104651.132000", "104653.132000", "104655.132000", "104657.132000", "104659.132000", "104701.133000", "104703.132000", "104705.133000", "104707.132000", "104709.131000", "104711.132000", "104713.132000", "104715.132000", "104717.132000", "104719.133000", "104721.132000", "104723.132000", "104725.131000", "104727.133000", "104729.133000", "104731.133000", "104733.132000", "104735.133000", "104737.132000", "104739.132000", "104741.131000", "104743.131000", "104745.133000", "104747.132000", "104749.132000", "104751.132000", "104753.133000", "104755.133000", "104757.132000", "104759.131000", "104801.131000", "104803.132000", "104805.133000", "104807.133000", "104809.132000", "104811.133000", "104813.132000", "104815.132000", "104817.131000", "104819.132000", "104821.132000", "104823.132000", "104825.133000", "104827.132000", "104829.132000", "104831.132000", "104833.133000", "104835.132000", "104837.133000", "104839.132000", "104841.133000", "104843.132000", "104845.132000", "104847.132000", "104849.133000", "104851.131000", "104853.132000", "104855.132000", "104857.132000", "104859.133000", "104901.132000", "104903.132000", "104905.132000", "104907.132000", "104909.131000", "104911.131000", "104913.132000", "104915.132000", "104917.133000", "104919.133000", "104921.133000", "104923.132000", "104925.132000", "104927.131000", "104929.132000", "104931.133000", "104933.133000", "104935.133000", "104937.132000", "104939.133000", "104941.133000", "104943.133000", "104945.132000", "104947.133000", "104949.132000", "104951.132000", "104953.133000", "104955.132000", "104957.132000", "104959.133000", "105001.132000", "105003.132000", "105005.132000", "105007.132000", "105009.132000", "105011.133000", "105013.132000", "105015.133000", "105017.133000", "105019.131000", "105021.132000", "105023.133000", "105025.133000", "105027.133000", "105029.152000", "105031.132000", "105033.132000", "105035.133000", "105037.131000", "105039.132000", "105041.132000", "105043.133000", "105045.132000", "105047.132000", "105049.132000", "105051.133000", "105053.132000", "105055.132000", "105057.132000", "105059.132000", "105101.132000", "105103.132000", "105105.132000", "105107.132000", "105109.132000", "105111.132000", "105113.132000", "105115.132000", "105117.133000", "105119.132000", "105121.132000", "105123.133000", "105125.133000", "105127.133000", "105129.132000", "105131.132000", "105133.132000", "105135.132000", "105137.132000", "105139.132000", "105141.132000", "105143.133000", "105145.132000", "105147.131000", "105149.132000", "105151.132000", "105153.132000", "105155.132000", "105157.133000", "105159.132000", "105201.133000", "105203.132000", "105205.131000", "105207.132000", "105209.133000", "105211.132000", "105213.132000", "105215.133000", "105217.132000", "105219.133000", "105221.132000", "105223.132000", "105225.133000", "105227.133000", "105229.132000", "105231.132000", "105233.132000", "105235.132000", "105237.133000", "105239.132000", "105240.707000"],
      "InstanceCreationTime": ["104459.637000", "104501.132000", "104503.132000", "104505.131000", "104507.132000", "104509.132000", "104511.132000", "104513.133000", "104515.132000", "104517.133000", "104519.133000", "104521.131000", "104523.131000", "104525.132000", "104527.132000", "104529.132000", "104531.132000", "104533.132000", "104535.132000", "104537.132000", "104539.131000", "104541.131000", "104543.132000", "104545.133000", "104547.133000", "104549.133000", "104551.133000", "104553.133000", "104555.132000", "104557.131000", "104559.132000", "104601.133000", "104603.132000", "104605.133000", "104607.132000", "104609.132000", "104611.133000", "104613.133000", "104615.131000", "104617.131000", "104619.132000", "104621.133000", "104623.132000", "104625.132000", "104627.133000", "104629.132000", "104631.131000", "104633.131000", "104635.132000", "104637.133000", "104639.132000", "104641.132000", "104643.132000", "104645.132000", "104647.132000", "104649.131000", "104651.132000", "104653.132000", "104655.132000", "104657.132000", "104659.132000", "104701.133000", "104703.132000", "104705.133000", "104707.132000", "104709.131000", "104711.132000", "104713.132000", "104715.132000", "104717.132000", "104719.133000", "104721.132000", "104723.132000", "104725.131000", "104727.133000", "104729.133000", "104731.133000", "104733.132000", "104735.133000", "104737.132000", "104739.132000", "104741.131000", "104743.131000", "104745.133000", "104747.132000", "104749.132000", "104751.132000", "104753.133000", "104755.133000", "104757.132000", "104759.131000", "104801.131000", "104803.132000", "104805.133000", "104807.133000", "104809.132000", "104811.133000", "104813.132000", "104815.132000", "104817.131000", "104819.132000", "104821.132000", "104823.132000", "104825.133000", "104827.132000", "104829.132000", "104831.132000", "104833.133000", "104835.132000", "104837.133000", "104839.132000", "104841.133000", "104843.132000", "104845.132000", "104847.132000", "104849.133000", "104851.131000", "104853.132000", "104855.132000", "104857.132000", "104859.133000", "104901.132000", "104903.132000", "104905.132000", "104907.132000", "104909.131000", "104911.131000", "104913.132000", "104915.132000", "104917.133000", "104919.133000", "104921.133000", "104923.132000", "104925.132000", "104927.131000", "104929.132000", "104931.133000", "104933.133000", "104935.133000", "104937.132000", "104939.133000", "104941.133000", "104943.133000", "104945.132000", "104947.133000", "104949.132000", "104951.132000", "104953.133000", "104955.132000", "104957.132000", "104959.133000", "105001.132000", "105003.132000", "105005.132000", "105007.132000", "105009.132000", "105011.133000", "105013.132000", "105015.133000", "105017.133000", "105019.131000", "105021.132000", "105023.133000", "105025.133000", "105027.133000", "105029.152000", "105031.132000", "105033.132000", "105035.133000", "105037.131000", "105039.132000", "105041.132000", "105043.133000", "105045.132000", "105047.132000", "105049.132000", "105051.133000", "105053.132000", "105055.132000", "105057.132000", "105059.132000", "105101.132000", "105103.132000", "105105.132000", "105107.132000", "105109.132000", "105111.132000", "105113.132000", "105115.132000", "105117.133000", "105119.132000", "105121.132000", "105123.133000", "105125.133000", "105127.133000", "105129.132000", "105131.132000", "105133.132000", "105135.132000", "105137.132000", "105139.132000", "105141.132000", "105143.133000", "105145.132000", "105147.131000", "105149.132000", "105151.132000", "105153.132000", "105155.132000", "105157.133000", "105159.132000", "105201.133000", "105203.132000", "105205.131000", "105207.132000", "105209.133000", "105211.132000", "105213.132000", "105215.133000", "105217.132000", "105219.133000", "105221.132000", "105223.132000", "105225.133000", "105227.133000", "105229.132000", "105231.132000", "105233.132000", "105235.132000", "105237.133000", "105239.132000", "105240.707000"],
      "InstanceNumber": [1, 2, 3, 4, 5, 6, 7, 8, 9, 10, 11, 12, 13, 14, 15, 16, 17, 18, 19, 20, 21, 22, 23, 24, 25, 26, 27, 28, 29, 30, 31, 32, 33, 34, 35, 36, 37, 38, 39, 40, 41, 42, 43, 44, 45, 46, 47, 48, 49, 50, 51, 52, 53, 54, 55, 56, 57, 58, 59, 60, 61, 62, 63, 64, 65, 66, 67, 68, 69, 70, 71, 72, 73, 74, 75, 76, 77, 78, 79, 80, 81, 82, 83, 84, 85, 86, 87, 88, 89, 90, 91, 92, 93, 94, 95, 96, 97, 98, 99, 100, 101, 102, 103, 104, 105, 106, 107, 108, 109, 110, 111, 112, 113, 114, 115, 116, 117, 118, 119, 120, 121, 122, 123, 124, 125, 126, 127, 128, 129, 130, 131, 132, 133, 134, 135, 136, 137, 138, 139, 140, 141, 142, 143, 144, 145, 146, 147, 148, 149, 150, 151, 152, 153, 154, 155, 156, 157, 158, 159, 160, 161, 162, 163, 164, 165, 166, 167, 168, 169, 170, 171, 172, 173, 174, 175, 176, 177, 178, 179, 180, 181, 182, 183, 184, 185, 186, 187, 188, 189, 190, 191, 192, 193, 194, 195, 196, 197, 198, 199, 200, 201, 202, 203, 204, 205, 206, 207, 208, 209, 210, 211, 212, 213, 214, 215, 216, 217, 218, 219, 220, 221, 222, 223, 224, 225, 226, 227, 228, 229, 230, 231, 232],
      "LargestImagePixelValue": [3344, 3376, 3312, 3346, 3302, 3292, 3266, 3307, 3472, 3443, 3303, 3398, 3382, 3396, 3388, 3371, 3266, 3271, 3286, 3279, 3283, 3270, 3299, 3277, 3287, 3330, 3264, 3224, 3309, 3401, 3294, 3266, 3288, 3277, 3260, 3326, 3265, 3279, 3282, 3279, 3344, 3264, 3280, 3286, 3292, 3292, 3267, 3273, 3289, 3266, 3270, 3284, 3272, 3282, 3283, 3288, 3321, 3284, 3266, 3232, 3260, 3275, 3251, 3274, 3267, 3336, 3283, 3302, 3349, 3289, 3277, 3279, 3371, 3336, 3295, 3302, 3325, 3276, 3312, 3315, 3324, 3315, 3327, 3355, 3315, 3305, 3322, 3254, 3367, 3344, 3345, 3303, 3270, 3299, 3302, 3304, 3261, 3302, 3388, 3374, 3373, 3357, 3383, 3355, 3360, 3375, 3401, 3346, 3379, 3365, 3339, 3346, 3292, 3345, 3310, 3323, 3346, 3383, 3325, 3334, 3369, 3337, 3314, 3322, 3325, 3306, 3354, 3308, 3311, 3377, 3335, 3369, 3363, 3378, 3370, 3367, 3364, 3355, 3323, 3315, 3311, 3299, 3283, 3310, 3295, 3300, 3341, 3327, 3315, 3315, 3366, 3357, 3372, 3289, 3307, 3312, 3279, 3264, 3270, 3334, 3276, 3361, 3238, 3256, 3319, 3268, 3249, 3293, 3246, 3360, 3263, 3258, 3284, 3275, 3280, 3281, 3267, 3310, 3274, 3265, 3270, 3313, 3263, 3264, 3283, 3320, 3242, 3272, 3261, 3292, 3332, 3298, 3305, 3270, 3268, 3263, 3282, 3247, 3249, 3295, 3263, 3361, 3459, 3304, 3304, 3307, 3486, 3410, 3340, 3339, 3460, 3402, 3361, 3386, 3327, 3373, 3411, 3295, 3320, 3313, 3298, 3311, 3336, 3308, 3320, 3348, 3319, 3327, 3314, 3296, 3301, 3455],
      "WindowCenter": [764.0, 763.0, 762.0, 761.0, 761.0, 761.0, 761.0, 760.0, 759.0, 767.0, 763.0, 763.0, 762.0, 763.0, 765.0, 764.0, 761.0, 762.0, 762.0, 763.0, 765.0, 765.0, 764.0, 763.0, 763.0, 764.0, 765.0, 766.0, 765.0, 765.0, 763.0, 763.0, 763.0, 763.0, 763.0, 763.0, 762.0, 763.0, 763.0, 763.0, 763.0, 762.0, 763.0, 764.0, 764.0, 763.0, 762.0, 762.0, 762.0, 762.0, 764.0, 765.0, 764.0, 763.0, 763.0, 762.0, 763.0, 763.0, 764.0, 763.0, 763.0, 763.0, 763.0, 762.0, 761.0, 761.0, 762.0, 763.0, 763.0, 761.0, 761.0, 759.0, 760.0, 759.0, 761.0, 760.0, 760.0, 760.0, 760.0, 760.0, 760.0, 761.0, 764.0, 765.0, 764.0, 763.0, 765.0, 763.0, 763.0, 762.0, 763.0, 764.0, 765.0, 765.0, 765.0, 765.0, 765.0, 765.0, 766.0, 766.0, 766.0, 765.0, 765.0, 764.0, 764.0, 765.0, 765.0, 765.0, 765.0, 764.0, 763.0, 762.0, 761.0, 763.0, 763.0, 763.0, 763.0, 763.0, 762.0, 763.0, 763.0, 762.0, 762.0, 762.0, 762.0, 761.0, 761.0, 762.0, 763.0, 763.0, 764.0, 763.0, 763.0, 763.0, 763.0, 764.0, 764.0, 765.0, 766.0, 766.0, 765.0, 764.0, 764.0, 764.0, 764.0, 764.0, 764.0, 764.0, 763.0, 762.0, 763.0, 762.0, 763.0, 763.0, 764.0, 765.0, 764.0, 764.0, 763.0, 763.0, 763.0, 764.0, 764.0, 764.0, 764.0, 764.0, 764.0, 764.0, 764.0, 763.0, 762.0, 762.0, 762.0, 763.0, 763.0, 764.0, 765.0, 764.0, 764.0, 763.0, 763.0, 763.0, 763.0, 763.0, 763.0, 763.0, 763.0, 765.0, 764.0, 763.0, 763.0, 763.0, 764.0, 764.0, 763.0, 762.0, 762.0, 763.0, 763.0, 764.0, 764.0, 763.0, 765.0, 763.0, 762.0, 762.0, 764.0, 764.0, 762.0, 762.0, 762.0, 762.0, 762.0, 763.0, 763.0, 764.0, 764.0, 763.0, 764.0, 764.0, 763.0, 764.0, 763.0, 762.0, 761.0, 762.0, 763.0, 764.0, 764.0, 764.0, 764.0, 763.0],
      "WindowWidth": [1674.0, 1670.0, 1666.0, 1665.0, 1665.0, 1665.0, 1663.0, 1662.0, 1660.0, 1682.0, 1671.0, 1672.0, 1669.0, 1672.0, 1675.0, 1673.0, 1665.0, 1666.0, 1669.0, 1672.0, 1676.0, 1677.0, 1674.0, 1671.0, 1671.0, 1673.0, 1677.0, 1678.0, 1677.0, 1675.0, 1671.0, 1669.0, 1669.0, 1669.0, 1671.0, 1672.0, 1669.0, 1670.0, 1671.0, 1670.0, 1670.0, 1669.0, 1671.0, 1673.0, 1672.0, 1670.0, 1667.0, 1667.0, 1666.0, 1667.0, 1672.0, 1675.0, 1673.0, 1670.0, 1670.0, 1669.0, 1670.0, 1671.0, 1672.0, 1670.0, 1670.0, 1670.0, 1669.0, 1668.0, 1663.0, 1665.0, 1668.0, 1670.0, 1670.0, 1665.0, 1664.0, 1660.0, 1661.0, 1658.0, 1663.0, 1662.0, 1661.0, 1660.0, 1661.0, 1662.0, 1661.0, 1665.0, 1673.0, 1675.0, 1673.0, 1671.0, 1676.0, 1671.0, 1670.0, 1667.0, 1670.0, 1673.0, 1676.0, 1676.0, 1675.0, 1675.0, 1675.0, 1678.0, 1680.0, 1679.0, 1680.0, 1676.0, 1675.0, 1674.0, 1674.0, 1676.0, 1677.0, 1677.0, 1676.0, 1673.0, 1671.0, 1667.0, 1665.0, 1669.0, 1670.0, 1670.0, 1669.0, 1669.0, 1668.0, 1671.0, 1671.0, 1668.0, 1668.0, 1667.0, 1668.0, 1666.0, 1665.0, 1666.0, 1668.0, 1672.0, 1672.0, 1671.0, 1669.0, 1670.0, 1671.0, 1672.0, 1673.0, 1675.0, 1677.0, 1678.0, 1676.0, 1674.0, 1673.0, 1673.0, 1674.0, 1673.0, 1672.0, 1674.0, 1671.0, 1668.0, 1671.0, 1668.0, 1669.0, 1670.0, 1673.0, 1677.0, 1674.0, 1673.0, 1671.0, 1671.0, 1670.0, 1673.0, 1672.0, 1672.0, 1673.0, 1673.0, 1673.0, 1674.0, 1672.0, 1670.0, 1665.0, 1666.0, 1667.0, 1668.0, 1670.0, 1673.0, 1674.0, 1674.0, 1672.0, 1671.0, 1669.0, 1669.0, 1669.0, 1669.0, 1669.0, 1668.0, 1670.0, 1674.0, 1673.0, 1670.0, 1668.0, 1669.0, 1673.0, 1670.0, 1668.0, 1668.0, 1668.0, 1668.0, 1670.0, 1673.0, 1672.0, 1669.0, 1675.0, 1669.0, 1667.0, 1666.0, 1673.0, 1671.0, 1667.0, 1666.0, 1668.0, 1666.0, 1667.0, 1668.0, 1670.0, 1672.0, 1671.0, 1669.0, 1672.0, 1673.0, 1670.0, 1671.0, 1671.0, 1666.0, 1664.0, 1665.0, 1668.0, 1672.0, 1673.0, 1672.0, 1671.0, 1670.0]
    },
    "slices": {}
  }
}