{
  "AcquisitionMatrixPE": 100,
  "AcquisitionNumber": 1,
  "AcquisitionTime": "10:24:50.670000",
  "BandwidthPerPixelPhaseEncode": 18.519,
  "BaseResolution": 100,
  "BodyPartExamined": "BRAIN",
  "ConsistencyInfo": "N4_VE11C_LATEST_20160120",
  "ConversionSoftware": "dcm2niix",
  "ConversionSoftwareVersion": "v1.0.20180622 GCC4.9.2",
  "DerivedVendorReportedEchoSpacing": 0.000539986,
  "DeviceSerialNumber": "166078",
  "DwellTime": 2.1e-06,
  "EchoTime": 0.034,
  "EchoTrainLength": 100,
  "EffectiveEchoSpacing": 0.000539986,
  "FlipAngle": 90,
  "ImageOrientationPatientDICOM": [0.999718, 0.0190503, -0.0141595, -0.0191956, 0.999764, -0.0102026],
  "ImageType": [
    "ORIGINAL",
    "PRIMARY",
    "M",
    "ND",
    "MOSAIC"
],
  "InPlanePhaseEncodingDirectionDICOM": "COL",
  "InstitutionAddress": "Street_StreetNo_Bei_Jing_District_CN_ZIP",
  "InstitutionName": "BeiJing_Normal_University",
  "InstitutionalDepartmentName": "Department",
  "MRAcquisitionType": "2D",
  "MagneticFieldStrength": 3,
  "Manufacturer": "Siemens",
  "ManufacturersModelName": "Prisma",
  "Modality": "MR",
  "MultibandAccelerationFactor": 3,
  "PartialFourier": 1,
  "PatientPosition": "HFS",
  "PercentPhaseFOV": 100,
  "PhaseEncodingDirection": "j-",
  "PhaseEncodingSteps": 100,
  "PhaseResolution": 1,
  "PixelBandwidth": 2380,
  "ProcedureStepDescription": "BNU_P2018_64CH_Liu.Jia",
  "ProtocolName": "bold_100x100_s3_2x2x2_232",
  "PulseSequenceDetails": "%SiemensSeq%_ep2d_bold",
  "ReceiveCoilActiveElements": "HC1-7;NC1",
  "ReceiveCoilName": "HeadNeck_64",
  "ReconMatrixPE": 100,
  "RepetitionTime": 2,
  "SAR": 0.0602672,
  "ScanOptions": "FS",
  "ScanningSequence": "EP",
  "SequenceName": "_epfid2d1_100",
  "SequenceVariant": "SK",
  "SeriesDescription": "bold_100x100_s3_2x2x2_232",
  "SeriesNumber": 4,
  "ShimSetting": [-5479, -11487, -1289, 326, -30, -245, -137, 72],
  "SliceThickness": 2,
  "SliceTiming": [1.485, 0, 0.99, 0.0825, 1.0725, 0.165, 1.155, 0.2475, 1.2375, 0.33, 1.32, 0.4125, 1.4025, 0.5775, 1.5675, 0.66, 1.65, 0.7425, 1.7325, 0.825, 1.815, 0.9075, 1.8975, 0.495, 1.485, 0, 0.99, 0.0825, 1.0725, 0.165, 1.155, 0.2475, 1.2375, 0.33, 1.32, 0.4125, 1.4025, 0.5775, 1.5675, 0.66, 1.65, 0.7425, 1.7325, 0.825, 1.815, 0.9075, 1.8975, 0.495, 1.485, 0, 0.99, 0.0825, 1.0725, 0.165, 1.155, 0.2475, 1.2375, 0.33, 1.32, 0.4125, 1.4025, 0.5775, 1.5675, 0.66, 1.65, 0.7425, 1.7325, 0.825, 1.815, 0.9075, 1.8975, 0.495],
  "SoftwareVersions": "syngo_MR_E11",
  "SpacingBetweenSlices": 2,
  "StationName": "AWP166078",
  "TaskName": "motor",
  "TotalReadoutTime": 0.0534586,
  "TxRefAmp": 218.108,
  "dcmmeta_affine": [
    [-1.9994364976882935, -0.038391273468732834, -0.027923593297600746, 102.86151123046875],
    [-0.038100533187389374, 1.9995273351669312, -0.020943056792020798, -84.71147918701172],
    [-0.028319010511040688, 0.020405204966664314, 1.9996954202651978, -73.04048156738281],
    [0.0, 0.0, 0.0, 1.0]
],
  "dcmmeta_reorient_transform": [
    [0.0, -1.0, 0.0, 99.0],
    [1.0, 0.0, 0.0, 0.0],
    [0.0, 0.0, 1.0, 0.0],
    [0.0, 0.0, 0.0, 1.0]
],
  "dcmmeta_shape": [100, 100, 72, 232],
  "dcmmeta_slice_dim": 2,
  "dcmmeta_version": 0.6,
  "global": {
    "const": {
      "AcquisitionMatrix": [100, 0, 0, 100],
      "AngioFlag": "N",
      "BitsAllocated": 16,
      "BitsStored": 12,
      "BodyPartExamined": "BRAIN",
      "Columns": 900,
      "EchoNumbers": 1,
      "EchoTime": 34.0,
      "EchoTrainLength": 100,
      "FlipAngle": 90.0,
      "HighBit": 11,
      "ImageOrientationPatient": [0.99971825819018, 0.01905026639309, -0.0141595053426, -0.0191956366331, 0.99976368929403, -0.0102026027779],
      "ImagePositionPatient": [-883.47887309038, -928.29289737579, -51.530676177818],
      "ImageType": [
        "ORIGINAL",
        "PRIMARY",
        "M",
        "ND",
        "MOSAIC"
],
      "ImagedNucleus": "1H",
      "ImagingFrequency": 123.257836,
      "InPlanePhaseEncodingDirection": "COL",
      "MRAcquisitionType": "2D",
      "MagneticFieldStrength": 3.0,
      "Manufacturer": "SIEMENS",
      "ManufacturerModelName": "Prisma",
      "Modality": "MR",
      "NumberOfAverages": 1.0,
      "NumberOfPhaseEncodingSteps": 100,
      "PercentPhaseFieldOfView": 100.0,
      "PercentSampling": 100.0,
      "PerformedProcedureStepStartTime": "101315.842000",
      "PhotometricInterpretation": "MONOCHROME2",
      "PixelBandwidth": 2380.0,
      "PixelRepresentation": 0,
      "PixelSpacing": [2.0, 2.0],
      "ProtocolName": "bold_100x100_s3_2x2x2_232",
      "RepetitionTime": 2000.0,
      "Rows": 900,
      "SAR": 0.06026717751994,
      "SamplesPerPixel": 1,
      "ScanOptions": "FS",
      "ScanningSequence": "EP",
      "SequenceName": "*epfid2d1_100",
      "SequenceVariant": "SK",
      "SeriesDescription": "bold_100x100_s3_2x2x2_232",
      "SeriesNumber": 4,
      "SeriesTime": "102452.900000",
      "SliceLocation": -73.578426524756,
      "SliceThickness": 2.0,
      "SmallestImagePixelValue": 0,
      "SoftwareVersions": "syngo MR E11",
      "SpacingBetweenSlices": 1.9999999694725,
      "SpecificCharacterSet": "ISO_IR 100",
      "StudyID": "1",
      "StudyTime": "101315.743000",
      "TransmitCoilName": "Body",
      "VariableFlipAngleFlag": "N",
      "WindowCenterWidthExplanation": "Algo1",
      "dBdt": 0.0},
    "slices": {}
  },
  "time": {
    "samples": {
      "AcquisitionNumber": [1, 2, 3, 4, 5, 6, 7, 8, 9, 10, 11, 12, 13, 14, 15, 16, 17, 18, 19, 20, 21, 22, 23, 24, 25, 26, 27, 28, 29, 30, 31, 32, 33, 34, 35, 36, 37, 38, 39, 40, 41, 42, 43, 44, 45, 46, 47, 48, 49, 50, 51, 52, 53, 54, 55, 56, 57, 58, 59, 60, 61, 62, 63, 64, 65, 66, 67, 68, 69, 70, 71, 72, 73, 74, 75, 76, 77, 78, 79, 80, 81, 82, 83, 84, 85, 86, 87, 88, 89, 90, 91, 92, 93, 94, 95, 96, 97, 98, 99, 100, 101, 102, 103, 104, 105, 106, 107, 108, 109, 110, 111, 112, 113, 114, 115, 116, 117, 118, 119, 120, 121, 122, 123, 124, 125, 126, 127, 128, 129, 130, 131, 132, 133, 134, 135, 136, 137, 138, 139, 140, 141, 142, 143, 144, 145, 146, 147, 148, 149, 150, 151, 152, 153, 154, 155, 156, 157, 158, 159, 160, 161, 162, 163, 164, 165, 166, 167, 168, 169, 170, 171, 172, 173, 174, 175, 176, 177, 178, 179, 180, 181, 182, 183, 184, 185, 186, 187, 188, 189, 190, 191, 192, 193, 194, 195, 196, 197, 198, 199, 200, 201, 202, 203, 204, 205, 206, 207, 208, 209, 210, 211, 212, 213, 214, 215, 216, 217, 218, 219, 220, 221, 222, 223, 224, 225, 226, 227, 228, 229, 230, 231, 232],
      "AcquisitionTime": ["102450.670000", "102452.670000", "102454.670000", "102456.670000", "102458.670000", "102500.670000", "102502.670000", "102504.670000", "102506.670000", "102508.670000", "102510.670000", "102512.670000", "102514.670000", "102516.670000", "102518.670000", "102520.670000", "102522.670000", "102524.670000", "102526.670000", "102528.670000", "102530.670000", "102532.670000", "102534.670000", "102536.670000", "102538.670000", "102540.670000", "102542.670000", "102544.670000", "102546.670000", "102548.670000", "102550.670000", "102552.670000", "102554.670000", "102556.670000", "102558.670000", "102600.670000", "102602.670000", "102604.670000", "102606.670000", "102608.670000", "102610.670000", "102612.670000", "102614.670000", "102616.670000", "102618.670000", "102620.670000", "102622.670000", "102624.670000", "102626.670000", "102628.670000", "102630.670000", "102632.670000", "102634.670000", "102636.670000", "102638.670000", "102640.670000", "102642.670000", "102644.670000", "102646.670000", "102648.670000", "102650.670000", "102652.670000", "102654.670000", "102656.670000", "102658.670000", "102700.670000", "102702.670000", "102704.670000", "102706.670000", "102708.670000", "102710.670000", "102712.670000", "102714.670000", "102716.670000", "102718.670000", "102720.670000", "102722.670000", "102724.670000", "102726.670000", "102728.670000", "102730.670000", "102732.670000", "102734.670000", "102736.670000", "102738.670000", "102740.670000", "102742.670000", "102744.670000", "102746.670000", "102748.670000", "102750.670000", "102752.670000", "102754.670000", "102756.670000", "102758.670000", "102800.670000", "102802.670000", "102804.670000", "102806.670000", "102808.670000", "102810.670000", "102812.670000", "102814.670000", "102816.670000", "102818.670000", "102820.670000", "102822.670000", "102824.670000", "102826.670000", "102828.670000", "102830.670000", "102832.670000", "102834.670000", "102836.670000", "102838.670000", "102840.670000", "102842.670000", "102844.670000", "102846.670000", "102848.670000", "102850.670000", "102852.670000", "102854.670000", "102856.670000", "102858.670000", "102900.670000", "102902.670000", "102904.670000", "102906.670000", "102908.670000", "102910.670000", "102912.670000", "102914.670000", "102916.670000", "102918.670000", "102920.670000", "102922.670000", "102924.670000", "102926.670000", "102928.670000", "102930.670000", "102932.670000", "102934.670000", "102936.670000", "102938.670000", "102940.670000", "102942.670000", "102944.670000", "102946.670000", "102948.670000", "102950.670000", "102952.670000", "102954.670000", "102956.670000", "102958.670000", "103000.670000", "103002.670000", "103004.670000", "103006.670000", "103008.670000", "103010.670000", "103012.670000", "103014.670000", "103016.670000", "103018.670000", "103020.670000", "103022.670000", "103024.670000", "103026.670000", "103028.670000", "103030.670000", "103032.670000", "103034.670000", "103036.670000", "103038.670000", "103040.670000", "103042.670000", "103044.670000", "103046.670000", "103048.670000", "103050.670000", "103052.670000", "103054.670000", "103056.670000", "103058.670000", "103100.670000", "103102.670000", "103104.670000", "103106.670000", "103108.670000", "103110.670000", "103112.670000", "103114.670000", "103116.670000", "103118.670000", "103120.670000", "103122.670000", "103124.670000", "103126.670000", "103128.670000", "103130.670000", "103132.670000", "103134.670000", "103136.670000", "103138.670000", "103140.670000", "103142.670000", "103144.670000", "103146.670000", "103148.670000", "103150.670000", "103152.670000", "103154.670000", "103156.670000", "103158.670000", "103200.670000", "103202.670000", "103204.670000", "103206.670000", "103208.670000", "103210.670000", "103212.670000", "103214.670000", "103216.670000", "103218.670000", "103220.670000", "103222.670000", "103224.670000", "103226.670000", "103228.670000", "103230.670000", "103232.670000"],
      "ContentTime": ["102452.903000", "102454.398000", "102456.398000", "102458.399000", "102500.399000", "102502.398000", "102504.398000", "102506.398000", "102508.399000", "102510.398000", "102512.398000", "102514.398000", "102516.399000", "102518.400000", "102520.398000", "102522.398000", "102524.398000", "102526.398000", "102528.398000", "102530.398000", "102532.398000", "102534.398000", "102536.398000", "102538.398000", "102540.399000", "102542.398000", "102544.398000", "102546.398000", "102548.398000", "102550.398000", "102552.398000", "102554.398000", "102556.398000", "102558.399000", "102600.399000", "102602.399000", "102604.398000", "102606.398000", "102608.399000", "102610.398000", "102612.398000", "102614.399000", "102616.398000", "102618.399000", "102620.399000", "102622.398000", "102624.399000", "102626.398000", "102628.399000", "102630.398000", "102632.399000", "102634.398000", "102636.399000", "102638.399000", "102640.398000", "102642.398000", "102644.398000", "102646.398000", "102648.398000", "102650.398000", "102652.398000", "102654.399000", "102656.401000", "102658.398000", "102700.401000", "102702.398000", "102704.399000", "102706.398000", "102708.398000", "102710.398000", "102712.399000", "102714.398000", "102716.398000", "102718.399000", "102720.398000", "102722.398000", "102724.398000", "102726.399000", "102728.399000", "102730.398000", "102732.398000", "102734.400000", "102736.398000", "102738.400000", "102740.399000", "102742.398000", "102744.398000", "102746.399000", "102748.398000", "102750.398000", "102752.399000", "102754.398000", "102756.398000", "102758.398000", "102800.398000", "102802.401000", "102804.398000", "102806.399000", "102808.398000", "102810.398000", "102812.398000", "102814.398000", "102816.398000", "102818.398000", "102820.398000", "102822.398000", "102824.398000", "102826.398000", "102828.398000", "102830.398000", "102832.398000", "102834.398000", "102836.398000", "102838.398000", "102840.398000", "102842.398000", "102844.399000", "102846.399000", "102848.399000", "102850.398000", "102852.401000", "102854.398000", "102856.398000", "102858.398000", "102900.398000", "102902.398000", "102904.399000", "102906.398000", "102908.399000", "102910.398000", "102912.399000", "102914.398000", "102916.399000", "102918.399000", "102920.399000", "102922.398000", "102924.399000", "102926.398000", "102928.398000", "102930.399000", "102932.398000", "102934.399000", "102936.398000", "102938.398000", "102940.398000", "102942.398000", "102944.398000", "102946.398000", "102948.398000", "102950.398000", "102952.399000", "102954.398000", "102956.398000", "102958.400000", "103000.398000", "103002.399000", "103004.399000", "103006.398000", "103008.399000", "103010.398000", "103012.399000", "103014.399000", "103016.398000", "103018.398000", "103020.398000", "103022.398000", "103024.399000", "103026.398000", "103028.398000", "103030.398000", "103032.399000", "103034.399000", "103036.398000", "103038.398000", "103040.399000", "103042.398000", "103044.399000", "103046.399000", "103048.399000", "103050.399000", "103052.398000", "103054.399000", "103056.399000", "103058.398000", "103100.398000", "103102.399000", "103104.398000", "103106.399000", "103108.399000", "103110.398000", "103112.398000", "103114.398000", "103116.398000", "103118.398000", "103120.399000", "103122.399000", "103124.398000", "103126.399000", "103128.398000", "103130.399000", "103132.398000", "103134.399000", "103136.398000", "103138.399000", "103140.399000", "103142.399000", "103144.399000", "103146.398000", "103148.399000", "103150.398000", "103152.399000", "103154.399000", "103156.398000", "103158.398000", "103200.399000", "103202.398000", "103204.398000", "103206.399000", "103208.399000", "103210.399000", "103212.413000", "103214.398000", "103216.399000", "103218.399000", "103220.398000", "103222.398000", "103224.398000", "103226.399000", "103228.398000", "103230.399000", "103232.398000", "103234.010000"],
      "InstanceCreationTime": ["102452.903000", "102454.398000", "102456.398000", "102458.399000", "102500.399000", "102502.398000", "102504.398000", "102506.398000", "102508.399000", "102510.398000", "102512.398000", "102514.398000", "102516.399000", "102518.400000", "102520.398000", "102522.398000", "102524.398000", "102526.398000", "102528.398000", "102530.398000", "102532.398000", "102534.398000", "102536.398000", "102538.398000", "102540.399000", "102542.398000", "102544.398000", "102546.398000", "102548.398000", "102550.398000", "102552.398000", "102554.398000", "102556.398000", "102558.399000", "102600.399000", "102602.399000", "102604.398000", "102606.398000", "102608.399000", "102610.398000", "102612.398000", "102614.399000", "102616.398000", "102618.399000", "102620.399000", "102622.398000", "102624.399000", "102626.398000", "102628.399000", "102630.398000", "102632.399000", "102634.398000", "102636.399000", "102638.399000", "102640.398000", "102642.398000", "102644.398000", "102646.398000", "102648.398000", "102650.398000", "102652.398000", "102654.399000", "102656.401000", "102658.398000", "102700.401000", "102702.398000", "102704.399000", "102706.398000", "102708.398000", "102710.398000", "102712.399000", "102714.398000", "102716.398000", "102718.399000", "102720.398000", "102722.398000", "102724.398000", "102726.399000", "102728.399000", "102730.398000", "102732.398000", "102734.400000", "102736.398000", "102738.400000", "102740.399000", "102742.398000", "102744.398000", "102746.399000", "102748.398000", "102750.398000", "102752.399000", "102754.398000", "102756.398000", "102758.398000", "102800.398000", "102802.401000", "102804.398000", "102806.399000", "102808.398000", "102810.398000", "102812.398000", "102814.398000", "102816.398000", "102818.398000", "102820.398000", "102822.398000", "102824.398000", "102826.398000", "102828.398000", "102830.398000", "102832.398000", "102834.398000", "102836.398000", "102838.398000", "102840.398000", "102842.398000", "102844.399000", "102846.399000", "102848.399000", "102850.398000", "102852.401000", "102854.398000", "102856.398000", "102858.398000", "102900.398000", "102902.398000", "102904.399000", "102906.398000", "102908.399000", "102910.398000", "102912.399000", "102914.398000", "102916.399000", "102918.399000", "102920.399000", "102922.398000", "102924.399000", "102926.398000", "102928.398000", "102930.399000", "102932.398000", "102934.399000", "102936.398000", "102938.398000", "102940.398000", "102942.398000", "102944.398000", "102946.398000", "102948.398000", "102950.398000", "102952.399000", "102954.398000", "102956.398000", "102958.400000", "103000.398000", "103002.399000", "103004.399000", "103006.398000", "103008.399000", "103010.398000", "103012.399000", "103014.399000", "103016.398000", "103018.398000", "103020.398000", "103022.398000", "103024.399000", "103026.398000", "103028.398000", "103030.398000", "103032.399000", "103034.399000", "103036.398000", "103038.398000", "103040.399000", "103042.398000", "103044.399000", "103046.399000", "103048.399000", "103050.399000", "103052.398000", "103054.399000", "103056.399000", "103058.398000", "103100.398000", "103102.399000", "103104.398000", "103106.399000", "103108.399000", "103110.398000", "103112.398000", "103114.398000", "103116.398000", "103118.398000", "103120.399000", "103122.399000", "103124.398000", "103126.399000", "103128.398000", "103130.399000", "103132.398000", "103134.399000", "103136.398000", "103138.399000", "103140.399000", "103142.399000", "103144.399000", "103146.398000", "103148.399000", "103150.398000", "103152.399000", "103154.399000", "103156.398000", "103158.398000", "103200.399000", "103202.398000", "103204.398000", "103206.399000", "103208.399000", "103210.399000", "103212.413000", "103214.398000", "103216.399000", "103218.399000", "103220.398000", "103222.398000", "103224.398000", "103226.399000", "103228.398000", "103230.399000", "103232.398000", "103234.010000"],
      "InstanceNumber": [1, 2, 3, 4, 5, 6, 7, 8, 9, 10, 11, 12, 13, 14, 15, 16, 17, 18, 19, 20, 21, 22, 23, 24, 25, 26, 27, 28, 29, 30, 31, 32, 33, 34, 35, 36, 37, 38, 39, 40, 41, 42, 43, 44, 45, 46, 47, 48, 49, 50, 51, 52, 53, 54, 55, 56, 57, 58, 59, 60, 61, 62, 63, 64, 65, 66, 67, 68, 69, 70, 71, 72, 73, 74, 75, 76, 77, 78, 79, 80, 81, 82, 83, 84, 85, 86, 87, 88, 89, 90, 91, 92, 93, 94, 95, 96, 97, 98, 99, 100, 101, 102, 103, 104, 105, 106, 107, 108, 109, 110, 111, 112, 113, 114, 115, 116, 117, 118, 119, 120, 121, 122, 123, 124, 125, 126, 127, 128, 129, 130, 131, 132, 133, 134, 135, 136, 137, 138, 139, 140, 141, 142, 143, 144, 145, 146, 147, 148, 149, 150, 151, 152, 153, 154, 155, 156, 157, 158, 159, 160, 161, 162, 163, 164, 165, 166, 167, 168, 169, 170, 171, 172, 173, 174, 175, 176, 177, 178, 179, 180, 181, 182, 183, 184, 185, 186, 187, 188, 189, 190, 191, 192, 193, 194, 195, 196, 197, 198, 199, 200, 201, 202, 203, 204, 205, 206, 207, 208, 209, 210, 211, 212, 213, 214, 215, 216, 217, 218, 219, 220, 221, 222, 223, 224, 225, 226, 227, 228, 229, 230, 231, 232],
      "LargestImagePixelValue": [3412, 3362, 3360, 3355, 3350, 3326, 3345, 3339, 3376, 3320, 3315, 3334, 3365, 3293, 3341, 3359, 3366, 3328, 3342, 3330, 3306, 3339, 3323, 3342, 3342, 3342, 3332, 3323, 3388, 3344, 3350, 3345, 3359, 3343, 3330, 3330, 3335, 3314, 3330, 3343, 3325, 3329, 3315, 3311, 3334, 3344, 3357, 3351, 3362, 3254, 3562, 3533, 3400, 3432, 3448, 3454, 3344, 3307, 3361, 3374, 3377, 3315, 3334, 3374, 3390, 3322, 3327, 3299, 3362, 3344, 3353, 3317, 3316, 3324, 3358, 3323, 3321, 3328, 3352, 3338, 3337, 3325, 3330, 3335, 3336, 3344, 3383, 3382, 3360, 3358, 3352, 3372, 3383, 3321, 3320, 3343, 3422, 3319, 3303, 3339, 3335, 3358, 3301, 3338, 3381, 3339, 3338, 3351, 3363, 3354, 3348, 3342, 3386, 3357, 3370, 3378, 3352, 3382, 3355, 3350, 3385, 3390, 3407, 3402, 3360, 3358, 3384, 3372, 3352, 3295, 3305, 3355, 3353, 3354, 3351, 3421, 3318, 3290, 3297, 3338, 3379, 3358, 3369, 3370, 3308, 3342, 3330, 3361, 3373, 3363, 3336, 3333, 3344, 3352, 3318, 3374, 3335, 3332, 3313, 3349, 3343, 3395, 3371, 3336, 3367, 3305, 3410, 3331, 3353, 3343, 3306, 3331, 3352, 3345, 3316, 3332, 3335, 3273, 3305, 3329, 3320, 3352, 3287, 3325, 3343, 3281, 3283, 3261, 3316, 3288, 3290, 3300, 3316, 3316, 3324, 3308, 3356, 3315, 3373, 3363, 3346, 3325, 3342, 3372, 3376, 3340, 3397, 3375, 3373, 3394, 3364, 3310, 3309, 3352, 3369, 3348, 3393, 3413, 3385, 3408, 3394, 3431, 3409, 3419, 3421, 3415, 3427, 3437, 3405, 3399, 3410, 3435],
      "WindowCenter": [764.0, 762.0, 760.0, 759.0, 759.0, 760.0, 761.0, 761.0, 761.0, 761.0, 762.0, 762.0, 762.0, 761.0, 761.0, 762.0, 763.0, 765.0, 765.0, 765.0, 763.0, 763.0, 762.0, 762.0, 762.0, 762.0, 762.0, 762.0, 762.0, 761.0, 761.0, 762.0, 762.0, 762.0, 761.0, 762.0, 764.0, 763.0, 762.0, 762.0, 763.0, 764.0, 765.0, 764.0, 764.0, 764.0, 764.0, 763.0, 757.0, 759.0, 761.0, 766.0, 762.0, 766.0, 766.0, 765.0, 766.0, 765.0, 765.0, 764.0, 763.0, 763.0, 764.0, 764.0, 765.0, 764.0, 764.0, 763.0, 763.0, 763.0, 764.0, 763.0, 762.0, 762.0, 762.0, 763.0, 763.0, 762.0, 762.0, 761.0, 761.0, 762.0, 763.0, 764.0, 763.0, 762.0, 763.0, 763.0, 763.0, 764.0, 764.0, 765.0, 764.0, 764.0, 763.0, 764.0, 764.0, 765.0, 760.0, 764.0, 763.0, 763.0, 762.0, 761.0, 762.0, 761.0, 762.0, 764.0, 763.0, 763.0, 762.0, 762.0, 763.0, 763.0, 763.0, 762.0, 761.0, 761.0, 762.0, 763.0, 763.0, 763.0, 764.0, 764.0, 763.0, 763.0, 762.0, 762.0, 761.0, 759.0, 762.0, 764.0, 762.0, 761.0, 762.0, 763.0, 763.0, 763.0, 764.0, 765.0, 764.0, 763.0, 762.0, 762.0, 762.0, 763.0, 764.0, 764.0, 762.0, 762.0, 761.0, 762.0, 762.0, 764.0, 764.0, 763.0, 762.0, 762.0, 762.0, 763.0, 764.0, 764.0, 764.0, 763.0, 764.0, 762.0, 764.0, 763.0, 762.0, 764.0, 764.0, 763.0, 762.0, 762.0, 763.0, 764.0, 764.0, 764.0, 764.0, 765.0, 764.0, 763.0, 762.0, 762.0, 762.0, 762.0, 763.0, 764.0, 765.0, 764.0, 764.0, 764.0, 764.0, 765.0, 765.0, 765.0, 765.0, 764.0, 765.0, 764.0, 764.0, 764.0, 765.0, 765.0, 765.0, 764.0, 765.0, 765.0, 765.0, 764.0, 765.0, 765.0, 764.0, 765.0, 765.0, 764.0, 766.0, 766.0, 765.0, 764.0, 764.0, 765.0, 765.0, 765.0, 765.0, 765.0, 766.0, 765.0, 764.0, 764.0, 764.0, 766.0],
      "WindowWidth": [1674.0, 1666.0, 1662.0, 1660.0, 1660.0, 1662.0, 1665.0, 1665.0, 1663.0, 1664.0, 1669.0, 1669.0, 1667.0, 1665.0, 1666.0, 1668.0, 1671.0, 1676.0, 1677.0, 1676.0, 1672.0, 1671.0, 1668.0, 1668.0, 1669.0, 1667.0, 1668.0, 1666.0, 1667.0, 1664.0, 1666.0, 1667.0, 1669.0, 1667.0, 1666.0, 1669.0, 1673.0, 1670.0, 1667.0, 1668.0, 1671.0, 1674.0, 1675.0, 1675.0, 1674.0, 1673.0, 1673.0, 1671.0, 1656.0, 1661.0, 1668.0, 1680.0, 1668.0, 1681.0, 1680.0, 1679.0, 1679.0, 1676.0, 1675.0, 1673.0, 1672.0, 1671.0, 1673.0, 1674.0, 1675.0, 1673.0, 1675.0, 1671.0, 1670.0, 1672.0, 1675.0, 1670.0, 1668.0, 1668.0, 1669.0, 1670.0, 1672.0, 1669.0, 1667.0, 1665.0, 1666.0, 1667.0, 1672.0, 1673.0, 1671.0, 1669.0, 1670.0, 1671.0, 1672.0, 1673.0, 1674.0, 1676.0, 1675.0, 1673.0, 1672.0, 1674.0, 1675.0, 1676.0, 1664.0, 1673.0, 1672.0, 1672.0, 1667.0, 1665.0, 1667.0, 1666.0, 1667.0, 1672.0, 1672.0, 1670.0, 1668.0, 1669.0, 1671.0, 1671.0, 1669.0, 1667.0, 1666.0, 1666.0, 1667.0, 1669.0, 1669.0, 1670.0, 1674.0, 1675.0, 1671.0, 1670.0, 1668.0, 1667.0, 1664.0, 1659.0, 1669.0, 1673.0, 1668.0, 1666.0, 1669.0, 1670.0, 1670.0, 1670.0, 1675.0, 1677.0, 1674.0, 1671.0, 1669.0, 1669.0, 1668.0, 1670.0, 1672.0, 1672.0, 1669.0, 1666.0, 1666.0, 1667.0, 1669.0, 1673.0, 1672.0, 1672.0, 1668.0, 1668.0, 1669.0, 1672.0, 1674.0, 1675.0, 1674.0, 1672.0, 1672.0, 1669.0, 1674.0, 1672.0, 1668.0, 1673.0, 1673.0, 1670.0, 1668.0, 1667.0, 1670.0, 1673.0, 1673.0, 1675.0, 1675.0, 1677.0, 1673.0, 1672.0, 1668.0, 1667.0, 1668.0, 1668.0, 1671.0, 1674.0, 1676.0, 1674.0, 1672.0, 1673.0, 1674.0, 1676.0, 1677.0, 1677.0, 1677.0, 1675.0, 1676.0, 1673.0, 1673.0, 1674.0, 1676.0, 1678.0, 1677.0, 1674.0, 1677.0, 1678.0, 1676.0, 1675.0, 1676.0, 1677.0, 1675.0, 1676.0, 1676.0, 1675.0, 1679.0, 1679.0, 1676.0, 1675.0, 1674.0, 1676.0, 1676.0, 1676.0, 1676.0, 1678.0, 1680.0, 1678.0, 1674.0, 1672.0, 1674.0, 1679.0]
    },
    "slices": {}
  }
}