{
  "AcquisitionMatrixPE": 100,
  "AcquisitionNumber": 1,
  "AcquisitionTime": "10:33:17.875000",
  "BandwidthPerPixelPhaseEncode": 18.519,
  "BaseResolution": 100,
  "BodyPartExamined": "BRAIN",
  "ConsistencyInfo": "N4_VE11C_LATEST_20160120",
  "ConversionSoftware": "dcm2niix",
  "ConversionSoftwareVersion": "v1.0.20180622 GCC4.9.2",
  "DerivedVendorReportedEchoSpacing": 0.000539986,
  "DeviceSerialNumber": "166078",
  "DwellTime": 2.1e-06,
  "EchoTime": 0.034,
  "EchoTrainLength": 100,
  "EffectiveEchoSpacing": 0.000539986,
  "FlipAngle": 90,
  "ImageOrientationPatientDICOM": [0.999744, 0.0128455, 0.0186346, -0.00872464, 0.978431, -0.206389],
  "ImageType": [
    "ORIGINAL",
    "PRIMARY",
    "M",
    "ND",
    "MOSAIC"
],
  "InPlanePhaseEncodingDirectionDICOM": "COL",
  "InstitutionAddress": "Street_StreetNo_Bei_Jing_District_CN_ZIP",
  "InstitutionName": "BeiJing_Normal_University",
  "InstitutionalDepartmentName": "Department",
  "MRAcquisitionType": "2D",
  "MagneticFieldStrength": 3,
  "Manufacturer": "Siemens",
  "ManufacturersModelName": "Prisma",
  "Modality": "MR",
  "MultibandAccelerationFactor": 3,
  "PartialFourier": 1,
  "PatientPosition": "HFS",
  "PercentPhaseFOV": 100,
  "PhaseEncodingDirection": "j-",
  "PhaseEncodingSteps": 100,
  "PhaseResolution": 1,
  "PixelBandwidth": 2380,
  "ProcedureStepDescription": "BNU_P2018_64CH_Liu.Jia",
  "ProtocolName": "bold_100x100_s3_2x2x2_232",
  "PulseSequenceDetails": "%SiemensSeq%_ep2d_bold",
  "ReceiveCoilActiveElements": "HC1-7;NC1",
  "ReceiveCoilName": "HeadNeck_64",
  "ReconMatrixPE": 100,
  "RepetitionTime": 2,
  "SAR": 0.0614114,
  "ScanOptions": "FS",
  "ScanningSequence": "EP",
  "SequenceName": "_epfid2d1_100",
  "SequenceVariant": "SK",
  "SeriesDescription": "bold_100x100_s3_2x2x2_232",
  "SeriesNumber": 4,
  "ShimSetting": [-5456, -11497, -1203, 257, -16, -170, -96, 62],
  "SliceThickness": 2,
  "SliceTiming": [1.485, 0, 0.99, 0.0825, 1.0725, 0.165, 1.155, 0.2475, 1.2375, 0.33, 1.32, 0.4125, 1.4025, 0.5775, 1.5675, 0.66, 1.65, 0.7425, 1.7325, 0.825, 1.815, 0.9075, 1.8975, 0.495, 1.485, 0, 0.99, 0.0825, 1.0725, 0.165, 1.155, 0.2475, 1.2375, 0.33, 1.32, 0.4125, 1.4025, 0.5775, 1.5675, 0.66, 1.65, 0.7425, 1.7325, 0.825, 1.815, 0.9075, 1.8975, 0.495, 1.485, 0, 0.99, 0.0825, 1.0725, 0.165, 1.155, 0.2475, 1.2375, 0.33, 1.32, 0.4125, 1.4025, 0.5775, 1.5675, 0.66, 1.65, 0.7425, 1.7325, 0.825, 1.815, 0.9075, 1.8975, 0.495],
  "SoftwareVersions": "syngo_MR_E11",
  "SpacingBetweenSlices": 2,
  "StationName": "AWP166078",
  "TaskName": "motor",
  "TotalReadoutTime": 0.0534586,
  "TxRefAmp": 227.69,
  "dcmmeta_affine": [
    [-1.9994876384735107, -0.01744927652180195, 0.041767727583646774, 101.99972534179688],
    [-0.025690900161862373, 1.956862211227417, -0.4123472273349762, -78.60637664794922],
    [0.037269264459609985, 0.4127781391143799, 1.9565850496292114, -84.70195007324219],
    [0.0, 0.0, 0.0, 1.0]
],
  "dcmmeta_reorient_transform": [
    [0.0, -1.0, 0.0, 99.0],
    [1.0, 0.0, 0.0, 0.0],
    [0.0, 0.0, 1.0, 0.0],
    [0.0, 0.0, 0.0, 1.0]
],
  "dcmmeta_shape": [100, 100, 72, 232],
  "dcmmeta_slice_dim": 2,
  "dcmmeta_version": 0.6,
  "global": {
    "const": {
      "AcquisitionMatrix": [100, 0, 0, 100],
      "AngioFlag": "N",
      "BitsAllocated": 16,
      "BitsStored": 12,
      "BodyPartExamined": "BRAIN",
      "Columns": 900,
      "EchoNumbers": 1,
      "EchoTime": 34.0,
      "EchoTrainLength": 100,
      "FlipAngle": 90.0,
      "HighBit": 11,
      "ImageOrientationPatient": [0.999743839634, 0.01284545019558, 0.01863463235851, -0.0087246386687, 0.9784311090671, -0.2063890633969],
      "ImagePositionPatient": [-893.08761067792, -908.14423414696, 106.36662984125],
      "ImageType": [
        "ORIGINAL",
        "PRIMARY",
        "M",
        "ND",
        "MOSAIC"
],
      "ImagedNucleus": "1H",
      "ImagingFrequency": 123.257816,
      "InPlanePhaseEncodingDirection": "COL",
      "MRAcquisitionType": "2D",
      "MagneticFieldStrength": 3.0,
      "Manufacturer": "SIEMENS",
      "ManufacturerModelName": "Prisma",
      "Modality": "MR",
      "NumberOfAverages": 1.0,
      "NumberOfPhaseEncodingSteps": 100,
      "PercentPhaseFieldOfView": 100.0,
      "PercentSampling": 100.0,
      "PerformedProcedureStepStartTime": "101945.694000",
      "PhotometricInterpretation": "MONOCHROME2",
      "PixelBandwidth": 2380.0,
      "PixelRepresentation": 0,
      "PixelSpacing": [2.0, 2.0],
      "ProtocolName": "bold_100x100_s3_2x2x2_232",
      "RepetitionTime": 2000.0,
      "Rows": 900,
      "SAR": 0.06141136615443,
      "SamplesPerPixel": 1,
      "ScanOptions": "FS",
      "ScanningSequence": "EP",
      "SequenceName": "*epfid2d1_100",
      "SequenceVariant": "SK",
      "SeriesDescription": "bold_100x100_s3_2x2x2_232",
      "SeriesNumber": 4,
      "SeriesTime": "103320.575000",
      "SliceLocation": -64.526577347298,
      "SliceThickness": 2.0,
      "SmallestImagePixelValue": 0,
      "SoftwareVersions": "syngo MR E11",
      "SpacingBetweenSlices": 2.0000000003564,
      "SpecificCharacterSet": "ISO_IR 100",
      "StudyID": "1",
      "StudyTime": "101945.586000",
      "TransmitCoilName": "Body",
      "VariableFlipAngleFlag": "N",
      "WindowCenterWidthExplanation": "Algo1",
      "dBdt": 0.0},
    "slices": {}
  },
  "time": {
    "samples": {
      "AcquisitionNumber": [1, 2, 3, 4, 5, 6, 7, 8, 9, 10, 11, 12, 13, 14, 15, 16, 17, 18, 19, 20, 21, 22, 23, 24, 25, 26, 27, 28, 29, 30, 31, 32, 33, 34, 35, 36, 37, 38, 39, 40, 41, 42, 43, 44, 45, 46, 47, 48, 49, 50, 51, 52, 53, 54, 55, 56, 57, 58, 59, 60, 61, 62, 63, 64, 65, 66, 67, 68, 69, 70, 71, 72, 73, 74, 75, 76, 77, 78, 79, 80, 81, 82, 83, 84, 85, 86, 87, 88, 89, 90, 91, 92, 93, 94, 95, 96, 97, 98, 99, 100, 101, 102, 103, 104, 105, 106, 107, 108, 109, 110, 111, 112, 113, 114, 115, 116, 117, 118, 119, 120, 121, 122, 123, 124, 125, 126, 127, 128, 129, 130, 131, 132, 133, 134, 135, 136, 137, 138, 139, 140, 141, 142, 143, 144, 145, 146, 147, 148, 149, 150, 151, 152, 153, 154, 155, 156, 157, 158, 159, 160, 161, 162, 163, 164, 165, 166, 167, 168, 169, 170, 171, 172, 173, 174, 175, 176, 177, 178, 179, 180, 181, 182, 183, 184, 185, 186, 187, 188, 189, 190, 191, 192, 193, 194, 195, 196, 197, 198, 199, 200, 201, 202, 203, 204, 205, 206, 207, 208, 209, 210, 211, 212, 213, 214, 215, 216, 217, 218, 219, 220, 221, 222, 223, 224, 225, 226, 227, 228, 229, 230, 231, 232],
      "AcquisitionTime": ["103317.875000", "103319.875000", "103321.875000", "103323.875000", "103325.875000", "103327.875000", "103329.875000", "103331.875000", "103333.875000", "103335.875000", "103337.875000", "103339.875000", "103341.875000", "103343.875000", "103345.875000", "103347.875000", "103349.875000", "103351.875000", "103353.875000", "103355.875000", "103357.875000", "103359.875000", "103401.875000", "103403.875000", "103405.875000", "103407.875000", "103409.875000", "103411.875000", "103413.875000", "103415.875000", "103417.875000", "103419.875000", "103421.875000", "103423.875000", "103425.875000", "103427.875000", "103429.875000", "103431.875000", "103433.875000", "103435.875000", "103437.875000", "103439.875000", "103441.875000", "103443.875000", "103445.875000", "103447.875000", "103449.875000", "103451.875000", "103453.875000", "103455.875000", "103457.875000", "103459.875000", "103501.875000", "103503.875000", "103505.875000", "103507.875000", "103509.875000", "103511.875000", "103513.875000", "103515.875000", "103517.875000", "103519.875000", "103521.875000", "103523.875000", "103525.875000", "103527.875000", "103529.875000", "103531.875000", "103533.875000", "103535.875000", "103537.875000", "103539.875000", "103541.875000", "103543.875000", "103545.875000", "103547.875000", "103549.875000", "103551.875000", "103553.875000", "103555.875000", "103557.875000", "103559.875000", "103601.875000", "103603.875000", "103605.875000", "103607.875000", "103609.875000", "103611.875000", "103613.875000", "103615.875000", "103617.875000", "103619.875000", "103621.875000", "103623.875000", "103625.875000", "103627.875000", "103629.875000", "103631.875000", "103633.875000", "103635.875000", "103637.875000", "103639.875000", "103641.875000", "103643.875000", "103645.875000", "103647.875000", "103649.875000", "103651.875000", "103653.875000", "103655.875000", "103657.875000", "103659.875000", "103701.875000", "103703.875000", "103705.875000", "103707.875000", "103709.875000", "103711.875000", "103713.875000", "103715.875000", "103717.875000", "103719.875000", "103721.875000", "103723.875000", "103725.875000", "103727.875000", "103729.875000", "103731.875000", "103733.875000", "103735.875000", "103737.875000", "103739.875000", "103741.875000", "103743.875000", "103745.875000", "103747.875000", "103749.875000", "103751.875000", "103753.875000", "103755.875000", "103757.875000", "103759.875000", "103801.875000", "103803.875000", "103805.875000", "103807.875000", "103809.875000", "103811.875000", "103813.875000", "103815.875000", "103817.875000", "103819.875000", "103821.875000", "103823.875000", "103825.875000", "103827.875000", "103829.875000", "103831.875000", "103833.875000", "103835.875000", "103837.875000", "103839.875000", "103841.875000", "103843.875000", "103845.875000", "103847.875000", "103849.875000", "103851.875000", "103853.875000", "103855.875000", "103857.875000", "103859.875000", "103901.875000", "103903.875000", "103905.875000", "103907.875000", "103909.875000", "103911.875000", "103913.875000", "103915.875000", "103917.875000", "103919.875000", "103921.875000", "103923.875000", "103925.875000", "103927.875000", "103929.875000", "103931.875000", "103933.875000", "103935.875000", "103937.875000", "103939.875000", "103941.875000", "103943.875000", "103945.875000", "103947.875000", "103949.875000", "103951.875000", "103953.875000", "103955.875000", "103957.875000", "103959.875000", "104001.875000", "104003.875000", "104005.875000", "104007.875000", "104009.875000", "104011.875000", "104013.875000", "104015.875000", "104017.875000", "104019.875000", "104021.875000", "104023.875000", "104025.875000", "104027.875000", "104029.875000", "104031.875000", "104033.875000", "104035.875000", "104037.875000", "104039.875000", "104041.875000", "104043.875000", "104045.875000", "104047.875000", "104049.875000", "104051.875000", "104053.875000", "104055.875000", "104057.875000", "104059.875000"],
      "ContentTime": ["103320.579000", "103322.074000", "103324.074000", "103326.074000", "103328.073000", "103330.073000", "103332.073000", "103334.073000", "103336.075000", "103338.074000", "103340.074000", "103342.074000", "103344.075000", "103346.573000", "103348.073000", "103350.073000", "103352.075000", "103354.074000", "103356.074000", "103358.074000", "103400.074000", "103402.073000", "103404.073000", "103406.073000", "103408.073000", "103410.074000", "103412.074000", "103414.075000", "103416.075000", "103418.074000", "103420.073000", "103422.074000", "103424.073000", "103426.074000", "103428.075000", "103430.075000", "103432.074000", "103434.074000", "103436.075000", "103438.073000", "103440.074000", "103442.073000", "103444.073000", "103446.075000", "103448.074000", "103450.074000", "103452.074000", "103454.074000", "103456.073000", "103458.073000", "103500.073000", "103502.075000", "103504.075000", "103506.074000", "103508.074000", "103510.074000", "103512.073000", "103514.073000", "103516.073000", "103518.073000", "103520.074000", "103522.074000", "103524.074000", "103526.074000", "103528.074000", "103530.073000", "103532.073000", "103534.074000", "103536.073000", "103538.074000", "103540.074000", "103542.074000", "103544.074000", "103546.074000", "103548.073000", "103550.073000", "103552.073000", "103554.073000", "103556.074000", "103558.074000", "103600.074000", "103602.075000", "103604.074000", "103606.073000", "103608.073000", "103610.073000", "103612.074000", "103614.074000", "103616.075000", "103618.074000", "103620.075000", "103622.073000", "103624.073000", "103626.073000", "103628.073000", "103630.574000", "103632.074000", "103634.075000", "103636.075000", "103638.075000", "103640.073000", "103642.073000", "103644.074000", "103646.074000", "103648.075000", "103650.075000", "103652.074000", "103654.074000", "103656.074000", "103658.073000", "103700.073000", "103702.074000", "103704.073000", "103706.075000", "103708.074000", "103710.074000", "103712.074000", "103714.075000", "103716.073000", "103718.073000", "103720.073000", "103722.074000", "103724.075000", "103726.075000", "103728.074000", "103730.074000", "103732.073000", "103734.073000", "103736.073000", "103738.073000", "103740.075000", "103742.074000", "103744.075000", "103746.074000", "103748.074000", "103750.074000", "103752.073000", "103754.073000", "103756.073000", "103758.075000", "103800.075000", "103802.075000", "103804.074000", "103806.075000", "103808.074000", "103810.073000", "103812.073000", "103814.073000", "103816.074000", "103818.075000", "103820.075000", "103822.074000", "103824.075000", "103826.073000", "103828.073000", "103830.073000", "103832.074000", "103834.075000", "103836.074000", "103838.074000", "103840.074000", "103842.073000", "103844.073000", "103846.073000", "103848.073000", "103850.075000", "103852.074000", "103854.074000", "103856.074000", "103858.074000", "103900.073000", "103902.073000", "103904.073000", "103906.073000", "103908.074000", "103910.074000", "103912.074000", "103914.074000", "103916.074000", "103918.074000", "103920.073000", "103922.074000", "103924.074000", "103926.074000", "103928.074000", "103930.075000", "103932.074000", "103934.074000", "103936.074000", "103938.073000", "103940.074000", "103942.075000", "103944.074000", "103946.075000", "103948.075000", "103950.075000", "103952.073000", "103954.074000", "103956.073000", "103958.073000", "104000.074000", "104002.075000", "104004.074000", "104006.075000", "104008.074000", "104010.073000", "104012.074000", "104014.074000", "104016.073000", "104018.075000", "104020.074000", "104022.074000", "104024.075000", "104026.074000", "104028.073000", "104030.074000", "104032.073000", "104034.075000", "104036.074000", "104038.074000", "104040.075000", "104042.075000", "104044.074000", "104046.073000", "104048.073000", "104050.073000", "104052.074000", "104054.074000", "104056.074000", "104058.075000", "104100.075000", "104101.928000"],
      "InstanceCreationTime": ["103320.579000", "103322.074000", "103324.074000", "103326.074000", "103328.073000", "103330.073000", "103332.073000", "103334.073000", "103336.075000", "103338.074000", "103340.074000", "103342.074000", "103344.075000", "103346.573000", "103348.073000", "103350.073000", "103352.075000", "103354.074000", "103356.074000", "103358.074000", "103400.074000", "103402.073000", "103404.073000", "103406.073000", "103408.073000", "103410.074000", "103412.074000", "103414.075000", "103416.075000", "103418.074000", "103420.073000", "103422.074000", "103424.073000", "103426.074000", "103428.075000", "103430.075000", "103432.074000", "103434.074000", "103436.075000", "103438.073000", "103440.074000", "103442.073000", "103444.073000", "103446.075000", "103448.074000", "103450.074000", "103452.074000", "103454.074000", "103456.073000", "103458.073000", "103500.073000", "103502.075000", "103504.075000", "103506.074000", "103508.074000", "103510.074000", "103512.073000", "103514.073000", "103516.073000", "103518.073000", "103520.074000", "103522.074000", "103524.074000", "103526.074000", "103528.074000", "103530.073000", "103532.073000", "103534.074000", "103536.073000", "103538.074000", "103540.074000", "103542.074000", "103544.074000", "103546.074000", "103548.073000", "103550.073000", "103552.073000", "103554.073000", "103556.074000", "103558.074000", "103600.074000", "103602.075000", "103604.074000", "103606.073000", "103608.073000", "103610.073000", "103612.074000", "103614.074000", "103616.075000", "103618.074000", "103620.075000", "103622.073000", "103624.073000", "103626.073000", "103628.073000", "103630.574000", "103632.074000", "103634.075000", "103636.075000", "103638.075000", "103640.073000", "103642.073000", "103644.074000", "103646.074000", "103648.075000", "103650.075000", "103652.074000", "103654.074000", "103656.074000", "103658.073000", "103700.073000", "103702.074000", "103704.073000", "103706.075000", "103708.074000", "103710.074000", "103712.074000", "103714.075000", "103716.073000", "103718.073000", "103720.073000", "103722.074000", "103724.075000", "103726.075000", "103728.074000", "103730.074000", "103732.073000", "103734.073000", "103736.073000", "103738.073000", "103740.075000", "103742.074000", "103744.075000", "103746.074000", "103748.074000", "103750.074000", "103752.073000", "103754.073000", "103756.073000", "103758.075000", "103800.075000", "103802.075000", "103804.074000", "103806.075000", "103808.074000", "103810.073000", "103812.073000", "103814.073000", "103816.074000", "103818.075000", "103820.075000", "103822.074000", "103824.075000", "103826.073000", "103828.073000", "103830.073000", "103832.074000", "103834.075000", "103836.074000", "103838.074000", "103840.074000", "103842.073000", "103844.073000", "103846.073000", "103848.073000", "103850.075000", "103852.074000", "103854.074000", "103856.074000", "103858.074000", "103900.073000", "103902.073000", "103904.073000", "103906.073000", "103908.074000", "103910.074000", "103912.074000", "103914.074000", "103916.074000", "103918.074000", "103920.073000", "103922.074000", "103924.074000", "103926.074000", "103928.074000", "103930.075000", "103932.074000", "103934.074000", "103936.074000", "103938.073000", "103940.074000", "103942.075000", "103944.074000", "103946.075000", "103948.075000", "103950.075000", "103952.073000", "103954.074000", "103956.073000", "103958.073000", "104000.074000", "104002.075000", "104004.074000", "104006.075000", "104008.074000", "104010.073000", "104012.074000", "104014.074000", "104016.073000", "104018.075000", "104020.074000", "104022.074000", "104024.075000", "104026.074000", "104028.073000", "104030.074000", "104032.073000", "104034.075000", "104036.074000", "104038.074000", "104040.075000", "104042.075000", "104044.074000", "104046.073000", "104048.073000", "104050.073000", "104052.074000", "104054.074000", "104056.074000", "104058.075000", "104100.075000", "104101.928000"],
      "InstanceNumber": [1, 2, 3, 4, 5, 6, 7, 8, 9, 10, 11, 12, 13, 14, 15, 16, 17, 18, 19, 20, 21, 22, 23, 24, 25, 26, 27, 28, 29, 30, 31, 32, 33, 34, 35, 36, 37, 38, 39, 40, 41, 42, 43, 44, 45, 46, 47, 48, 49, 50, 51, 52, 53, 54, 55, 56, 57, 58, 59, 60, 61, 62, 63, 64, 65, 66, 67, 68, 69, 70, 71, 72, 73, 74, 75, 76, 77, 78, 79, 80, 81, 82, 83, 84, 85, 86, 87, 88, 89, 90, 91, 92, 93, 94, 95, 96, 97, 98, 99, 100, 101, 102, 103, 104, 105, 106, 107, 108, 109, 110, 111, 112, 113, 114, 115, 116, 117, 118, 119, 120, 121, 122, 123, 124, 125, 126, 127, 128, 129, 130, 131, 132, 133, 134, 135, 136, 137, 138, 139, 140, 141, 142, 143, 144, 145, 146, 147, 148, 149, 150, 151, 152, 153, 154, 155, 156, 157, 158, 159, 160, 161, 162, 163, 164, 165, 166, 167, 168, 169, 170, 171, 172, 173, 174, 175, 176, 177, 178, 179, 180, 181, 182, 183, 184, 185, 186, 187, 188, 189, 190, 191, 192, 193, 194, 195, 196, 197, 198, 199, 200, 201, 202, 203, 204, 205, 206, 207, 208, 209, 210, 211, 212, 213, 214, 215, 216, 217, 218, 219, 220, 221, 222, 223, 224, 225, 226, 227, 228, 229, 230, 231, 232],
      "LargestImagePixelValue": [4095, 4095, 4095, 4095, 4095, 4095, 4095, 4095, 4095, 4095, 4095, 4095, 4095, 4095, 4095, 4095, 4095, 4095, 4095, 4095, 4095, 4095, 4095, 4095, 4095, 4095, 4095, 4095, 4095, 4095, 4095, 4095, 4095, 4095, 4095, 4095, 4095, 4095, 4095, 4095, 4095, 4095, 4095, 4095, 4095, 4095, 4095, 4095, 4095, 4095, 4095, 4095, 4095, 4095, 4053, 4095, 4095, 4095, 4095, 4095, 4095, 4095, 4095, 4095, 4095, 4095, 4095, 4095, 4095, 4095, 4095, 4095, 4095, 4095, 4095, 4095, 4095, 4095, 4095, 4095, 4095, 4095, 4095, 4095, 4095, 4095, 4095, 4095, 4095, 4095, 4095, 4095, 4095, 4095, 4095, 4095, 4095, 4095, 4095, 4095, 4095, 4095, 4095, 4095, 4095, 4095, 4095, 4095, 4095, 4095, 4095, 4095, 4095, 4095, 4095, 4095, 4095, 4095, 4095, 4095, 4095, 4095, 4095, 4095, 4095, 4095, 4095, 4095, 4095, 4095, 4095, 4095, 4095, 4095, 4095, 4095, 4095, 4095, 4095, 4095, 4095, 4095, 4095, 4095, 4095, 4095, 4095, 4095, 4095, 4095, 4095, 4095, 4095, 4095, 4095, 4095, 4095, 4095, 4095, 4095, 4095, 4095, 4095, 4095, 4095, 4095, 4095, 4095, 4095, 4095, 4095, 4095, 4095, 4095, 4095, 4095, 4095, 4095, 4095, 4095, 4095, 4095, 4095, 4095, 4095, 4095, 4095, 4095, 4095, 4095, 4095, 4095, 4095, 4095, 4095, 4095, 4095, 4095, 4095, 4095, 4095, 4095, 4095, 4095, 4095, 4095, 4095, 4095, 4095, 4095, 4095, 4095, 4095, 4095, 4095, 4095, 4095, 4095, 4095, 4095, 4095, 4095, 4095, 4095, 4095, 4095, 4095, 4095, 4095, 4095, 4095, 4095],
      "WindowCenter": [859.0, 857.0, 856.0, 856.0, 858.0, 858.0, 857.0, 857.0, 857.0, 857.0, 859.0, 858.0, 858.0, 858.0, 858.0, 858.0, 858.0, 859.0, 860.0, 860.0, 860.0, 861.0, 862.0, 862.0, 862.0, 862.0, 862.0, 861.0, 859.0, 858.0, 858.0, 857.0, 857.0, 857.0, 858.0, 858.0, 858.0, 857.0, 857.0, 858.0, 858.0, 859.0, 859.0, 859.0, 860.0, 860.0, 860.0, 860.0, 861.0, 862.0, 860.0, 854.0, 858.0, 858.0, 857.0, 859.0, 859.0, 860.0, 862.0, 862.0, 862.0, 863.0, 863.0, 863.0, 863.0, 862.0, 863.0, 863.0, 863.0, 863.0, 862.0, 862.0, 862.0, 862.0, 862.0, 861.0, 861.0, 860.0, 862.0, 862.0, 861.0, 862.0, 862.0, 862.0, 862.0, 862.0, 863.0, 864.0, 864.0, 865.0, 865.0, 863.0, 852.0, 861.0, 859.0, 863.0, 862.0, 862.0, 863.0, 863.0, 863.0, 863.0, 863.0, 862.0, 862.0, 863.0, 864.0, 863.0, 864.0, 864.0, 865.0, 865.0, 866.0, 867.0, 867.0, 867.0, 867.0, 867.0, 867.0, 867.0, 867.0, 868.0, 868.0, 867.0, 866.0, 864.0, 863.0, 864.0, 865.0, 866.0, 866.0, 866.0, 866.0, 865.0, 865.0, 864.0, 865.0, 865.0, 861.0, 862.0, 856.0, 862.0, 862.0, 859.0, 862.0, 862.0, 862.0, 863.0, 863.0, 864.0, 865.0, 866.0, 866.0, 865.0, 864.0, 865.0, 865.0, 865.0, 865.0, 864.0, 863.0, 864.0, 864.0, 864.0, 864.0, 865.0, 865.0, 864.0, 864.0, 864.0, 864.0, 863.0, 863.0, 864.0, 864.0, 865.0, 865.0, 864.0, 865.0, 861.0, 861.0, 860.0, 860.0, 857.0, 865.0, 866.0, 867.0, 867.0, 866.0, 867.0, 866.0, 867.0, 866.0, 865.0, 867.0, 868.0, 868.0, 867.0, 866.0, 866.0, 867.0, 867.0, 866.0, 866.0, 865.0, 865.0, 865.0, 865.0, 865.0, 866.0, 865.0, 865.0, 865.0, 865.0, 866.0, 866.0, 867.0, 867.0, 868.0, 869.0, 869.0, 869.0, 869.0, 868.0, 867.0, 868.0, 868.0, 868.0, 867.0, 866.0, 865.0, 865.0],
      "WindowWidth": [1869.0, 1864.0, 1861.0, 1862.0, 1866.0, 1865.0, 1863.0, 1863.0, 1863.0, 1864.0, 1867.0, 1867.0, 1866.0, 1866.0, 1864.0, 1867.0, 1867.0, 1869.0, 1871.0, 1870.0, 1873.0, 1875.0, 1877.0, 1877.0, 1877.0, 1877.0, 1878.0, 1874.0, 1870.0, 1867.0, 1865.0, 1865.0, 1863.0, 1864.0, 1867.0, 1868.0, 1866.0, 1864.0, 1862.0, 1866.0, 1866.0, 1868.0, 1869.0, 1867.0, 1870.0, 1870.0, 1871.0, 1872.0, 1872.0, 1875.0, 1872.0, 1854.0, 1867.0, 1866.0, 1864.0, 1869.0, 1868.0, 1872.0, 1877.0, 1877.0, 1878.0, 1878.0, 1879.0, 1879.0, 1879.0, 1877.0, 1880.0, 1881.0, 1879.0, 1879.0, 1877.0, 1877.0, 1877.0, 1877.0, 1876.0, 1874.0, 1873.0, 1872.0, 1875.0, 1876.0, 1873.0, 1876.0, 1878.0, 1877.0, 1877.0, 1879.0, 1879.0, 1881.0, 1882.0, 1885.0, 1886.0, 1880.0, 1851.0, 1875.0, 1868.0, 1880.0, 1877.0, 1875.0, 1879.0, 1880.0, 1880.0, 1878.0, 1878.0, 1877.0, 1876.0, 1879.0, 1881.0, 1880.0, 1881.0, 1882.0, 1884.0, 1886.0, 1887.0, 1890.0, 1890.0, 1889.0, 1889.0, 1889.0, 1891.0, 1892.0, 1891.0, 1892.0, 1893.0, 1890.0, 1886.0, 1883.0, 1880.0, 1881.0, 1884.0, 1886.0, 1888.0, 1887.0, 1888.0, 1886.0, 1884.0, 1883.0, 1884.0, 1885.0, 1876.0, 1878.0, 1862.0, 1877.0, 1878.0, 1870.0, 1877.0, 1877.0, 1877.0, 1879.0, 1881.0, 1884.0, 1886.0, 1888.0, 1888.0, 1885.0, 1883.0, 1885.0, 1885.0, 1885.0, 1884.0, 1882.0, 1880.0, 1881.0, 1883.0, 1882.0, 1883.0, 1884.0, 1884.0, 1883.0, 1883.0, 1882.0, 1882.0, 1880.0, 1880.0, 1881.0, 1882.0, 1884.0, 1884.0, 1881.0, 1885.0, 1874.0, 1875.0, 1871.0, 1870.0, 1862.0, 1883.0, 1888.0, 1891.0, 1890.0, 1887.0, 1889.0, 1888.0, 1889.0, 1887.0, 1886.0, 1890.0, 1893.0, 1892.0, 1889.0, 1887.0, 1889.0, 1891.0, 1890.0, 1887.0, 1886.0, 1885.0, 1885.0, 1884.0, 1883.0, 1884.0, 1887.0, 1885.0, 1886.0, 1885.0, 1885.0, 1886.0, 1888.0, 1890.0, 1891.0, 1894.0, 1896.0, 1895.0, 1895.0, 1896.0, 1893.0, 1891.0, 1892.0, 1893.0, 1891.0, 1890.0, 1888.0, 1885.0, 1885.0]
    },
    "slices": {}
  }
}