{
  "AcquisitionMatrixPE": 100,
  "AcquisitionNumber": 1,
  "AcquisitionTime": "10:24:32.340000",
  "BandwidthPerPixelPhaseEncode": 18.519,
  "BaseResolution": 100,
  "BodyPartExamined": "BRAIN",
  "ConsistencyInfo": "N4_VE11C_LATEST_20160120",
  "ConversionSoftware": "dcm2niix",
  "ConversionSoftwareVersion": "v1.0.20180622 GCC4.9.2",
  "DerivedVendorReportedEchoSpacing": 0.000539986,
  "DeviceSerialNumber": "166078",
  "DwellTime": 2.1e-06,
  "EchoTime": 0.034,
  "EchoTrainLength": 100,
  "EffectiveEchoSpacing": 0.000539986,
  "FlipAngle": 90,
  "ImageOrientationPatientDICOM": [0.999744, 0.0128455, 0.0186346, -0.00872464, 0.978431, -0.206389],
  "ImageType": [
    "ORIGINAL",
    "PRIMARY",
    "M",
    "ND",
    "MOSAIC"
],
  "InPlanePhaseEncodingDirectionDICOM": "COL",
  "InstitutionAddress": "Street_StreetNo_Bei_Jing_District_CN_ZIP",
  "InstitutionName": "BeiJing_Normal_University",
  "InstitutionalDepartmentName": "Department",
  "MRAcquisitionType": "2D",
  "MagneticFieldStrength": 3,
  "Manufacturer": "Siemens",
  "ManufacturersModelName": "Prisma",
  "Modality": "MR",
  "MultibandAccelerationFactor": 3,
  "PartialFourier": 1,
  "PatientPosition": "HFS",
  "PercentPhaseFOV": 100,
  "PhaseEncodingDirection": "j-",
  "PhaseEncodingSteps": 100,
  "PhaseResolution": 1,
  "PixelBandwidth": 2380,
  "ProcedureStepDescription": "BNU_P2018_64CH_Liu.Jia",
  "ProtocolName": "bold_100x100_s3_2x2x2_232",
  "PulseSequenceDetails": "%SiemensSeq%_ep2d_bold",
  "ReceiveCoilActiveElements": "HC1-7;NC1",
  "ReceiveCoilName": "HeadNeck_64",
  "ReconMatrixPE": 100,
  "RepetitionTime": 2,
  "SAR": 0.0614114,
  "ScanOptions": "FS",
  "ScanningSequence": "EP",
  "SequenceName": "_epfid2d1_100",
  "SequenceVariant": "SK",
  "SeriesDescription": "bold_100x100_s3_2x2x2_232",
  "SeriesNumber": 3,
  "ShimSetting": [-5456, -11497, -1203, 257, -16, -170, -96, 62],
  "SliceThickness": 2,
  "SliceTiming": [1.485, 0, 0.99, 0.0825, 1.0725, 0.165, 1.155, 0.2475, 1.2375, 0.33, 1.32, 0.4125, 1.4025, 0.5775, 1.5675, 0.66, 1.65, 0.7425, 1.7325, 0.825, 1.815, 0.9075, 1.8975, 0.495, 1.485, 0, 0.99, 0.0825, 1.0725, 0.165, 1.155, 0.2475, 1.2375, 0.33, 1.32, 0.4125, 1.4025, 0.5775, 1.5675, 0.66, 1.65, 0.7425, 1.7325, 0.825, 1.815, 0.9075, 1.8975, 0.495, 1.485, 0, 0.99, 0.0825, 1.0725, 0.165, 1.155, 0.2475, 1.2375, 0.33, 1.32, 0.4125, 1.4025, 0.5775, 1.5675, 0.66, 1.65, 0.7425, 1.7325, 0.825, 1.815, 0.9075, 1.8975, 0.495],
  "SoftwareVersions": "syngo_MR_E11",
  "SpacingBetweenSlices": 2,
  "StationName": "AWP166078",
  "TaskName": "motor",
  "TotalReadoutTime": 0.0534586,
  "TxRefAmp": 227.69,
  "dcmmeta_affine": [
    [-1.9994876384735107, -0.01744927652180195, 0.041767727583646774, 101.99972534179688],
    [-0.025690900161862373, 1.956862211227417, -0.4123472273349762, -78.60637664794922],
    [0.037269264459609985, 0.4127781391143799, 1.9565850496292114, -84.70195007324219],
    [0.0, 0.0, 0.0, 1.0]
],
  "dcmmeta_reorient_transform": [
    [0.0, -1.0, 0.0, 99.0],
    [1.0, 0.0, 0.0, 0.0],
    [0.0, 0.0, 1.0, 0.0],
    [0.0, 0.0, 0.0, 1.0]
],
  "dcmmeta_shape": [100, 100, 72, 232],
  "dcmmeta_slice_dim": 2,
  "dcmmeta_version": 0.6,
  "global": {
    "const": {
      "AcquisitionMatrix": [100, 0, 0, 100],
      "AngioFlag": "N",
      "BitsAllocated": 16,
      "BitsStored": 12,
      "BodyPartExamined": "BRAIN",
      "Columns": 900,
      "EchoNumbers": 1,
      "EchoTime": 34.0,
      "EchoTrainLength": 100,
      "FlipAngle": 90.0,
      "HighBit": 11,
      "ImageOrientationPatient": [0.999743839634, 0.01284545019558, 0.01863463235851, -0.0087246386687, 0.9784311090671, -0.2063890633969],
      "ImagePositionPatient": [-893.08761067792, -908.14423414696, 106.36662984125],
      "ImageType": [
        "ORIGINAL",
        "PRIMARY",
        "M",
        "ND",
        "MOSAIC"
],
      "ImagedNucleus": "1H",
      "ImagingFrequency": 123.257807,
      "InPlanePhaseEncodingDirection": "COL",
      "LargestImagePixelValue": 4095,
      "MRAcquisitionType": "2D",
      "MagneticFieldStrength": 3.0,
      "Manufacturer": "SIEMENS",
      "ManufacturerModelName": "Prisma",
      "Modality": "MR",
      "NumberOfAverages": 1.0,
      "NumberOfPhaseEncodingSteps": 100,
      "PercentPhaseFieldOfView": 100.0,
      "PercentSampling": 100.0,
      "PerformedProcedureStepStartTime": "101945.694000",
      "PhotometricInterpretation": "MONOCHROME2",
      "PixelBandwidth": 2380.0,
      "PixelRepresentation": 0,
      "PixelSpacing": [2.0, 2.0],
      "ProtocolName": "bold_100x100_s3_2x2x2_232",
      "RepetitionTime": 2000.0,
      "Rows": 900,
      "SAR": 0.06141136615443,
      "SamplesPerPixel": 1,
      "ScanOptions": "FS",
      "ScanningSequence": "EP",
      "SequenceName": "*epfid2d1_100",
      "SequenceVariant": "SK",
      "SeriesDescription": "bold_100x100_s3_2x2x2_232",
      "SeriesNumber": 3,
      "SeriesTime": "102434.552000",
      "SliceLocation": -64.526577347298,
      "SliceThickness": 2.0,
      "SmallestImagePixelValue": 0,
      "SoftwareVersions": "syngo MR E11",
      "SpacingBetweenSlices": 2.0000000003564,
      "SpecificCharacterSet": "ISO_IR 100",
      "StudyID": "1",
      "StudyTime": "101945.586000",
      "TransmitCoilName": "Body",
      "VariableFlipAngleFlag": "N",
      "WindowCenterWidthExplanation": "Algo1",
      "dBdt": 0.0},
    "slices": {}
  },
  "time": {
    "samples": {
      "AcquisitionNumber": [1, 2, 3, 4, 5, 6, 7, 8, 9, 10, 11, 12, 13, 14, 15, 16, 17, 18, 19, 20, 21, 22, 23, 24, 25, 26, 27, 28, 29, 30, 31, 32, 33, 34, 35, 36, 37, 38, 39, 40, 41, 42, 43, 44, 45, 46, 47, 48, 49, 50, 51, 52, 53, 54, 55, 56, 57, 58, 59, 60, 61, 62, 63, 64, 65, 66, 67, 68, 69, 70, 71, 72, 73, 74, 75, 76, 77, 78, 79, 80, 81, 82, 83, 84, 85, 86, 87, 88, 89, 90, 91, 92, 93, 94, 95, 96, 97, 98, 99, 100, 101, 102, 103, 104, 105, 106, 107, 108, 109, 110, 111, 112, 113, 114, 115, 116, 117, 118, 119, 120, 121, 122, 123, 124, 125, 126, 127, 128, 129, 130, 131, 132, 133, 134, 135, 136, 137, 138, 139, 140, 141, 142, 143, 144, 145, 146, 147, 148, 149, 150, 151, 152, 153, 154, 155, 156, 157, 158, 159, 160, 161, 162, 163, 164, 165, 166, 167, 168, 169, 170, 171, 172, 173, 174, 175, 176, 177, 178, 179, 180, 181, 182, 183, 184, 185, 186, 187, 188, 189, 190, 191, 192, 193, 194, 195, 196, 197, 198, 199, 200, 201, 202, 203, 204, 205, 206, 207, 208, 209, 210, 211, 212, 213, 214, 215, 216, 217, 218, 219, 220, 221, 222, 223, 224, 225, 226, 227, 228, 229, 230, 231, 232],
      "AcquisitionTime": ["102432.340000", "102434.340000", "102436.340000", "102438.340000", "102440.340000", "102442.340000", "102444.340000", "102446.340000", "102448.340000", "102450.340000", "102452.340000", "102454.340000", "102456.340000", "102458.340000", "102500.340000", "102502.340000", "102504.340000", "102506.340000", "102508.340000", "102510.340000", "102512.340000", "102514.340000", "102516.340000", "102518.340000", "102520.340000", "102522.340000", "102524.340000", "102526.340000", "102528.340000", "102530.340000", "102532.340000", "102534.340000", "102536.340000", "102538.340000", "102540.340000", "102542.340000", "102544.340000", "102546.340000", "102548.340000", "102550.340000", "102552.340000", "102554.340000", "102556.340000", "102558.340000", "102600.340000", "102602.340000", "102604.340000", "102606.340000", "102608.340000", "102610.340000", "102612.340000", "102614.340000", "102616.340000", "102618.340000", "102620.340000", "102622.340000", "102624.340000", "102626.340000", "102628.340000", "102630.340000", "102632.340000", "102634.340000", "102636.340000", "102638.340000", "102640.340000", "102642.340000", "102644.340000", "102646.340000", "102648.340000", "102650.340000", "102652.340000", "102654.340000", "102656.340000", "102658.340000", "102700.340000", "102702.340000", "102704.340000", "102706.340000", "102708.340000", "102710.340000", "102712.340000", "102714.340000", "102716.340000", "102718.340000", "102720.340000", "102722.340000", "102724.340000", "102726.340000", "102728.340000", "102730.340000", "102732.340000", "102734.340000", "102736.340000", "102738.340000", "102740.340000", "102742.340000", "102744.340000", "102746.340000", "102748.340000", "102750.340000", "102752.340000", "102754.340000", "102756.340000", "102758.340000", "102800.340000", "102802.340000", "102804.340000", "102806.340000", "102808.340000", "102810.340000", "102812.340000", "102814.340000", "102816.340000", "102818.340000", "102820.340000", "102822.340000", "102824.340000", "102826.340000", "102828.340000", "102830.340000", "102832.340000", "102834.340000", "102836.340000", "102838.340000", "102840.340000", "102842.340000", "102844.340000", "102846.340000", "102848.340000", "102850.340000", "102852.340000", "102854.340000", "102856.340000", "102858.340000", "102900.340000", "102902.340000", "102904.340000", "102906.340000", "102908.340000", "102910.340000", "102912.340000", "102914.340000", "102916.340000", "102918.340000", "102920.340000", "102922.340000", "102924.340000", "102926.340000", "102928.340000", "102930.340000", "102932.340000", "102934.340000", "102936.340000", "102938.340000", "102940.340000", "102942.340000", "102944.340000", "102946.340000", "102948.340000", "102950.340000", "102952.340000", "102954.340000", "102956.340000", "102958.340000", "103000.340000", "103002.340000", "103004.340000", "103006.340000", "103008.340000", "103010.340000", "103012.340000", "103014.340000", "103016.340000", "103018.340000", "103020.340000", "103022.340000", "103024.340000", "103026.340000", "103028.340000", "103030.340000", "103032.340000", "103034.340000", "103036.340000", "103038.340000", "103040.340000", "103042.340000", "103044.340000", "103046.340000", "103048.340000", "103050.340000", "103052.340000", "103054.340000", "103056.340000", "103058.340000", "103100.340000", "103102.340000", "103104.340000", "103106.340000", "103108.340000", "103110.340000", "103112.340000", "103114.340000", "103116.340000", "103118.340000", "103120.340000", "103122.340000", "103124.340000", "103126.340000", "103128.340000", "103130.340000", "103132.340000", "103134.340000", "103136.340000", "103138.340000", "103140.340000", "103142.340000", "103144.340000", "103146.340000", "103148.340000", "103150.340000", "103152.340000", "103154.340000", "103156.340000", "103158.340000", "103200.340000", "103202.340000", "103204.340000", "103206.340000", "103208.340000", "103210.340000", "103212.340000", "103214.340000"],
      "ContentTime": ["102434.555000", "102436.050000", "102438.051000", "102440.050000", "102442.050000", "102444.050000", "102446.049000", "102448.049000", "102450.050000", "102452.050000", "102454.050000", "102456.050000", "102458.050000", "102500.051000", "102502.049000", "102504.049000", "102506.049000", "102508.050000", "102510.050000", "102512.050000", "102514.051000", "102516.050000", "102518.049000", "102520.049000", "102522.049000", "102524.069000", "102526.050000", "102528.050000", "102530.050000", "102532.050000", "102534.051000", "102536.049000", "102538.049000", "102540.050000", "102542.049000", "102544.050000", "102546.050000", "102548.050000", "102550.050000", "102552.050000", "102554.049000", "102556.049000", "102558.049000", "102600.050000", "102602.050000", "102604.050000", "102606.050000", "102608.050000", "102610.051000", "102612.050000", "102614.049000", "102616.049000", "102618.050000", "102620.050000", "102622.050000", "102624.050000", "102626.051000", "102628.049000", "102630.049000", "102632.049000", "102634.050000", "102636.051000", "102638.050000", "102640.051000", "102642.050000", "102644.051000", "102646.049000", "102648.049000", "102650.050000", "102652.049000", "102654.050000", "102656.050000", "102658.050000", "102700.050000", "102702.050000", "102704.049000", "102706.050000", "102708.050000", "102710.050000", "102712.050000", "102714.050000", "102716.050000", "102718.050000", "102720.050000", "102722.049000", "102724.050000", "102726.049000", "102728.050000", "102730.050000", "102732.050000", "102734.051000", "102736.050000", "102738.049000", "102740.049000", "102742.049000", "102744.052000", "102746.050000", "102748.051000", "102750.050000", "102752.050000", "102754.050000", "102756.049000", "102758.049000", "102800.049000", "102802.049000", "102804.051000", "102806.050000", "102808.050000", "102810.050000", "102812.050000", "102814.049000", "102816.050000", "102818.049000", "102820.050000", "102822.051000", "102824.051000", "102826.050000", "102828.050000", "102830.050000", "102832.049000", "102834.049000", "102836.049000", "102838.050000", "102840.050000", "102842.051000", "102844.050000", "102846.051000", "102848.049000", "102850.050000", "102852.049000", "102854.050000", "102856.050000", "102858.051000", "102900.050000", "102902.051000", "102904.050000", "102906.049000", "102908.049000", "102910.050000", "102912.049000", "102914.050000", "102916.050000", "102918.050000", "102920.050000", "102922.050000", "102924.049000", "102926.050000", "102928.049000", "102930.051000", "102932.050000", "102934.050000", "102936.050000", "102938.050000", "102940.051000", "102942.050000", "102944.049000", "102946.049000", "102948.050000", "102950.051000", "102952.051000", "102954.051000", "102956.050000", "102958.049000", "103000.049000", "103002.049000", "103004.050000", "103006.050000", "103008.051000", "103010.050000", "103012.050000", "103014.050000", "103016.049000", "103018.049000", "103020.050000", "103022.049000", "103024.050000", "103026.050000", "103028.051000", "103030.050000", "103032.050000", "103034.049000", "103036.050000", "103038.049000", "103040.050000", "103042.051000", "103044.050000", "103046.051000", "103048.058000", "103050.051000", "103052.050000", "103054.050000", "103056.049000", "103058.051000", "103100.050000", "103102.050000", "103104.051000", "103106.050000", "103108.050000", "103110.049000", "103112.050000", "103114.050000", "103116.051000", "103118.051000", "103120.051000", "103122.051000", "103124.050000", "103126.049000", "103128.049000", "103130.049000", "103132.050000", "103134.050000", "103136.050000", "103138.051000", "103140.050000", "103142.050000", "103144.049000", "103146.050000", "103148.050000", "103150.051000", "103152.050000", "103154.051000", "103156.051000", "103158.050000", "103200.051000", "103202.050000", "103204.050000", "103206.049000", "103208.051000", "103210.051000", "103212.050000", "103214.051000", "103215.871000"],
      "InstanceCreationTime": ["102434.555000", "102436.050000", "102438.051000", "102440.050000", "102442.050000", "102444.050000", "102446.049000", "102448.049000", "102450.050000", "102452.050000", "102454.050000", "102456.050000", "102458.050000", "102500.051000", "102502.049000", "102504.049000", "102506.049000", "102508.050000", "102510.050000", "102512.050000", "102514.051000", "102516.050000", "102518.049000", "102520.049000", "102522.049000", "102524.069000", "102526.050000", "102528.050000", "102530.050000", "102532.050000", "102534.051000", "102536.049000", "102538.049000", "102540.050000", "102542.049000", "102544.050000", "102546.050000", "102548.050000", "102550.050000", "102552.050000", "102554.049000", "102556.049000", "102558.049000", "102600.050000", "102602.050000", "102604.050000", "102606.050000", "102608.050000", "102610.051000", "102612.050000", "102614.049000", "102616.049000", "102618.050000", "102620.050000", "102622.050000", "102624.050000", "102626.051000", "102628.049000", "102630.049000", "102632.049000", "102634.050000", "102636.051000", "102638.050000", "102640.051000", "102642.050000", "102644.051000", "102646.049000", "102648.049000", "102650.050000", "102652.049000", "102654.050000", "102656.050000", "102658.050000", "102700.050000", "102702.050000", "102704.049000", "102706.050000", "102708.050000", "102710.050000", "102712.050000", "102714.050000", "102716.050000", "102718.050000", "102720.050000", "102722.049000", "102724.050000", "102726.049000", "102728.050000", "102730.050000", "102732.050000", "102734.051000", "102736.050000", "102738.049000", "102740.049000", "102742.049000", "102744.052000", "102746.050000", "102748.051000", "102750.050000", "102752.050000", "102754.050000", "102756.049000", "102758.049000", "102800.049000", "102802.049000", "102804.051000", "102806.050000", "102808.050000", "102810.050000", "102812.050000", "102814.049000", "102816.050000", "102818.049000", "102820.050000", "102822.051000", "102824.051000", "102826.050000", "102828.050000", "102830.050000", "102832.049000", "102834.049000", "102836.049000", "102838.050000", "102840.050000", "102842.051000", "102844.050000", "102846.051000", "102848.049000", "102850.050000", "102852.049000", "102854.050000", "102856.050000", "102858.051000", "102900.050000", "102902.051000", "102904.050000", "102906.049000", "102908.049000", "102910.050000", "102912.049000", "102914.050000", "102916.050000", "102918.050000", "102920.050000", "102922.050000", "102924.049000", "102926.050000", "102928.049000", "102930.051000", "102932.050000", "102934.050000", "102936.050000", "102938.050000", "102940.051000", "102942.050000", "102944.049000", "102946.049000", "102948.050000", "102950.051000", "102952.051000", "102954.051000", "102956.050000", "102958.049000", "103000.049000", "103002.049000", "103004.050000", "103006.050000", "103008.051000", "103010.050000", "103012.050000", "103014.050000", "103016.049000", "103018.049000", "103020.050000", "103022.049000", "103024.050000", "103026.050000", "103028.051000", "103030.050000", "103032.050000", "103034.049000", "103036.050000", "103038.049000", "103040.050000", "103042.051000", "103044.050000", "103046.051000", "103048.058000", "103050.051000", "103052.050000", "103054.050000", "103056.049000", "103058.051000", "103100.050000", "103102.050000", "103104.051000", "103106.050000", "103108.050000", "103110.049000", "103112.050000", "103114.050000", "103116.051000", "103118.051000", "103120.051000", "103122.051000", "103124.050000", "103126.049000", "103128.049000", "103130.049000", "103132.050000", "103134.050000", "103136.050000", "103138.051000", "103140.050000", "103142.050000", "103144.049000", "103146.050000", "103148.050000", "103150.051000", "103152.050000", "103154.051000", "103156.051000", "103158.050000", "103200.051000", "103202.050000", "103204.050000", "103206.049000", "103208.051000", "103210.051000", "103212.050000", "103214.051000", "103215.871000"],
      "InstanceNumber": [1, 2, 3, 4, 5, 6, 7, 8, 9, 10, 11, 12, 13, 14, 15, 16, 17, 18, 19, 20, 21, 22, 23, 24, 25, 26, 27, 28, 29, 30, 31, 32, 33, 34, 35, 36, 37, 38, 39, 40, 41, 42, 43, 44, 45, 46, 47, 48, 49, 50, 51, 52, 53, 54, 55, 56, 57, 58, 59, 60, 61, 62, 63, 64, 65, 66, 67, 68, 69, 70, 71, 72, 73, 74, 75, 76, 77, 78, 79, 80, 81, 82, 83, 84, 85, 86, 87, 88, 89, 90, 91, 92, 93, 94, 95, 96, 97, 98, 99, 100, 101, 102, 103, 104, 105, 106, 107, 108, 109, 110, 111, 112, 113, 114, 115, 116, 117, 118, 119, 120, 121, 122, 123, 124, 125, 126, 127, 128, 129, 130, 131, 132, 133, 134, 135, 136, 137, 138, 139, 140, 141, 142, 143, 144, 145, 146, 147, 148, 149, 150, 151, 152, 153, 154, 155, 156, 157, 158, 159, 160, 161, 162, 163, 164, 165, 166, 167, 168, 169, 170, 171, 172, 173, 174, 175, 176, 177, 178, 179, 180, 181, 182, 183, 184, 185, 186, 187, 188, 189, 190, 191, 192, 193, 194, 195, 196, 197, 198, 199, 200, 201, 202, 203, 204, 205, 206, 207, 208, 209, 210, 211, 212, 213, 214, 215, 216, 217, 218, 219, 220, 221, 222, 223, 224, 225, 226, 227, 228, 229, 230, 231, 232],
      "WindowCenter": [864.0, 862.0, 863.0, 863.0, 863.0, 862.0, 862.0, 862.0, 863.0, 865.0, 866.0, 865.0, 864.0, 863.0, 863.0, 863.0, 863.0, 864.0, 865.0, 864.0, 864.0, 865.0, 864.0, 864.0, 864.0, 866.0, 867.0, 865.0, 862.0, 861.0, 860.0, 860.0, 861.0, 862.0, 863.0, 863.0, 864.0, 864.0, 864.0, 865.0, 866.0, 866.0, 871.0, 868.0, 865.0, 856.0, 868.0, 863.0, 863.0, 863.0, 865.0, 865.0, 865.0, 864.0, 863.0, 863.0, 863.0, 864.0, 864.0, 864.0, 864.0, 865.0, 865.0, 864.0, 863.0, 862.0, 863.0, 863.0, 863.0, 861.0, 860.0, 859.0, 858.0, 858.0, 858.0, 858.0, 859.0, 860.0, 860.0, 860.0, 860.0, 861.0, 862.0, 861.0, 861.0, 861.0, 861.0, 861.0, 862.0, 863.0, 864.0, 863.0, 863.0, 864.0, 864.0, 864.0, 863.0, 858.0, 867.0, 862.0, 862.0, 858.0, 857.0, 852.0, 863.0, 862.0, 864.0, 864.0, 864.0, 864.0, 863.0, 862.0, 863.0, 863.0, 864.0, 864.0, 864.0, 864.0, 864.0, 864.0, 865.0, 865.0, 867.0, 867.0, 866.0, 864.0, 863.0, 863.0, 863.0, 860.0, 865.0, 860.0, 860.0, 856.0, 861.0, 859.0, 860.0, 860.0, 863.0, 863.0, 864.0, 865.0, 864.0, 864.0, 864.0, 864.0, 864.0, 864.0, 864.0, 864.0, 863.0, 863.0, 862.0, 862.0, 864.0, 865.0, 865.0, 864.0, 864.0, 863.0, 864.0, 863.0, 863.0, 863.0, 862.0, 862.0, 861.0, 861.0, 861.0, 861.0, 862.0, 861.0, 860.0, 860.0, 860.0, 860.0, 861.0, 862.0, 863.0, 862.0, 861.0, 861.0, 861.0, 861.0, 861.0, 862.0, 863.0, 860.0, 860.0, 855.0, 860.0, 854.0, 862.0, 860.0, 862.0, 862.0, 862.0, 862.0, 862.0, 862.0, 862.0, 862.0, 863.0, 863.0, 861.0, 861.0, 861.0, 862.0, 862.0, 860.0, 862.0, 862.0, 862.0, 860.0, 863.0, 864.0, 864.0, 864.0, 865.0, 864.0, 863.0, 863.0, 863.0, 863.0, 863.0, 863.0, 863.0, 863.0, 862.0, 862.0, 863.0, 863.0],
      "WindowWidth": [1885.0, 1881.0, 1883.0, 1883.0, 1881.0, 1881.0, 1879.0, 1880.0, 1883.0, 1887.0, 1890.0, 1887.0, 1884.0, 1883.0, 1883.0, 1882.0, 1882.0, 1886.0, 1888.0, 1885.0, 1885.0, 1887.0, 1884.0, 1884.0, 1886.0, 1891.0, 1893.0, 1888.0, 1878.0, 1877.0, 1872.0, 1873.0, 1875.0, 1878.0, 1881.0, 1883.0, 1885.0, 1884.0, 1883.0, 1887.0, 1890.0, 1890.0, 1903.0, 1896.0, 1888.0, 1861.0, 1895.0, 1883.0, 1880.0, 1882.0, 1886.0, 1886.0, 1886.0, 1884.0, 1881.0, 1879.0, 1881.0, 1883.0, 1883.0, 1884.0, 1884.0, 1885.0, 1885.0, 1883.0, 1880.0, 1878.0, 1880.0, 1881.0, 1879.0, 1876.0, 1872.0, 1868.0, 1867.0, 1866.0, 1867.0, 1867.0, 1869.0, 1871.0, 1871.0, 1872.0, 1872.0, 1874.0, 1875.0, 1874.0, 1874.0, 1874.0, 1873.0, 1874.0, 1876.0, 1880.0, 1882.0, 1881.0, 1881.0, 1881.0, 1881.0, 1882.0, 1880.0, 1865.0, 1891.0, 1877.0, 1877.0, 1866.0, 1862.0, 1851.0, 1878.0, 1876.0, 1882.0, 1883.0, 1882.0, 1881.0, 1878.0, 1877.0, 1878.0, 1878.0, 1881.0, 1882.0, 1881.0, 1882.0, 1882.0, 1883.0, 1884.0, 1884.0, 1889.0, 1889.0, 1887.0, 1882.0, 1878.0, 1877.0, 1878.0, 1871.0, 1884.0, 1871.0, 1869.0, 1861.0, 1873.0, 1868.0, 1870.0, 1871.0, 1878.0, 1879.0, 1880.0, 1883.0, 1882.0, 1883.0, 1881.0, 1882.0, 1881.0, 1880.0, 1880.0, 1880.0, 1878.0, 1877.0, 1876.0, 1876.0, 1880.0, 1883.0, 1882.0, 1881.0, 1881.0, 1878.0, 1880.0, 1878.0, 1878.0, 1877.0, 1876.0, 1874.0, 1873.0, 1873.0, 1871.0, 1873.0, 1874.0, 1872.0, 1870.0, 1869.0, 1868.0, 1869.0, 1872.0, 1875.0, 1878.0, 1876.0, 1873.0, 1873.0, 1872.0, 1873.0, 1873.0, 1875.0, 1878.0, 1869.0, 1871.0, 1857.0, 1872.0, 1853.0, 1874.0, 1870.0, 1874.0, 1875.0, 1875.0, 1875.0, 1874.0, 1875.0, 1875.0, 1875.0, 1877.0, 1877.0, 1873.0, 1873.0, 1873.0, 1874.0, 1873.0, 1871.0, 1875.0, 1876.0, 1876.0, 1870.0, 1879.0, 1880.0, 1881.0, 1881.0, 1882.0, 1879.0, 1878.0, 1878.0, 1878.0, 1877.0, 1877.0, 1879.0, 1878.0, 1878.0, 1876.0, 1875.0, 1878.0, 1878.0]
    },
    "slices": {}
  }
}