{
  "AcquisitionMatrixPE": 100,
  "AcquisitionNumber": 1,
  "AcquisitionTime": "11:11:21.882500",
  "BandwidthPerPixelPhaseEncode": 18.519,
  "BaseResolution": 100,
  "BodyPartExamined": "BRAIN",
  "ConsistencyInfo": "N4_VE11C_LATEST_20160120",
  "ConversionSoftware": "dcm2niix",
  "ConversionSoftwareVersion": "v1.0.20180622 GCC4.9.2",
  "DerivedVendorReportedEchoSpacing": 0.000539986,
  "DeviceSerialNumber": "166078",
  "DwellTime": 2.1e-06,
  "EchoTime": 0.034,
  "EchoTrainLength": 100,
  "EffectiveEchoSpacing": 0.000539986,
  "FlipAngle": 90,
  "ImageOrientationPatientDICOM": [0.999744, 0.0128455, 0.0186346, -0.00872464, 0.978431, -0.206389],
  "ImageType": [
    "ORIGINAL",
    "PRIMARY",
    "M",
    "ND",
    "MOSAIC"
],
  "InPlanePhaseEncodingDirectionDICOM": "COL",
  "InstitutionAddress": "Street_StreetNo_Bei_Jing_District_CN_ZIP",
  "InstitutionName": "BeiJing_Normal_University",
  "InstitutionalDepartmentName": "Department",
  "MRAcquisitionType": "2D",
  "MagneticFieldStrength": 3,
  "Manufacturer": "Siemens",
  "ManufacturersModelName": "Prisma",
  "Modality": "MR",
  "MultibandAccelerationFactor": 3,
  "PartialFourier": 1,
  "PatientPosition": "HFS",
  "PercentPhaseFOV": 100,
  "PhaseEncodingDirection": "j-",
  "PhaseEncodingSteps": 100,
  "PhaseResolution": 1,
  "PixelBandwidth": 2380,
  "ProcedureStepDescription": "BNU_P2018_64CH_Liu.Jia",
  "ProtocolName": "bold_100x100_s3_2x2x2_232",
  "PulseSequenceDetails": "%SiemensSeq%_ep2d_bold",
  "ReceiveCoilActiveElements": "HC1-7;NC1",
  "ReceiveCoilName": "HeadNeck_64",
  "ReconMatrixPE": 100,
  "RepetitionTime": 2,
  "SAR": 0.0614114,
  "ScanOptions": "FS",
  "ScanningSequence": "EP",
  "SequenceName": "_epfid2d1_100",
  "SequenceVariant": "SK",
  "SeriesDescription": "bold_100x100_s3_2x2x2_232",
  "SeriesNumber": 10,
  "ShimSetting": [-5456, -11497, -1203, 257, -16, -170, -96, 62],
  "SliceThickness": 2,
  "SliceTiming": [1.485, 0, 0.99, 0.0825, 1.0725, 0.165, 1.155, 0.2475, 1.2375, 0.33, 1.32, 0.4125, 1.4025, 0.5775, 1.5675, 0.66, 1.65, 0.7425, 1.7325, 0.825, 1.815, 0.9075, 1.8975, 0.495, 1.485, 0, 0.99, 0.0825, 1.0725, 0.165, 1.155, 0.2475, 1.2375, 0.33, 1.32, 0.4125, 1.4025, 0.5775, 1.5675, 0.66, 1.65, 0.7425, 1.7325, 0.825, 1.815, 0.9075, 1.8975, 0.495, 1.485, 0, 0.99, 0.0825, 1.0725, 0.165, 1.155, 0.2475, 1.2375, 0.33, 1.32, 0.4125, 1.4025, 0.5775, 1.5675, 0.66, 1.65, 0.7425, 1.7325, 0.825, 1.815, 0.9075, 1.8975, 0.495],
  "SoftwareVersions": "syngo_MR_E11",
  "SpacingBetweenSlices": 2,
  "StationName": "AWP166078",
  "TaskName": "motor",
  "TotalReadoutTime": 0.0534586,
  "TxRefAmp": 227.69,
  "dcmmeta_affine": [
    [-1.9994876384735107, -0.01744927652180195, 0.041767727583646774, 101.99972534179688],
    [-0.025690900161862373, 1.956862211227417, -0.4123472273349762, -78.60637664794922],
    [0.037269264459609985, 0.4127781391143799, 1.9565850496292114, -84.70195007324219],
    [0.0, 0.0, 0.0, 1.0]
],
  "dcmmeta_reorient_transform": [
    [0.0, -1.0, 0.0, 99.0],
    [1.0, 0.0, 0.0, 0.0],
    [0.0, 0.0, 1.0, 0.0],
    [0.0, 0.0, 0.0, 1.0]
],
  "dcmmeta_shape": [100, 100, 72, 232],
  "dcmmeta_slice_dim": 2,
  "dcmmeta_version": 0.6,
  "global": {
    "const": {
      "AcquisitionMatrix": [100, 0, 0, 100],
      "AngioFlag": "N",
      "BitsAllocated": 16,
      "BitsStored": 12,
      "BodyPartExamined": "BRAIN",
      "Columns": 900,
      "EchoNumbers": 1,
      "EchoTime": 34.0,
      "EchoTrainLength": 100,
      "FlipAngle": 90.0,
      "HighBit": 11,
      "ImageOrientationPatient": [0.999743839634, 0.01284545019558, 0.01863463235851, -0.0087246386687, 0.9784311090671, -0.2063890633969],
      "ImagePositionPatient": [-893.08761067792, -908.14423414696, 106.36662984125],
      "ImageType": [
        "ORIGINAL",
        "PRIMARY",
        "M",
        "ND",
        "MOSAIC"
],
      "ImagedNucleus": "1H",
      "ImagingFrequency": 123.257831,
      "InPlanePhaseEncodingDirection": "COL",
      "MRAcquisitionType": "2D",
      "MagneticFieldStrength": 3.0,
      "Manufacturer": "SIEMENS",
      "ManufacturerModelName": "Prisma",
      "Modality": "MR",
      "NumberOfAverages": 1.0,
      "NumberOfPhaseEncodingSteps": 100,
      "PercentPhaseFieldOfView": 100.0,
      "PercentSampling": 100.0,
      "PerformedProcedureStepStartTime": "101945.694000",
      "PhotometricInterpretation": "MONOCHROME2",
      "PixelBandwidth": 2380.0,
      "PixelRepresentation": 0,
      "PixelSpacing": [2.0, 2.0],
      "ProtocolName": "bold_100x100_s3_2x2x2_232",
      "RepetitionTime": 2000.0,
      "Rows": 900,
      "SAR": 0.06141136615443,
      "SamplesPerPixel": 1,
      "ScanOptions": "FS",
      "ScanningSequence": "EP",
      "SequenceName": "*epfid2d1_100",
      "SequenceVariant": "SK",
      "SeriesDescription": "bold_100x100_s3_2x2x2_232",
      "SeriesNumber": 10,
      "SeriesTime": "111124.237000",
      "SliceLocation": -64.526577347298,
      "SliceThickness": 2.0,
      "SmallestImagePixelValue": 0,
      "SoftwareVersions": "syngo MR E11",
      "SpacingBetweenSlices": 2.0000000003564,
      "SpecificCharacterSet": "ISO_IR 100",
      "StudyID": "1",
      "StudyTime": "101945.586000",
      "TransmitCoilName": "Body",
      "VariableFlipAngleFlag": "N",
      "WindowCenterWidthExplanation": "Algo1",
      "dBdt": 0.0},
    "slices": {}
  },
  "time": {
    "samples": {
      "AcquisitionNumber": [1, 2, 3, 4, 5, 6, 7, 8, 9, 10, 11, 12, 13, 14, 15, 16, 17, 18, 19, 20, 21, 22, 23, 24, 25, 26, 27, 28, 29, 30, 31, 32, 33, 34, 35, 36, 37, 38, 39, 40, 41, 42, 43, 44, 45, 46, 47, 48, 49, 50, 51, 52, 53, 54, 55, 56, 57, 58, 59, 60, 61, 62, 63, 64, 65, 66, 67, 68, 69, 70, 71, 72, 73, 74, 75, 76, 77, 78, 79, 80, 81, 82, 83, 84, 85, 86, 87, 88, 89, 90, 91, 92, 93, 94, 95, 96, 97, 98, 99, 100, 101, 102, 103, 104, 105, 106, 107, 108, 109, 110, 111, 112, 113, 114, 115, 116, 117, 118, 119, 120, 121, 122, 123, 124, 125, 126, 127, 128, 129, 130, 131, 132, 133, 134, 135, 136, 137, 138, 139, 140, 141, 142, 143, 144, 145, 146, 147, 148, 149, 150, 151, 152, 153, 154, 155, 156, 157, 158, 159, 160, 161, 162, 163, 164, 165, 166, 167, 168, 169, 170, 171, 172, 173, 174, 175, 176, 177, 178, 179, 180, 181, 182, 183, 184, 185, 186, 187, 188, 189, 190, 191, 192, 193, 194, 195, 196, 197, 198, 199, 200, 201, 202, 203, 204, 205, 206, 207, 208, 209, 210, 211, 212, 213, 214, 215, 216, 217, 218, 219, 220, 221, 222, 223, 224, 225, 226, 227, 228, 229, 230, 231, 232],
      "AcquisitionTime": ["111121.882500", "111123.882500", "111125.882500", "111127.882500", "111129.882500", "111131.882500", "111133.882500", "111135.882500", "111137.882500", "111139.882500", "111141.882500", "111143.882500", "111145.882500", "111147.882500", "111149.882500", "111151.882500", "111153.882500", "111155.882500", "111157.882500", "111159.882500", "111201.882500", "111203.882500", "111205.882500", "111207.882500", "111209.882500", "111211.882500", "111213.882500", "111215.882500", "111217.882500", "111219.882500", "111221.882500", "111223.882500", "111225.882500", "111227.882500", "111229.882500", "111231.882500", "111233.882500", "111235.882500", "111237.882500", "111239.882500", "111241.882500", "111243.882500", "111245.882500", "111247.882500", "111249.882500", "111251.882500", "111253.882500", "111255.882500", "111257.882500", "111259.882500", "111301.882500", "111303.882500", "111305.882500", "111307.882500", "111309.882500", "111311.882500", "111313.882500", "111315.882500", "111317.882500", "111319.882500", "111321.882500", "111323.882500", "111325.882500", "111327.882500", "111329.882500", "111331.882500", "111333.882500", "111335.882500", "111337.882500", "111339.882500", "111341.882500", "111343.882500", "111345.882500", "111347.882500", "111349.882500", "111351.882500", "111353.882500", "111355.882500", "111357.882500", "111359.882500", "111401.882500", "111403.882500", "111405.882500", "111407.882500", "111409.882500", "111411.882500", "111413.882500", "111415.882500", "111417.882500", "111419.882500", "111421.882500", "111423.882500", "111425.882500", "111427.882500", "111429.882500", "111431.882500", "111433.882500", "111435.882500", "111437.882500", "111439.882500", "111441.882500", "111443.882500", "111445.882500", "111447.882500", "111449.882500", "111451.882500", "111453.882500", "111455.882500", "111457.882500", "111459.882500", "111501.882500", "111503.882500", "111505.882500", "111507.882500", "111509.882500", "111511.882500", "111513.882500", "111515.882500", "111517.882500", "111519.882500", "111521.882500", "111523.882500", "111525.882500", "111527.882500", "111529.882500", "111531.882500", "111533.882500", "111535.882500", "111537.882500", "111539.882500", "111541.882500", "111543.882500", "111545.882500", "111547.882500", "111549.882500", "111551.882500", "111553.882500", "111555.882500", "111557.882500", "111559.882500", "111601.882500", "111603.882500", "111605.882500", "111607.882500", "111609.882500", "111611.882500", "111613.882500", "111615.882500", "111617.882500", "111619.882500", "111621.882500", "111623.882500", "111625.882500", "111627.882500", "111629.882500", "111631.882500", "111633.882500", "111635.882500", "111637.882500", "111639.882500", "111641.882500", "111643.882500", "111645.882500", "111647.882500", "111649.882500", "111651.882500", "111653.882500", "111655.882500", "111657.882500", "111659.882500", "111701.882500", "111703.882500", "111705.882500", "111707.882500", "111709.882500", "111711.882500", "111713.882500", "111715.882500", "111717.882500", "111719.882500", "111721.882500", "111723.882500", "111725.882500", "111727.882500", "111729.882500", "111731.882500", "111733.882500", "111735.882500", "111737.882500", "111739.882500", "111741.882500", "111743.882500", "111745.882500", "111747.882500", "111749.882500", "111751.882500", "111753.882500", "111755.882500", "111757.882500", "111759.882500", "111801.882500", "111803.882500", "111805.882500", "111807.882500", "111809.882500", "111811.882500", "111813.882500", "111815.882500", "111817.882500", "111819.882500", "111821.882500", "111823.882500", "111825.882500", "111827.882500", "111829.882500", "111831.882500", "111833.882500", "111835.882500", "111837.882500", "111839.882500", "111841.882500", "111843.882500", "111845.882500", "111847.882500", "111849.882500", "111851.882500", "111853.882500", "111855.882500", "111857.882500", "111859.882500", "111901.882500", "111903.882500"],
      "ContentTime": ["111124.241000", "111125.736000", "111127.737000", "111129.737000", "111131.737000", "111133.736000", "111135.736000", "111137.736000", "111139.736000", "111141.736000", "111143.736000", "111145.737000", "111147.736000", "111149.736000", "111151.736000", "111153.736000", "111155.736000", "111157.736000", "111159.736000", "111201.736000", "111204.238000", "111205.737000", "111207.736000", "111209.736000", "111211.736000", "111213.736000", "111215.736000", "111217.736000", "111219.736000", "111221.737000", "111223.736000", "111225.736000", "111227.736000", "111229.736000", "111231.736000", "111233.736000", "111235.736000", "111237.737000", "111239.737000", "111241.736000", "111243.736000", "111245.736000", "111247.736000", "111249.736000", "111251.736000", "111253.736000", "111255.737000", "111257.736000", "111259.737000", "111301.737000", "111303.737000", "111305.736000", "111307.737000", "111309.737000", "111311.737000", "111313.737000", "111315.736000", "111317.737000", "111319.736000", "111321.736000", "111323.737000", "111325.736000", "111327.737000", "111329.737000", "111331.738000", "111333.736000", "111335.736000", "111337.736000", "111339.736000", "111341.736000", "111343.736000", "111345.737000", "111347.738000", "111349.737000", "111351.736000", "111353.736000", "111355.736000", "111357.736000", "111359.736000", "111401.736000", "111403.736000", "111405.737000", "111407.736000", "111409.737000", "111411.737000", "111413.736000", "111415.736000", "111417.736000", "111419.736000", "111421.737000", "111423.738000", "111425.736000", "111427.736000", "111429.736000", "111431.736000", "111433.736000", "111435.736000", "111437.736000", "111439.738000", "111441.738000", "111444.236000", "111445.736000", "111447.736000", "111449.736000", "111451.737000", "111453.736000", "111455.736000", "111457.737000", "111459.737000", "111501.736000", "111503.736000", "111505.737000", "111507.736000", "111509.736000", "111511.737000", "111513.736000", "111515.738000", "111517.736000", "111519.737000", "111521.736000", "111523.736000", "111525.737000", "111527.736000", "111529.736000", "111531.736000", "111533.737000", "111535.736000", "111537.737000", "111539.737000", "111541.737000", "111543.737000", "111545.737000", "111547.736000", "111549.737000", "111551.738000", "111553.736000", "111555.737000", "111557.736000", "111559.736000", "111601.736000", "111603.736000", "111605.737000", "111607.737000", "111609.738000", "111611.736000", "111613.736000", "111615.737000", "111617.736000", "111619.737000", "111621.736000", "111623.736000", "111625.737000", "111627.736000", "111629.736000", "111631.737000", "111633.736000", "111635.737000", "111637.736000", "111639.736000", "111641.737000", "111643.737000", "111645.736000", "111647.736000", "111649.737000", "111651.736000", "111653.737000", "111655.737000", "111657.736000", "111659.737000", "111701.738000", "111703.736000", "111705.736000", "111707.737000", "111709.736000", "111711.736000", "111713.736000", "111715.737000", "111717.738000", "111719.737000", "111721.736000", "111723.736000", "111725.736000", "111727.736000", "111729.736000", "111731.736000", "111733.736000", "111735.738000", "111737.737000", "111739.736000", "111741.737000", "111743.736000", "111745.736000", "111747.736000", "111749.736000", "111751.737000", "111753.737000", "111755.737000", "111757.736000", "111759.737000", "111801.736000", "111803.736000", "111805.737000", "111807.736000", "111809.737000", "111811.737000", "111813.736000", "111815.736000", "111817.736000", "111819.736000", "111821.736000", "111823.737000", "111825.736000", "111827.738000", "111829.738000", "111831.737000", "111833.736000", "111835.736000", "111837.737000", "111839.737000", "111841.736000", "111843.736000", "111845.737000", "111847.737000", "111849.736000", "111851.736000", "111853.737000", "111855.737000", "111857.736000", "111859.737000", "111901.736000", "111903.737000", "111905.535000"],
      "InstanceCreationTime": ["111124.241000", "111125.736000", "111127.737000", "111129.737000", "111131.737000", "111133.736000", "111135.736000", "111137.736000", "111139.736000", "111141.736000", "111143.736000", "111145.737000", "111147.736000", "111149.736000", "111151.736000", "111153.736000", "111155.736000", "111157.736000", "111159.736000", "111201.736000", "111204.238000", "111205.737000", "111207.736000", "111209.736000", "111211.736000", "111213.736000", "111215.736000", "111217.736000", "111219.736000", "111221.737000", "111223.736000", "111225.736000", "111227.736000", "111229.736000", "111231.736000", "111233.736000", "111235.736000", "111237.737000", "111239.737000", "111241.736000", "111243.736000", "111245.736000", "111247.736000", "111249.736000", "111251.736000", "111253.736000", "111255.737000", "111257.736000", "111259.737000", "111301.737000", "111303.737000", "111305.736000", "111307.737000", "111309.737000", "111311.737000", "111313.737000", "111315.736000", "111317.737000", "111319.736000", "111321.736000", "111323.737000", "111325.736000", "111327.737000", "111329.737000", "111331.738000", "111333.736000", "111335.736000", "111337.736000", "111339.736000", "111341.736000", "111343.736000", "111345.737000", "111347.738000", "111349.737000", "111351.736000", "111353.736000", "111355.736000", "111357.736000", "111359.736000", "111401.736000", "111403.736000", "111405.737000", "111407.736000", "111409.737000", "111411.737000", "111413.736000", "111415.736000", "111417.736000", "111419.736000", "111421.737000", "111423.738000", "111425.736000", "111427.736000", "111429.736000", "111431.736000", "111433.736000", "111435.736000", "111437.736000", "111439.738000", "111441.738000", "111444.236000", "111445.736000", "111447.736000", "111449.736000", "111451.737000", "111453.736000", "111455.736000", "111457.737000", "111459.737000", "111501.736000", "111503.736000", "111505.737000", "111507.736000", "111509.736000", "111511.737000", "111513.736000", "111515.738000", "111517.736000", "111519.737000", "111521.736000", "111523.736000", "111525.737000", "111527.736000", "111529.736000", "111531.736000", "111533.737000", "111535.736000", "111537.737000", "111539.737000", "111541.737000", "111543.737000", "111545.737000", "111547.736000", "111549.737000", "111551.738000", "111553.736000", "111555.737000", "111557.736000", "111559.736000", "111601.736000", "111603.736000", "111605.737000", "111607.737000", "111609.738000", "111611.736000", "111613.736000", "111615.737000", "111617.736000", "111619.737000", "111621.736000", "111623.736000", "111625.737000", "111627.736000", "111629.736000", "111631.737000", "111633.736000", "111635.737000", "111637.736000", "111639.736000", "111641.737000", "111643.737000", "111645.736000", "111647.736000", "111649.737000", "111651.736000", "111653.737000", "111655.737000", "111657.736000", "111659.737000", "111701.738000", "111703.736000", "111705.736000", "111707.737000", "111709.736000", "111711.736000", "111713.736000", "111715.737000", "111717.738000", "111719.737000", "111721.736000", "111723.736000", "111725.736000", "111727.736000", "111729.736000", "111731.736000", "111733.736000", "111735.738000", "111737.737000", "111739.736000", "111741.737000", "111743.736000", "111745.736000", "111747.736000", "111749.736000", "111751.737000", "111753.737000", "111755.737000", "111757.736000", "111759.737000", "111801.736000", "111803.736000", "111805.737000", "111807.736000", "111809.737000", "111811.737000", "111813.736000", "111815.736000", "111817.736000", "111819.736000", "111821.736000", "111823.737000", "111825.736000", "111827.738000", "111829.738000", "111831.737000", "111833.736000", "111835.736000", "111837.737000", "111839.737000", "111841.736000", "111843.736000", "111845.737000", "111847.737000", "111849.736000", "111851.736000", "111853.737000", "111855.737000", "111857.736000", "111859.737000", "111901.736000", "111903.737000", "111905.535000"],
      "InstanceNumber": [1, 2, 3, 4, 5, 6, 7, 8, 9, 10, 11, 12, 13, 14, 15, 16, 17, 18, 19, 20, 21, 22, 23, 24, 25, 26, 27, 28, 29, 30, 31, 32, 33, 34, 35, 36, 37, 38, 39, 40, 41, 42, 43, 44, 45, 46, 47, 48, 49, 50, 51, 52, 53, 54, 55, 56, 57, 58, 59, 60, 61, 62, 63, 64, 65, 66, 67, 68, 69, 70, 71, 72, 73, 74, 75, 76, 77, 78, 79, 80, 81, 82, 83, 84, 85, 86, 87, 88, 89, 90, 91, 92, 93, 94, 95, 96, 97, 98, 99, 100, 101, 102, 103, 104, 105, 106, 107, 108, 109, 110, 111, 112, 113, 114, 115, 116, 117, 118, 119, 120, 121, 122, 123, 124, 125, 126, 127, 128, 129, 130, 131, 132, 133, 134, 135, 136, 137, 138, 139, 140, 141, 142, 143, 144, 145, 146, 147, 148, 149, 150, 151, 152, 153, 154, 155, 156, 157, 158, 159, 160, 161, 162, 163, 164, 165, 166, 167, 168, 169, 170, 171, 172, 173, 174, 175, 176, 177, 178, 179, 180, 181, 182, 183, 184, 185, 186, 187, 188, 189, 190, 191, 192, 193, 194, 195, 196, 197, 198, 199, 200, 201, 202, 203, 204, 205, 206, 207, 208, 209, 210, 211, 212, 213, 214, 215, 216, 217, 218, 219, 220, 221, 222, 223, 224, 225, 226, 227, 228, 229, 230, 231, 232],
      "LargestImagePixelValue": [4095, 4095, 4095, 4095, 4095, 4095, 4095, 4095, 4095, 4095, 4095, 4095, 4095, 4095, 4095, 4095, 4095, 4095, 4095, 4095, 4095, 4095, 4095, 4095, 4095, 4095, 4095, 4095, 4095, 4095, 4095, 4095, 4095, 4095, 4095, 4095, 4095, 4095, 4095, 4095, 4095, 4050, 4095, 4095, 4095, 4095, 4056, 4095, 4095, 4095, 4095, 4095, 4095, 4095, 3970, 4095, 4095, 4095, 4095, 4095, 4095, 4095, 4095, 4095, 4095, 4095, 4095, 4095, 4095, 4095, 4095, 4095, 4095, 4095, 4095, 4095, 4095, 4086, 4095, 4095, 4095, 4095, 4095, 4095, 4095, 4095, 4095, 4095, 4095, 4095, 4095, 4095, 4095, 4095, 4095, 4095, 4095, 4073, 4095, 4095, 4085, 4095, 4092, 4090, 4095, 4095, 4095, 4095, 4095, 4095, 4095, 4095, 4095, 4095, 4095, 4095, 4095, 4095, 4095, 4095, 4095, 4095, 4095, 4095, 4095, 4095, 4095, 4095, 4095, 4095, 4095, 4095, 4095, 4095, 4095, 4095, 4095, 4095, 4095, 4095, 4095, 4095, 4095, 4095, 4095, 4095, 4095, 4095, 4095, 4095, 4095, 4095, 4095, 4095, 4095, 4095, 4095, 4095, 4095, 4095, 4095, 4095, 4095, 4095, 4095, 4095, 4095, 4095, 4095, 4095, 4095, 4095, 4095, 4095, 4095, 4095, 4095, 4095, 4095, 4095, 4095, 4095, 4095, 4095, 4095, 4095, 4095, 4095, 4095, 4095, 4095, 4095, 4095, 4095, 4095, 4095, 4095, 4095, 4095, 4095, 4095, 4095, 4095, 4095, 4095, 4095, 4095, 4095, 4095, 4095, 4095, 4095, 4095, 4095, 4095, 4095, 4095, 4095, 4095, 4095, 4095, 4095, 4095, 4095, 4095, 4095, 4095, 4095, 4095, 4095, 4095, 4095],
      "WindowCenter": [853.0, 851.0, 851.0, 850.0, 850.0, 850.0, 851.0, 851.0, 851.0, 852.0, 853.0, 853.0, 852.0, 851.0, 850.0, 849.0, 849.0, 850.0, 850.0, 850.0, 849.0, 849.0, 850.0, 850.0, 851.0, 851.0, 852.0, 852.0, 851.0, 852.0, 851.0, 851.0, 850.0, 852.0, 852.0, 851.0, 850.0, 851.0, 852.0, 852.0, 851.0, 850.0, 851.0, 851.0, 851.0, 852.0, 851.0, 850.0, 849.0, 851.0, 852.0, 852.0, 849.0, 849.0, 845.0, 847.0, 851.0, 850.0, 850.0, 851.0, 851.0, 852.0, 852.0, 851.0, 851.0, 852.0, 852.0, 851.0, 850.0, 850.0, 850.0, 850.0, 849.0, 849.0, 849.0, 849.0, 850.0, 850.0, 849.0, 849.0, 849.0, 849.0, 848.0, 848.0, 849.0, 850.0, 849.0, 850.0, 850.0, 851.0, 851.0, 852.0, 852.0, 853.0, 852.0, 851.0, 852.0, 852.0, 852.0, 853.0, 853.0, 854.0, 854.0, 853.0, 853.0, 853.0, 854.0, 855.0, 854.0, 853.0, 852.0, 852.0, 853.0, 852.0, 852.0, 851.0, 851.0, 850.0, 849.0, 850.0, 850.0, 850.0, 851.0, 850.0, 849.0, 850.0, 851.0, 851.0, 849.0, 848.0, 847.0, 848.0, 850.0, 851.0, 851.0, 851.0, 851.0, 851.0, 850.0, 850.0, 850.0, 850.0, 850.0, 850.0, 851.0, 852.0, 852.0, 853.0, 853.0, 853.0, 853.0, 853.0, 853.0, 853.0, 853.0, 854.0, 854.0, 854.0, 854.0, 853.0, 852.0, 852.0, 852.0, 852.0, 850.0, 850.0, 850.0, 851.0, 851.0, 851.0, 851.0, 850.0, 850.0, 851.0, 850.0, 850.0, 850.0, 849.0, 851.0, 848.0, 850.0, 849.0, 851.0, 850.0, 850.0, 849.0, 850.0, 850.0, 851.0, 851.0, 852.0, 853.0, 853.0, 854.0, 854.0, 853.0, 852.0, 853.0, 853.0, 853.0, 853.0, 852.0, 851.0, 852.0, 852.0, 850.0, 848.0, 848.0, 850.0, 849.0, 848.0, 848.0, 848.0, 849.0, 850.0, 849.0, 849.0, 850.0, 851.0, 851.0, 851.0, 851.0, 851.0, 851.0, 852.0, 854.0, 853.0, 851.0, 851.0, 851.0, 851.0, 851.0],
      "WindowWidth": [1853.0, 1846.0, 1844.0, 1842.0, 1843.0, 1843.0, 1844.0, 1845.0, 1846.0, 1847.0, 1851.0, 1851.0, 1848.0, 1844.0, 1842.0, 1841.0, 1840.0, 1842.0, 1842.0, 1841.0, 1840.0, 1841.0, 1841.0, 1842.0, 1845.0, 1845.0, 1846.0, 1846.0, 1845.0, 1846.0, 1845.0, 1844.0, 1842.0, 1846.0, 1847.0, 1843.0, 1841.0, 1845.0, 1846.0, 1847.0, 1846.0, 1842.0, 1845.0, 1845.0, 1845.0, 1847.0, 1843.0, 1841.0, 1840.0, 1843.0, 1846.0, 1845.0, 1838.0, 1839.0, 1829.0, 1834.0, 1845.0, 1842.0, 1842.0, 1843.0, 1845.0, 1845.0, 1846.0, 1845.0, 1845.0, 1847.0, 1848.0, 1844.0, 1842.0, 1842.0, 1842.0, 1841.0, 1839.0, 1838.0, 1839.0, 1840.0, 1842.0, 1843.0, 1840.0, 1839.0, 1840.0, 1840.0, 1837.0, 1837.0, 1838.0, 1841.0, 1840.0, 1841.0, 1843.0, 1845.0, 1845.0, 1848.0, 1846.0, 1850.0, 1847.0, 1845.0, 1848.0, 1848.0, 1848.0, 1849.0, 1851.0, 1852.0, 1851.0, 1850.0, 1850.0, 1849.0, 1851.0, 1855.0, 1853.0, 1850.0, 1847.0, 1847.0, 1849.0, 1848.0, 1846.0, 1845.0, 1844.0, 1842.0, 1839.0, 1840.0, 1840.0, 1842.0, 1844.0, 1841.0, 1839.0, 1841.0, 1843.0, 1843.0, 1837.0, 1836.0, 1835.0, 1837.0, 1840.0, 1845.0, 1845.0, 1843.0, 1844.0, 1844.0, 1842.0, 1841.0, 1842.0, 1842.0, 1842.0, 1841.0, 1844.0, 1846.0, 1846.0, 1848.0, 1849.0, 1849.0, 1850.0, 1849.0, 1849.0, 1848.0, 1849.0, 1851.0, 1852.0, 1852.0, 1852.0, 1850.0, 1848.0, 1847.0, 1847.0, 1846.0, 1842.0, 1842.0, 1842.0, 1843.0, 1843.0, 1843.0, 1844.0, 1842.0, 1842.0, 1844.0, 1843.0, 1841.0, 1842.0, 1839.0, 1845.0, 1836.0, 1841.0, 1839.0, 1844.0, 1841.0, 1843.0, 1839.0, 1842.0, 1843.0, 1843.0, 1845.0, 1847.0, 1850.0, 1849.0, 1852.0, 1852.0, 1849.0, 1847.0, 1848.0, 1848.0, 1849.0, 1848.0, 1847.0, 1845.0, 1848.0, 1846.0, 1842.0, 1837.0, 1837.0, 1841.0, 1840.0, 1837.0, 1837.0, 1837.0, 1840.0, 1842.0, 1838.0, 1838.0, 1841.0, 1843.0, 1844.0, 1845.0, 1845.0, 1844.0, 1845.0, 1846.0, 1851.0, 1850.0, 1845.0, 1844.0, 1845.0, 1845.0, 1843.0]
    },
    "slices": {}
  }
}