{
  "AcquisitionMatrixPE": 100,
  "AcquisitionNumber": 1,
  "AcquisitionTime": "11:02:52.312500",
  "BandwidthPerPixelPhaseEncode": 18.519,
  "BaseResolution": 100,
  "BodyPartExamined": "BRAIN",
  "ConsistencyInfo": "N4_VE11C_LATEST_20160120",
  "ConversionSoftware": "dcm2niix",
  "ConversionSoftwareVersion": "v1.0.20180622 GCC4.9.2",
  "DerivedVendorReportedEchoSpacing": 0.000539986,
  "DeviceSerialNumber": "166078",
  "DwellTime": 2.1e-06,
  "EchoTime": 0.034,
  "EchoTrainLength": 100,
  "EffectiveEchoSpacing": 0.000539986,
  "FlipAngle": 90,
  "ImageOrientationPatientDICOM": [0.999744, 0.0128455, 0.0186346, -0.00872464, 0.978431, -0.206389],
  "ImageType": [
    "ORIGINAL",
    "PRIMARY",
    "M",
    "ND",
    "MOSAIC"
],
  "InPlanePhaseEncodingDirectionDICOM": "COL",
  "InstitutionAddress": "Street_StreetNo_Bei_Jing_District_CN_ZIP",
  "InstitutionName": "BeiJing_Normal_University",
  "InstitutionalDepartmentName": "Department",
  "MRAcquisitionType": "2D",
  "MagneticFieldStrength": 3,
  "Manufacturer": "Siemens",
  "ManufacturersModelName": "Prisma",
  "Modality": "MR",
  "MultibandAccelerationFactor": 3,
  "PartialFourier": 1,
  "PatientPosition": "HFS",
  "PercentPhaseFOV": 100,
  "PhaseEncodingDirection": "j-",
  "PhaseEncodingSteps": 100,
  "PhaseResolution": 1,
  "PixelBandwidth": 2380,
  "ProcedureStepDescription": "BNU_P2018_64CH_Liu.Jia",
  "ProtocolName": "bold_100x100_s3_2x2x2_232",
  "PulseSequenceDetails": "%SiemensSeq%_ep2d_bold",
  "ReceiveCoilActiveElements": "HC1-7;NC1",
  "ReceiveCoilName": "HeadNeck_64",
  "ReconMatrixPE": 100,
  "RepetitionTime": 2,
  "SAR": 0.0614114,
  "ScanOptions": "FS",
  "ScanningSequence": "EP",
  "SequenceName": "_epfid2d1_100",
  "SequenceVariant": "SK",
  "SeriesDescription": "bold_100x100_s3_2x2x2_232",
  "SeriesNumber": 9,
  "ShimSetting": [-5456, -11497, -1203, 257, -16, -170, -96, 62],
  "SliceThickness": 2,
  "SliceTiming": [1.485, 0, 0.99, 0.0825, 1.0725, 0.165, 1.155, 0.2475, 1.2375, 0.33, 1.32, 0.4125, 1.4025, 0.5775, 1.5675, 0.66, 1.65, 0.7425, 1.7325, 0.825, 1.815, 0.9075, 1.8975, 0.495, 1.485, 0, 0.99, 0.0825, 1.0725, 0.165, 1.155, 0.2475, 1.2375, 0.33, 1.32, 0.4125, 1.4025, 0.5775, 1.5675, 0.66, 1.65, 0.7425, 1.7325, 0.825, 1.815, 0.9075, 1.8975, 0.495, 1.485, 0, 0.99, 0.0825, 1.0725, 0.165, 1.155, 0.2475, 1.2375, 0.33, 1.32, 0.4125, 1.4025, 0.5775, 1.5675, 0.66, 1.65, 0.7425, 1.7325, 0.825, 1.815, 0.9075, 1.8975, 0.495],
  "SoftwareVersions": "syngo_MR_E11",
  "SpacingBetweenSlices": 2,
  "StationName": "AWP166078",
  "TaskName": "motor",
  "TotalReadoutTime": 0.0534586,
  "TxRefAmp": 227.69,
  "dcmmeta_affine": [
    [-1.9994876384735107, -0.01744927652180195, 0.041767727583646774, 101.99972534179688],
    [-0.025690900161862373, 1.956862211227417, -0.4123472273349762, -78.60637664794922],
    [0.037269264459609985, 0.4127781391143799, 1.9565850496292114, -84.70195007324219],
    [0.0, 0.0, 0.0, 1.0]
],
  "dcmmeta_reorient_transform": [
    [0.0, -1.0, 0.0, 99.0],
    [1.0, 0.0, 0.0, 0.0],
    [0.0, 0.0, 1.0, 0.0],
    [0.0, 0.0, 0.0, 1.0]
],
  "dcmmeta_shape": [100, 100, 72, 232],
  "dcmmeta_slice_dim": 2,
  "dcmmeta_version": 0.6,
  "global": {
    "const": {
      "AcquisitionMatrix": [100, 0, 0, 100],
      "AngioFlag": "N",
      "BitsAllocated": 16,
      "BitsStored": 12,
      "BodyPartExamined": "BRAIN",
      "Columns": 900,
      "EchoNumbers": 1,
      "EchoTime": 34.0,
      "EchoTrainLength": 100,
      "FlipAngle": 90.0,
      "HighBit": 11,
      "ImageOrientationPatient": [0.999743839634, 0.01284545019558, 0.01863463235851, -0.0087246386687, 0.9784311090671, -0.2063890633969],
      "ImagePositionPatient": [-893.08761067792, -908.14423414696, 106.36662984125],
      "ImageType": [
        "ORIGINAL",
        "PRIMARY",
        "M",
        "ND",
        "MOSAIC"
],
      "ImagedNucleus": "1H",
      "ImagingFrequency": 123.257825,
      "InPlanePhaseEncodingDirection": "COL",
      "MRAcquisitionType": "2D",
      "MagneticFieldStrength": 3.0,
      "Manufacturer": "SIEMENS",
      "ManufacturerModelName": "Prisma",
      "Modality": "MR",
      "NumberOfAverages": 1.0,
      "NumberOfPhaseEncodingSteps": 100,
      "PercentPhaseFieldOfView": 100.0,
      "PercentSampling": 100.0,
      "PerformedProcedureStepStartTime": "101945.694000",
      "PhotometricInterpretation": "MONOCHROME2",
      "PixelBandwidth": 2380.0,
      "PixelRepresentation": 0,
      "PixelSpacing": [2.0, 2.0],
      "ProtocolName": "bold_100x100_s3_2x2x2_232",
      "RepetitionTime": 2000.0,
      "Rows": 900,
      "SAR": 0.06141136615443,
      "SamplesPerPixel": 1,
      "ScanOptions": "FS",
      "ScanningSequence": "EP",
      "SequenceName": "*epfid2d1_100",
      "SequenceVariant": "SK",
      "SeriesDescription": "bold_100x100_s3_2x2x2_232",
      "SeriesNumber": 9,
      "SeriesTime": "110255.197000",
      "SliceLocation": -64.526577347298,
      "SliceThickness": 2.0,
      "SmallestImagePixelValue": 0,
      "SoftwareVersions": "syngo MR E11",
      "SpacingBetweenSlices": 2.0000000003564,
      "SpecificCharacterSet": "ISO_IR 100",
      "StudyID": "1",
      "StudyTime": "101945.586000",
      "TransmitCoilName": "Body",
      "VariableFlipAngleFlag": "N",
      "WindowCenterWidthExplanation": "Algo1",
      "dBdt": 0.0},
    "slices": {}
  },
  "time": {
    "samples": {
      "AcquisitionNumber": [1, 2, 3, 4, 5, 6, 7, 8, 9, 10, 11, 12, 13, 14, 15, 16, 17, 18, 19, 20, 21, 22, 23, 24, 25, 26, 27, 28, 29, 30, 31, 32, 33, 34, 35, 36, 37, 38, 39, 40, 41, 42, 43, 44, 45, 46, 47, 48, 49, 50, 51, 52, 53, 54, 55, 56, 57, 58, 59, 60, 61, 62, 63, 64, 65, 66, 67, 68, 69, 70, 71, 72, 73, 74, 75, 76, 77, 78, 79, 80, 81, 82, 83, 84, 85, 86, 87, 88, 89, 90, 91, 92, 93, 94, 95, 96, 97, 98, 99, 100, 101, 102, 103, 104, 105, 106, 107, 108, 109, 110, 111, 112, 113, 114, 115, 116, 117, 118, 119, 120, 121, 122, 123, 124, 125, 126, 127, 128, 129, 130, 131, 132, 133, 134, 135, 136, 137, 138, 139, 140, 141, 142, 143, 144, 145, 146, 147, 148, 149, 150, 151, 152, 153, 154, 155, 156, 157, 158, 159, 160, 161, 162, 163, 164, 165, 166, 167, 168, 169, 170, 171, 172, 173, 174, 175, 176, 177, 178, 179, 180, 181, 182, 183, 184, 185, 186, 187, 188, 189, 190, 191, 192, 193, 194, 195, 196, 197, 198, 199, 200, 201, 202, 203, 204, 205, 206, 207, 208, 209, 210, 211, 212, 213, 214, 215, 216, 217, 218, 219, 220, 221, 222, 223, 224, 225, 226, 227, 228, 229, 230, 231, 232],
      "AcquisitionTime": ["110252.312500", "110254.312500", "110256.312500", "110258.312500", "110300.312500", "110302.312500", "110304.312500", "110306.312500", "110308.312500", "110310.312500", "110312.312500", "110314.312500", "110316.312500", "110318.312500", "110320.312500", "110322.312500", "110324.312500", "110326.312500", "110328.312500", "110330.312500", "110332.312500", "110334.312500", "110336.312500", "110338.312500", "110340.312500", "110342.312500", "110344.312500", "110346.312500", "110348.312500", "110350.312500", "110352.312500", "110354.312500", "110356.312500", "110358.312500", "110400.312500", "110402.312500", "110404.312500", "110406.312500", "110408.312500", "110410.312500", "110412.312500", "110414.312500", "110416.312500", "110418.312500", "110420.312500", "110422.312500", "110424.312500", "110426.312500", "110428.312500", "110430.312500", "110432.312500", "110434.312500", "110436.312500", "110438.312500", "110440.312500", "110442.312500", "110444.312500", "110446.312500", "110448.312500", "110450.312500", "110452.312500", "110454.312500", "110456.312500", "110458.312500", "110500.312500", "110502.312500", "110504.312500", "110506.312500", "110508.312500", "110510.312500", "110512.312500", "110514.312500", "110516.312500", "110518.312500", "110520.312500", "110522.312500", "110524.312500", "110526.312500", "110528.312500", "110530.312500", "110532.312500", "110534.312500", "110536.312500", "110538.312500", "110540.312500", "110542.312500", "110544.312500", "110546.312500", "110548.312500", "110550.312500", "110552.312500", "110554.312500", "110556.312500", "110558.312500", "110600.312500", "110602.312500", "110604.312500", "110606.312500", "110608.312500", "110610.312500", "110612.312500", "110614.312500", "110616.312500", "110618.312500", "110620.312500", "110622.312500", "110624.312500", "110626.312500", "110628.312500", "110630.312500", "110632.312500", "110634.312500", "110636.312500", "110638.312500", "110640.312500", "110642.312500", "110644.312500", "110646.312500", "110648.312500", "110650.312500", "110652.312500", "110654.312500", "110656.312500", "110658.312500", "110700.312500", "110702.312500", "110704.312500", "110706.312500", "110708.312500", "110710.312500", "110712.312500", "110714.312500", "110716.312500", "110718.312500", "110720.312500", "110722.312500", "110724.312500", "110726.312500", "110728.312500", "110730.312500", "110732.312500", "110734.312500", "110736.312500", "110738.312500", "110740.312500", "110742.312500", "110744.312500", "110746.312500", "110748.312500", "110750.312500", "110752.312500", "110754.312500", "110756.312500", "110758.312500", "110800.312500", "110802.312500", "110804.312500", "110806.312500", "110808.312500", "110810.312500", "110812.312500", "110814.312500", "110816.312500", "110818.312500", "110820.312500", "110822.312500", "110824.312500", "110826.312500", "110828.312500", "110830.312500", "110832.312500", "110834.312500", "110836.312500", "110838.312500", "110840.312500", "110842.312500", "110844.312500", "110846.312500", "110848.312500", "110850.312500", "110852.312500", "110854.312500", "110856.312500", "110858.312500", "110900.312500", "110902.312500", "110904.312500", "110906.312500", "110908.312500", "110910.312500", "110912.312500", "110914.312500", "110916.312500", "110918.312500", "110920.312500", "110922.312500", "110924.312500", "110926.312500", "110928.312500", "110930.312500", "110932.312500", "110934.312500", "110936.312500", "110938.312500", "110940.312500", "110942.312500", "110944.312500", "110946.312500", "110948.312500", "110950.312500", "110952.312500", "110954.312500", "110956.312500", "110958.312500", "111000.312500", "111002.312500", "111004.312500", "111006.312500", "111008.312500", "111010.312500", "111012.312500", "111014.312500", "111016.312500", "111018.312500", "111020.312500", "111022.312500", "111024.312500", "111026.312500", "111028.312500", "111030.312500", "111032.312500", "111034.312500"],
      "ContentTime": ["110255.201000", "110256.696000", "110258.695000", "110300.696000", "110302.696000", "110304.697000", "110306.696000", "110308.697000", "110310.696000", "110312.696000", "110314.696000", "110316.695000", "110318.696000", "110320.696000", "110322.697000", "110324.696000", "110326.696000", "110328.696000", "110330.696000", "110332.696000", "110334.695000", "110336.697000", "110338.696000", "110340.696000", "110342.697000", "110344.697000", "110346.696000", "110348.696000", "110350.696000", "110352.695000", "110354.696000", "110356.696000", "110358.696000", "110400.696000", "110402.696000", "110404.696000", "110406.696000", "110408.695000", "110410.697000", "110412.696000", "110414.696000", "110416.696000", "110418.696000", "110420.696000", "110422.696000", "110424.706000", "110426.696000", "110428.696000", "110430.697000", "110432.697000", "110434.697000", "110436.697000", "110438.696000", "110440.697000", "110442.696000", "110444.696000", "110446.696000", "110448.696000", "110450.696000", "110452.696000", "110454.696000", "110456.696000", "110458.696000", "110500.697000", "110502.696000", "110504.696000", "110506.696000", "110508.697000", "110510.696000", "110512.696000", "110514.697000", "110516.696000", "110518.696000", "110520.696000", "110522.697000", "110524.697000", "110526.696000", "110528.696000", "110530.696000", "110532.696000", "110534.697000", "110536.695000", "110538.696000", "110540.696000", "110542.696000", "110544.697000", "110546.696000", "110548.697000", "110550.697000", "110552.696000", "110554.695000", "110556.700000", "110558.696000", "110600.697000", "110602.696000", "110604.696000", "110606.696000", "110608.696000", "110610.696000", "110612.696000", "110614.696000", "110616.696000", "110618.697000", "110620.697000", "110622.696000", "110624.696000", "110626.696000", "110628.695000", "110630.696000", "110632.697000", "110634.697000", "110636.696000", "110638.696000", "110640.696000", "110642.696000", "110644.697000", "110646.695000", "110648.696000", "110650.697000", "110652.696000", "110654.696000", "110656.696000", "110658.696000", "110700.696000", "110702.696000", "110704.695000", "110706.697000", "110708.696000", "110710.697000", "110712.696000", "110714.696000", "110716.697000", "110718.697000", "110720.696000", "110722.697000", "110724.697000", "110726.696000", "110728.696000", "110730.696000", "110732.697000", "110734.696000", "110736.696000", "110738.695000", "110740.696000", "110742.696000", "110744.696000", "110746.697000", "110748.696000", "110750.697000", "110752.697000", "110754.696000", "110756.695000", "110758.697000", "110800.696000", "110802.696000", "110804.697000", "110806.696000", "110808.696000", "110810.697000", "110812.696000", "110814.695000", "110816.696000", "110818.697000", "110820.696000", "110822.697000", "110824.696000", "110826.696000", "110828.696000", "110830.696000", "110832.696000", "110834.697000", "110836.697000", "110838.696000", "110840.696000", "110842.696000", "110844.697000", "110846.697000", "110848.696000", "110850.697000", "110852.697000", "110854.696000", "110856.696000", "110858.697000", "110900.696000", "110902.697000", "110904.696000", "110906.695000", "110908.696000", "110910.696000", "110912.696000", "110914.696000", "110916.696000", "110918.696000", "110920.697000", "110922.696000", "110924.696000", "110926.697000", "110928.696000", "110930.697000", "110932.696000", "110934.696000", "110936.697000", "110938.696000", "110940.696000", "110942.697000", "110944.697000", "110946.696000", "110948.697000", "110950.696000", "110952.712000", "110954.697000", "110956.697000", "110958.695000", "111000.697000", "111002.697000", "111004.696000", "111006.696000", "111008.696000", "111010.696000", "111012.696000", "111014.696000", "111016.695000", "111018.696000", "111020.697000", "111022.696000", "111024.696000", "111026.696000", "111028.697000", "111030.697000", "111032.697000", "111034.695000", "111036.448000"],
      "InstanceCreationTime": ["110255.201000", "110256.696000", "110258.695000", "110300.696000", "110302.696000", "110304.697000", "110306.696000", "110308.697000", "110310.696000", "110312.696000", "110314.696000", "110316.695000", "110318.696000", "110320.696000", "110322.697000", "110324.696000", "110326.696000", "110328.696000", "110330.696000", "110332.696000", "110334.695000", "110336.697000", "110338.696000", "110340.696000", "110342.697000", "110344.697000", "110346.696000", "110348.696000", "110350.696000", "110352.695000", "110354.696000", "110356.696000", "110358.696000", "110400.696000", "110402.696000", "110404.696000", "110406.696000", "110408.695000", "110410.697000", "110412.696000", "110414.696000", "110416.696000", "110418.696000", "110420.696000", "110422.696000", "110424.706000", "110426.696000", "110428.696000", "110430.697000", "110432.697000", "110434.697000", "110436.697000", "110438.696000", "110440.697000", "110442.696000", "110444.696000", "110446.696000", "110448.696000", "110450.696000", "110452.696000", "110454.696000", "110456.696000", "110458.696000", "110500.697000", "110502.696000", "110504.696000", "110506.696000", "110508.697000", "110510.696000", "110512.696000", "110514.697000", "110516.696000", "110518.696000", "110520.696000", "110522.697000", "110524.697000", "110526.696000", "110528.696000", "110530.696000", "110532.696000", "110534.697000", "110536.695000", "110538.696000", "110540.696000", "110542.696000", "110544.697000", "110546.696000", "110548.697000", "110550.697000", "110552.696000", "110554.695000", "110556.700000", "110558.696000", "110600.697000", "110602.696000", "110604.696000", "110606.696000", "110608.696000", "110610.696000", "110612.696000", "110614.696000", "110616.696000", "110618.697000", "110620.697000", "110622.696000", "110624.696000", "110626.696000", "110628.695000", "110630.696000", "110632.697000", "110634.697000", "110636.696000", "110638.696000", "110640.696000", "110642.696000", "110644.697000", "110646.695000", "110648.696000", "110650.697000", "110652.696000", "110654.696000", "110656.696000", "110658.696000", "110700.696000", "110702.696000", "110704.695000", "110706.697000", "110708.696000", "110710.697000", "110712.696000", "110714.696000", "110716.697000", "110718.697000", "110720.696000", "110722.697000", "110724.697000", "110726.696000", "110728.696000", "110730.696000", "110732.697000", "110734.696000", "110736.696000", "110738.695000", "110740.696000", "110742.696000", "110744.696000", "110746.697000", "110748.696000", "110750.697000", "110752.697000", "110754.696000", "110756.695000", "110758.697000", "110800.696000", "110802.696000", "110804.697000", "110806.696000", "110808.696000", "110810.697000", "110812.696000", "110814.695000", "110816.696000", "110818.697000", "110820.696000", "110822.697000", "110824.696000", "110826.696000", "110828.696000", "110830.696000", "110832.696000", "110834.697000", "110836.697000", "110838.696000", "110840.696000", "110842.696000", "110844.697000", "110846.697000", "110848.696000", "110850.697000", "110852.697000", "110854.696000", "110856.696000", "110858.697000", "110900.696000", "110902.697000", "110904.696000", "110906.695000", "110908.696000", "110910.696000", "110912.696000", "110914.696000", "110916.696000", "110918.696000", "110920.697000", "110922.696000", "110924.696000", "110926.697000", "110928.696000", "110930.697000", "110932.696000", "110934.696000", "110936.697000", "110938.696000", "110940.696000", "110942.697000", "110944.697000", "110946.696000", "110948.697000", "110950.696000", "110952.712000", "110954.697000", "110956.697000", "110958.695000", "111000.697000", "111002.697000", "111004.696000", "111006.696000", "111008.696000", "111010.696000", "111012.696000", "111014.696000", "111016.695000", "111018.696000", "111020.697000", "111022.696000", "111024.696000", "111026.696000", "111028.697000", "111030.697000", "111032.697000", "111034.695000", "111036.448000"],
      "InstanceNumber": [1, 2, 3, 4, 5, 6, 7, 8, 9, 10, 11, 12, 13, 14, 15, 16, 17, 18, 19, 20, 21, 22, 23, 24, 25, 26, 27, 28, 29, 30, 31, 32, 33, 34, 35, 36, 37, 38, 39, 40, 41, 42, 43, 44, 45, 46, 47, 48, 49, 50, 51, 52, 53, 54, 55, 56, 57, 58, 59, 60, 61, 62, 63, 64, 65, 66, 67, 68, 69, 70, 71, 72, 73, 74, 75, 76, 77, 78, 79, 80, 81, 82, 83, 84, 85, 86, 87, 88, 89, 90, 91, 92, 93, 94, 95, 96, 97, 98, 99, 100, 101, 102, 103, 104, 105, 106, 107, 108, 109, 110, 111, 112, 113, 114, 115, 116, 117, 118, 119, 120, 121, 122, 123, 124, 125, 126, 127, 128, 129, 130, 131, 132, 133, 134, 135, 136, 137, 138, 139, 140, 141, 142, 143, 144, 145, 146, 147, 148, 149, 150, 151, 152, 153, 154, 155, 156, 157, 158, 159, 160, 161, 162, 163, 164, 165, 166, 167, 168, 169, 170, 171, 172, 173, 174, 175, 176, 177, 178, 179, 180, 181, 182, 183, 184, 185, 186, 187, 188, 189, 190, 191, 192, 193, 194, 195, 196, 197, 198, 199, 200, 201, 202, 203, 204, 205, 206, 207, 208, 209, 210, 211, 212, 213, 214, 215, 216, 217, 218, 219, 220, 221, 222, 223, 224, 225, 226, 227, 228, 229, 230, 231, 232],
      "LargestImagePixelValue": [4095, 4095, 4095, 4095, 4095, 4095, 4095, 4095, 4095, 4095, 4095, 4095, 4095, 4095, 4095, 4095, 4070, 4095, 4077, 4095, 4095, 4086, 4095, 4095, 4079, 4095, 4083, 4059, 4095, 4050, 4095, 4092, 4036, 4036, 4074, 4084, 4073, 4095, 4081, 4095, 4095, 4051, 4095, 4095, 4095, 4059, 4095, 4024, 4093, 4071, 4079, 4095, 4095, 4095, 4071, 4095, 4050, 4048, 4021, 4061, 4061, 4087, 4095, 4095, 4095, 4095, 4095, 4071, 4095, 4095, 4095, 4095, 4095, 4095, 4095, 4095, 4095, 4095, 4095, 4095, 4095, 4095, 4095, 4088, 4095, 4095, 4095, 4095, 4095, 4044, 4049, 4040, 4086, 4014, 4046, 4095, 4095, 4095, 4095, 4095, 4095, 4052, 4095, 4095, 4095, 4095, 4095, 4095, 4095, 4095, 4095, 4088, 4047, 4048, 4060, 4068, 4089, 4071, 4055, 4061, 4029, 4071, 4030, 4075, 4024, 4058, 4068, 4046, 4095, 4095, 4095, 4095, 4095, 4095, 4095, 4095, 4095, 4095, 4095, 4095, 4095, 4095, 4095, 4095, 4095, 4095, 4095, 4095, 4095, 4095, 4095, 4095, 4095, 4095, 4095, 4095, 4095, 4095, 4095, 4095, 4095, 4095, 4095, 4095, 4095, 4095, 4095, 4095, 4095, 4095, 4095, 4095, 4095, 4095, 4095, 4095, 4095, 4095, 4095, 4095, 4095, 4095, 4095, 4095, 4095, 4095, 4095, 4095, 4095, 4095, 4061, 4095, 4095, 4095, 4095, 4095, 4095, 4095, 4095, 4095, 4095, 4095, 3995, 4095, 4095, 4095, 3994, 4095, 4095, 4095, 4095, 4095, 4095, 4095, 4095, 4095, 4095, 4095, 4095, 4095, 4095, 4095, 4095, 4095, 4095, 4095, 4095, 4095, 4095, 4095, 4095, 4095],
      "WindowCenter": [855.0, 853.0, 852.0, 852.0, 853.0, 853.0, 853.0, 854.0, 853.0, 853.0, 853.0, 853.0, 853.0, 852.0, 852.0, 852.0, 853.0, 854.0, 854.0, 854.0, 853.0, 853.0, 853.0, 853.0, 852.0, 852.0, 852.0, 853.0, 854.0, 853.0, 853.0, 852.0, 852.0, 853.0, 854.0, 855.0, 854.0, 854.0, 852.0, 853.0, 853.0, 853.0, 855.0, 855.0, 854.0, 854.0, 854.0, 853.0, 854.0, 854.0, 853.0, 850.0, 853.0, 850.0, 850.0, 852.0, 852.0, 853.0, 853.0, 853.0, 854.0, 854.0, 854.0, 854.0, 854.0, 854.0, 854.0, 855.0, 855.0, 854.0, 854.0, 854.0, 853.0, 854.0, 854.0, 854.0, 853.0, 853.0, 852.0, 852.0, 852.0, 853.0, 854.0, 855.0, 855.0, 855.0, 855.0, 855.0, 855.0, 854.0, 854.0, 855.0, 856.0, 855.0, 854.0, 854.0, 854.0, 853.0, 852.0, 852.0, 853.0, 853.0, 852.0, 852.0, 853.0, 854.0, 855.0, 856.0, 854.0, 853.0, 852.0, 853.0, 853.0, 854.0, 854.0, 853.0, 853.0, 853.0, 853.0, 852.0, 852.0, 853.0, 854.0, 853.0, 853.0, 852.0, 852.0, 851.0, 852.0, 852.0, 853.0, 853.0, 852.0, 853.0, 853.0, 853.0, 854.0, 854.0, 853.0, 853.0, 852.0, 852.0, 852.0, 852.0, 852.0, 852.0, 853.0, 853.0, 853.0, 852.0, 851.0, 851.0, 852.0, 853.0, 854.0, 855.0, 855.0, 854.0, 854.0, 854.0, 855.0, 854.0, 854.0, 854.0, 854.0, 855.0, 855.0, 854.0, 854.0, 854.0, 854.0, 853.0, 852.0, 852.0, 851.0, 851.0, 851.0, 852.0, 852.0, 853.0, 853.0, 851.0, 850.0, 851.0, 852.0, 851.0, 853.0, 854.0, 854.0, 854.0, 854.0, 854.0, 853.0, 853.0, 853.0, 852.0, 851.0, 851.0, 850.0, 850.0, 851.0, 852.0, 851.0, 852.0, 853.0, 854.0, 853.0, 853.0, 854.0, 854.0, 855.0, 855.0, 855.0, 854.0, 853.0, 853.0, 853.0, 852.0, 852.0, 852.0, 851.0, 851.0, 851.0, 851.0, 850.0, 852.0, 851.0, 849.0, 848.0, 849.0, 850.0, 851.0],
      "WindowWidth": [1856.0, 1851.0, 1848.0, 1848.0, 1849.0, 1850.0, 1850.0, 1852.0, 1849.0, 1848.0, 1849.0, 1849.0, 1849.0, 1847.0, 1847.0, 1848.0, 1849.0, 1852.0, 1853.0, 1852.0, 1851.0, 1850.0, 1851.0, 1850.0, 1848.0, 1847.0, 1849.0, 1850.0, 1852.0, 1849.0, 1848.0, 1848.0, 1848.0, 1849.0, 1852.0, 1853.0, 1852.0, 1850.0, 1847.0, 1848.0, 1850.0, 1850.0, 1856.0, 1856.0, 1852.0, 1852.0, 1852.0, 1850.0, 1851.0, 1851.0, 1850.0, 1842.0, 1850.0, 1842.0, 1842.0, 1846.0, 1846.0, 1848.0, 1848.0, 1850.0, 1852.0, 1853.0, 1853.0, 1853.0, 1853.0, 1852.0, 1853.0, 1856.0, 1854.0, 1853.0, 1852.0, 1852.0, 1850.0, 1852.0, 1852.0, 1852.0, 1850.0, 1848.0, 1847.0, 1846.0, 1847.0, 1849.0, 1853.0, 1856.0, 1854.0, 1854.0, 1854.0, 1854.0, 1854.0, 1853.0, 1853.0, 1855.0, 1858.0, 1855.0, 1852.0, 1852.0, 1851.0, 1850.0, 1848.0, 1848.0, 1850.0, 1849.0, 1848.0, 1847.0, 1849.0, 1853.0, 1856.0, 1857.0, 1852.0, 1848.0, 1847.0, 1848.0, 1849.0, 1850.0, 1851.0, 1850.0, 1850.0, 1849.0, 1848.0, 1848.0, 1847.0, 1850.0, 1851.0, 1850.0, 1849.0, 1847.0, 1845.0, 1845.0, 1846.0, 1847.0, 1848.0, 1849.0, 1846.0, 1849.0, 1850.0, 1850.0, 1852.0, 1852.0, 1850.0, 1848.0, 1847.0, 1847.0, 1846.0, 1846.0, 1846.0, 1847.0, 1848.0, 1850.0, 1849.0, 1846.0, 1843.0, 1845.0, 1847.0, 1849.0, 1852.0, 1854.0, 1854.0, 1852.0, 1852.0, 1853.0, 1854.0, 1853.0, 1852.0, 1851.0, 1853.0, 1855.0, 1854.0, 1853.0, 1853.0, 1853.0, 1852.0, 1850.0, 1847.0, 1845.0, 1844.0, 1842.0, 1842.0, 1845.0, 1847.0, 1850.0, 1848.0, 1845.0, 1841.0, 1845.0, 1847.0, 1845.0, 1848.0, 1851.0, 1852.0, 1853.0, 1852.0, 1852.0, 1848.0, 1849.0, 1849.0, 1847.0, 1845.0, 1843.0, 1841.0, 1841.0, 1843.0, 1848.0, 1844.0, 1846.0, 1849.0, 1852.0, 1848.0, 1848.0, 1849.0, 1852.0, 1854.0, 1853.0, 1853.0, 1851.0, 1847.0, 1847.0, 1849.0, 1846.0, 1846.0, 1846.0, 1843.0, 1844.0, 1844.0, 1843.0, 1842.0, 1845.0, 1844.0, 1839.0, 1836.0, 1839.0, 1841.0, 1842.0]
    },
    "slices": {}
  }
}