{
  "AcquisitionMatrixPE": 100,
  "AcquisitionNumber": 1,
  "AcquisitionTime": "10:42:30.505000",
  "BandwidthPerPixelPhaseEncode": 18.519,
  "BaseResolution": 100,
  "BodyPartExamined": "BRAIN",
  "ConsistencyInfo": "N4_VE11C_LATEST_20160120",
  "ConversionSoftware": "dcm2niix",
  "ConversionSoftwareVersion": "v1.0.20180622 GCC4.9.2",
  "DerivedVendorReportedEchoSpacing": 0.000539986,
  "DeviceSerialNumber": "166078",
  "DwellTime": 2.1e-06,
  "EchoTime": 0.034,
  "EchoTrainLength": 100,
  "EffectiveEchoSpacing": 0.000539986,
  "FlipAngle": 90,
  "ImageOrientationPatientDICOM": [0.999744, 0.0128455, 0.0186346, -0.00872464, 0.978431, -0.206389],
  "ImageType": [
    "ORIGINAL",
    "PRIMARY",
    "M",
    "ND",
    "MOSAIC"
],
  "InPlanePhaseEncodingDirectionDICOM": "COL",
  "InstitutionAddress": "Street_StreetNo_Bei_Jing_District_CN_ZIP",
  "InstitutionName": "BeiJing_Normal_University",
  "InstitutionalDepartmentName": "Department",
  "MRAcquisitionType": "2D",
  "MagneticFieldStrength": 3,
  "Manufacturer": "Siemens",
  "ManufacturersModelName": "Prisma",
  "Modality": "MR",
  "MultibandAccelerationFactor": 3,
  "PartialFourier": 1,
  "PatientPosition": "HFS",
  "PercentPhaseFOV": 100,
  "PhaseEncodingDirection": "j-",
  "PhaseEncodingSteps": 100,
  "PhaseResolution": 1,
  "PixelBandwidth": 2380,
  "ProcedureStepDescription": "BNU_P2018_64CH_Liu.Jia",
  "ProtocolName": "bold_100x100_s3_2x2x2_232",
  "PulseSequenceDetails": "%SiemensSeq%_ep2d_bold",
  "ReceiveCoilActiveElements": "HC1-7;NC1",
  "ReceiveCoilName": "HeadNeck_64",
  "ReconMatrixPE": 100,
  "RepetitionTime": 2,
  "SAR": 0.0614114,
  "ScanOptions": "FS",
  "ScanningSequence": "EP",
  "SequenceName": "_epfid2d1_100",
  "SequenceVariant": "SK",
  "SeriesDescription": "bold_100x100_s3_2x2x2_232",
  "SeriesNumber": 5,
  "ShimSetting": [-5456, -11497, -1203, 257, -16, -170, -96, 62],
  "SliceThickness": 2,
  "SliceTiming": [1.485, 0, 0.99, 0.0825, 1.0725, 0.165, 1.155, 0.2475, 1.2375, 0.33, 1.32, 0.4125, 1.4025, 0.5775, 1.5675, 0.66, 1.65, 0.7425, 1.7325, 0.825, 1.815, 0.9075, 1.8975, 0.495, 1.485, 0, 0.99, 0.0825, 1.0725, 0.165, 1.155, 0.2475, 1.2375, 0.33, 1.32, 0.4125, 1.4025, 0.5775, 1.5675, 0.66, 1.65, 0.7425, 1.7325, 0.825, 1.815, 0.9075, 1.8975, 0.495, 1.485, 0, 0.99, 0.0825, 1.0725, 0.165, 1.155, 0.2475, 1.2375, 0.33, 1.32, 0.4125, 1.4025, 0.5775, 1.5675, 0.66, 1.65, 0.7425, 1.7325, 0.825, 1.815, 0.9075, 1.8975, 0.495],
  "SoftwareVersions": "syngo_MR_E11",
  "SpacingBetweenSlices": 2,
  "StationName": "AWP166078",
  "TaskName": "motor",
  "TotalReadoutTime": 0.0534586,
  "TxRefAmp": 227.69,
  "dcmmeta_affine": [
    [-1.9994876384735107, -0.01744927652180195, 0.041767727583646774, 101.99972534179688],
    [-0.025690900161862373, 1.956862211227417, -0.4123472273349762, -78.60637664794922],
    [0.037269264459609985, 0.4127781391143799, 1.9565850496292114, -84.70195007324219],
    [0.0, 0.0, 0.0, 1.0]
],
  "dcmmeta_reorient_transform": [
    [0.0, -1.0, 0.0, 99.0],
    [1.0, 0.0, 0.0, 0.0],
    [0.0, 0.0, 1.0, 0.0],
    [0.0, 0.0, 0.0, 1.0]
],
  "dcmmeta_shape": [100, 100, 72, 232],
  "dcmmeta_slice_dim": 2,
  "dcmmeta_version": 0.6,
  "global": {
    "const": {
      "AcquisitionMatrix": [100, 0, 0, 100],
      "AngioFlag": "N",
      "BitsAllocated": 16,
      "BitsStored": 12,
      "BodyPartExamined": "BRAIN",
      "Columns": 900,
      "EchoNumbers": 1,
      "EchoTime": 34.0,
      "EchoTrainLength": 100,
      "FlipAngle": 90.0,
      "HighBit": 11,
      "ImageOrientationPatient": [0.999743839634, 0.01284545019558, 0.01863463235851, -0.0087246386687, 0.9784311090671, -0.2063890633969],
      "ImagePositionPatient": [-893.08761067792, -908.14423414696, 106.36662984125],
      "ImageType": [
        "ORIGINAL",
        "PRIMARY",
        "M",
        "ND",
        "MOSAIC"
],
      "ImagedNucleus": "1H",
      "ImagingFrequency": 123.257819,
      "InPlanePhaseEncodingDirection": "COL",
      "LargestImagePixelValue": 4095,
      "MRAcquisitionType": "2D",
      "MagneticFieldStrength": 3.0,
      "Manufacturer": "SIEMENS",
      "ManufacturerModelName": "Prisma",
      "Modality": "MR",
      "NumberOfAverages": 1.0,
      "NumberOfPhaseEncodingSteps": 100,
      "PercentPhaseFieldOfView": 100.0,
      "PercentSampling": 100.0,
      "PerformedProcedureStepStartTime": "101945.694000",
      "PhotometricInterpretation": "MONOCHROME2",
      "PixelBandwidth": 2380.0,
      "PixelRepresentation": 0,
      "PixelSpacing": [2.0, 2.0],
      "ProtocolName": "bold_100x100_s3_2x2x2_232",
      "RepetitionTime": 2000.0,
      "Rows": 900,
      "SAR": 0.06141136615443,
      "SamplesPerPixel": 1,
      "ScanOptions": "FS",
      "ScanningSequence": "EP",
      "SequenceName": "*epfid2d1_100",
      "SequenceVariant": "SK",
      "SeriesDescription": "bold_100x100_s3_2x2x2_232",
      "SeriesNumber": 5,
      "SeriesTime": "104233.152000",
      "SliceLocation": -64.526577347298,
      "SliceThickness": 2.0,
      "SmallestImagePixelValue": 0,
      "SoftwareVersions": "syngo MR E11",
      "SpacingBetweenSlices": 2.0000000003564,
      "SpecificCharacterSet": "ISO_IR 100",
      "StudyID": "1",
      "StudyTime": "101945.586000",
      "TransmitCoilName": "Body",
      "VariableFlipAngleFlag": "N",
      "WindowCenterWidthExplanation": "Algo1",
      "dBdt": 0.0},
    "slices": {}
  },
  "time": {
    "samples": {
      "AcquisitionNumber": [1, 2, 3, 4, 5, 6, 7, 8, 9, 10, 11, 12, 13, 14, 15, 16, 17, 18, 19, 20, 21, 22, 23, 24, 25, 26, 27, 28, 29, 30, 31, 32, 33, 34, 35, 36, 37, 38, 39, 40, 41, 42, 43, 44, 45, 46, 47, 48, 49, 50, 51, 52, 53, 54, 55, 56, 57, 58, 59, 60, 61, 62, 63, 64, 65, 66, 67, 68, 69, 70, 71, 72, 73, 74, 75, 76, 77, 78, 79, 80, 81, 82, 83, 84, 85, 86, 87, 88, 89, 90, 91, 92, 93, 94, 95, 96, 97, 98, 99, 100, 101, 102, 103, 104, 105, 106, 107, 108, 109, 110, 111, 112, 113, 114, 115, 116, 117, 118, 119, 120, 121, 122, 123, 124, 125, 126, 127, 128, 129, 130, 131, 132, 133, 134, 135, 136, 137, 138, 139, 140, 141, 142, 143, 144, 145, 146, 147, 148, 149, 150, 151, 152, 153, 154, 155, 156, 157, 158, 159, 160, 161, 162, 163, 164, 165, 166, 167, 168, 169, 170, 171, 172, 173, 174, 175, 176, 177, 178, 179, 180, 181, 182, 183, 184, 185, 186, 187, 188, 189, 190, 191, 192, 193, 194, 195, 196, 197, 198, 199, 200, 201, 202, 203, 204, 205, 206, 207, 208, 209, 210, 211, 212, 213, 214, 215, 216, 217, 218, 219, 220, 221, 222, 223, 224, 225, 226, 227, 228, 229, 230, 231, 232],
      "AcquisitionTime": ["104230.505000", "104232.505000", "104234.505000", "104236.505000", "104238.505000", "104240.505000", "104242.505000", "104244.505000", "104246.505000", "104248.505000", "104250.505000", "104252.505000", "104254.505000", "104256.505000", "104258.505000", "104300.505000", "104302.505000", "104304.505000", "104306.505000", "104308.505000", "104310.505000", "104312.505000", "104314.505000", "104316.505000", "104318.505000", "104320.505000", "104322.505000", "104324.505000", "104326.505000", "104328.505000", "104330.505000", "104332.505000", "104334.505000", "104336.505000", "104338.505000", "104340.505000", "104342.505000", "104344.505000", "104346.505000", "104348.505000", "104350.505000", "104352.505000", "104354.505000", "104356.505000", "104358.505000", "104400.505000", "104402.505000", "104404.505000", "104406.505000", "104408.505000", "104410.505000", "104412.505000", "104414.505000", "104416.505000", "104418.505000", "104420.505000", "104422.505000", "104424.505000", "104426.505000", "104428.505000", "104430.505000", "104432.505000", "104434.505000", "104436.505000", "104438.505000", "104440.505000", "104442.505000", "104444.505000", "104446.505000", "104448.505000", "104450.505000", "104452.505000", "104454.505000", "104456.505000", "104458.505000", "104500.505000", "104502.505000", "104504.505000", "104506.505000", "104508.505000", "104510.505000", "104512.505000", "104514.505000", "104516.505000", "104518.505000", "104520.505000", "104522.505000", "104524.505000", "104526.505000", "104528.505000", "104530.505000", "104532.505000", "104534.505000", "104536.505000", "104538.505000", "104540.505000", "104542.505000", "104544.505000", "104546.505000", "104548.505000", "104550.505000", "104552.505000", "104554.505000", "104556.505000", "104558.505000", "104600.505000", "104602.505000", "104604.505000", "104606.505000", "104608.505000", "104610.505000", "104612.505000", "104614.505000", "104616.505000", "104618.505000", "104620.505000", "104622.505000", "104624.505000", "104626.505000", "104628.505000", "104630.505000", "104632.505000", "104634.505000", "104636.505000", "104638.505000", "104640.505000", "104642.505000", "104644.505000", "104646.505000", "104648.505000", "104650.505000", "104652.505000", "104654.505000", "104656.505000", "104658.505000", "104700.505000", "104702.505000", "104704.505000", "104706.505000", "104708.505000", "104710.505000", "104712.505000", "104714.505000", "104716.505000", "104718.505000", "104720.505000", "104722.505000", "104724.505000", "104726.505000", "104728.505000", "104730.505000", "104732.505000", "104734.505000", "104736.505000", "104738.505000", "104740.505000", "104742.505000", "104744.505000", "104746.505000", "104748.505000", "104750.505000", "104752.505000", "104754.505000", "104756.505000", "104758.505000", "104800.505000", "104802.505000", "104804.505000", "104806.505000", "104808.505000", "104810.505000", "104812.505000", "104814.505000", "104816.505000", "104818.505000", "104820.505000", "104822.505000", "104824.505000", "104826.505000", "104828.505000", "104830.505000", "104832.505000", "104834.505000", "104836.505000", "104838.505000", "104840.505000", "104842.505000", "104844.505000", "104846.505000", "104848.505000", "104850.505000", "104852.505000", "104854.505000", "104856.505000", "104858.505000", "104900.505000", "104902.505000", "104904.505000", "104906.505000", "104908.505000", "104910.505000", "104912.505000", "104914.505000", "104916.505000", "104918.505000", "104920.505000", "104922.505000", "104924.505000", "104926.505000", "104928.505000", "104930.505000", "104932.505000", "104934.505000", "104936.505000", "104938.505000", "104940.505000", "104942.505000", "104944.505000", "104946.505000", "104948.505000", "104950.505000", "104952.505000", "104954.505000", "104956.505000", "104958.505000", "105000.505000", "105002.505000", "105004.505000", "105006.505000", "105008.505000", "105010.505000", "105012.505000"],
      "ContentTime": ["104233.156000", "104235.151000", "104237.152000", "104239.152000", "104240.652000", "104242.652000", "104245.152000", "104246.652000", "104249.151000", "104250.651000", "104252.651000", "104254.652000", "104257.152000", "104259.152000", "104301.152000", "104303.152000", "104304.652000", "104306.651000", "104309.151000", "104310.652000", "104312.652000", "104315.152000", "104316.652000", "104319.152000", "104320.652000", "104322.652000", "104325.151000", "104327.151000", "104328.651000", "104331.152000", "104332.652000", "104334.652000", "104336.652000", "104339.152000", "104341.152000", "104342.651000", "104344.651000", "104347.153000", "104349.152000", "104351.152000", "104352.652000", "104355.152000", "104357.153000", "104358.651000", "104400.651000", "104403.152000", "104404.652000", "104406.652000", "104408.652000", "104410.652000", "104412.653000", "104414.652000", "104416.651000", "104418.651000", "104421.152000", "104422.652000", "104424.652000", "104426.652000", "104428.652000", "104431.152000", "104432.652000", "104434.651000", "104437.151000", "104438.651000", "104440.653000", "104442.653000", "104444.652000", "104446.652000", "104448.652000", "104450.651000", "104452.651000", "104455.152000", "104457.152000", "104458.652000", "104501.152000", "104503.152000", "104505.153000", "104506.652000", "104508.652000", "104510.651000", "104512.651000", "104515.152000", "104516.652000", "104519.153000", "104520.652000", "104522.652000", "104525.152000", "104526.652000", "104529.151000", "104530.651000", "104532.652000", "104534.652000", "104536.652000", "104539.152000", "104541.152000", "104542.652000", "104544.651000", "104547.152000", "104548.651000", "104551.153000", "104552.652000", "104554.653000", "104556.652000", "104559.153000", "104600.652000", "104602.651000", "104604.652000", "104607.153000", "104608.653000", "104611.153000", "104612.652000", "104614.652000", "104616.653000", "104619.152000", "104621.152000", "104622.651000", "104625.153000", "104626.652000", "104628.652000", "104630.652000", "104632.652000", "104634.653000", "104636.652000", "104638.651000", "104640.651000", "104643.152000", "104645.152000", "104646.653000", "104649.153000", "104651.153000", "104652.652000", "104655.152000", "104656.651000", "104658.651000", "104700.653000", "104702.653000", "104704.652000", "104707.153000", "104708.652000", "104710.651000", "104712.652000", "104715.151000", "104717.152000", "104718.653000", "104720.652000", "104722.652000", "104724.652000", "104727.153000", "104729.151000", "104730.651000", "104732.652000", "104734.653000", "104736.652000", "104738.653000", "104740.652000", "104742.652000", "104744.653000", "104747.152000", "104749.151000", "104750.652000", "104752.653000", "104755.152000", "104757.152000", "104759.152000", "104800.652000", "104802.653000", "104804.651000", "104807.152000", "104808.652000", "104810.652000", "104812.653000", "104815.153000", "104817.153000", "104818.652000", "104821.151000", "104822.652000", "104825.151000", "104826.652000", "104828.652000", "104830.652000", "104833.152000", "104834.653000", "104837.153000", "104839.151000", "104840.651000", "104842.651000", "104845.152000", "104846.653000", "104849.152000", "104850.652000", "104853.153000", "104855.153000", "104857.152000", "104859.151000", "104900.652000", "104903.153000", "104904.652000", "104907.152000", "104909.152000", "104910.652000", "104913.152000", "104914.651000", "104916.651000", "104918.652000", "104921.153000", "104922.652000", "104924.652000", "104927.153000", "104928.652000", "104931.151000", "104932.651000", "104934.651000", "104936.652000", "104938.652000", "104941.153000", "104943.153000", "104944.653000", "104947.153000", "104949.152000", "104950.651000", "104952.652000", "104954.652000", "104957.152000", "104958.652000", "105000.653000", "105003.152000", "105005.152000", "105007.151000", "105009.152000", "105011.153000", "105013.153000", "105014.645000"],
      "InstanceCreationTime": ["104233.156000", "104235.151000", "104237.152000", "104239.152000", "104240.652000", "104242.652000", "104245.152000", "104246.652000", "104249.151000", "104250.651000", "104252.651000", "104254.652000", "104257.152000", "104259.152000", "104301.152000", "104303.152000", "104304.652000", "104306.651000", "104309.151000", "104310.652000", "104312.652000", "104315.152000", "104316.652000", "104319.152000", "104320.652000", "104322.652000", "104325.151000", "104327.151000", "104328.651000", "104331.152000", "104332.652000", "104334.652000", "104336.652000", "104339.152000", "104341.152000", "104342.651000", "104344.651000", "104347.153000", "104349.152000", "104351.152000", "104352.652000", "104355.152000", "104357.153000", "104358.651000", "104400.651000", "104403.152000", "104404.652000", "104406.652000", "104408.652000", "104410.652000", "104412.653000", "104414.652000", "104416.651000", "104418.651000", "104421.152000", "104422.652000", "104424.652000", "104426.652000", "104428.652000", "104431.152000", "104432.652000", "104434.651000", "104437.151000", "104438.651000", "104440.653000", "104442.653000", "104444.652000", "104446.652000", "104448.652000", "104450.651000", "104452.651000", "104455.152000", "104457.152000", "104458.652000", "104501.152000", "104503.152000", "104505.153000", "104506.652000", "104508.652000", "104510.651000", "104512.651000", "104515.152000", "104516.652000", "104519.153000", "104520.652000", "104522.652000", "104525.152000", "104526.652000", "104529.151000", "104530.651000", "104532.652000", "104534.652000", "104536.652000", "104539.152000", "104541.152000", "104542.652000", "104544.651000", "104547.152000", "104548.651000", "104551.153000", "104552.652000", "104554.653000", "104556.652000", "104559.153000", "104600.652000", "104602.651000", "104604.652000", "104607.153000", "104608.653000", "104611.153000", "104612.652000", "104614.652000", "104616.653000", "104619.152000", "104621.152000", "104622.651000", "104625.153000", "104626.652000", "104628.652000", "104630.652000", "104632.652000", "104634.653000", "104636.652000", "104638.651000", "104640.651000", "104643.152000", "104645.152000", "104646.653000", "104649.153000", "104651.153000", "104652.652000", "104655.152000", "104656.651000", "104658.651000", "104700.653000", "104702.653000", "104704.652000", "104707.153000", "104708.652000", "104710.651000", "104712.652000", "104715.151000", "104717.152000", "104718.653000", "104720.652000", "104722.652000", "104724.652000", "104727.153000", "104729.151000", "104730.651000", "104732.652000", "104734.653000", "104736.652000", "104738.653000", "104740.652000", "104742.652000", "104744.653000", "104747.152000", "104749.151000", "104750.652000", "104752.653000", "104755.152000", "104757.152000", "104759.152000", "104800.652000", "104802.653000", "104804.651000", "104807.152000", "104808.652000", "104810.652000", "104812.653000", "104815.153000", "104817.153000", "104818.652000", "104821.151000", "104822.652000", "104825.151000", "104826.652000", "104828.652000", "104830.652000", "104833.152000", "104834.653000", "104837.153000", "104839.151000", "104840.651000", "104842.651000", "104845.152000", "104846.653000", "104849.152000", "104850.652000", "104853.153000", "104855.153000", "104857.152000", "104859.151000", "104900.652000", "104903.153000", "104904.652000", "104907.152000", "104909.152000", "104910.652000", "104913.152000", "104914.651000", "104916.651000", "104918.652000", "104921.153000", "104922.652000", "104924.652000", "104927.153000", "104928.652000", "104931.151000", "104932.651000", "104934.651000", "104936.652000", "104938.652000", "104941.153000", "104943.153000", "104944.653000", "104947.153000", "104949.152000", "104950.651000", "104952.652000", "104954.652000", "104957.152000", "104958.652000", "105000.653000", "105003.152000", "105005.152000", "105007.151000", "105009.152000", "105011.153000", "105013.153000", "105014.645000"],
      "InstanceNumber": [1, 2, 3, 4, 5, 6, 7, 8, 9, 10, 11, 12, 13, 14, 15, 16, 17, 18, 19, 20, 21, 22, 23, 24, 25, 26, 27, 28, 29, 30, 31, 32, 33, 34, 35, 36, 37, 38, 39, 40, 41, 42, 43, 44, 45, 46, 47, 48, 49, 50, 51, 52, 53, 54, 55, 56, 57, 58, 59, 60, 61, 62, 63, 64, 65, 66, 67, 68, 69, 70, 71, 72, 73, 74, 75, 76, 77, 78, 79, 80, 81, 82, 83, 84, 85, 86, 87, 88, 89, 90, 91, 92, 93, 94, 95, 96, 97, 98, 99, 100, 101, 102, 103, 104, 105, 106, 107, 108, 109, 110, 111, 112, 113, 114, 115, 116, 117, 118, 119, 120, 121, 122, 123, 124, 125, 126, 127, 128, 129, 130, 131, 132, 133, 134, 135, 136, 137, 138, 139, 140, 141, 142, 143, 144, 145, 146, 147, 148, 149, 150, 151, 152, 153, 154, 155, 156, 157, 158, 159, 160, 161, 162, 163, 164, 165, 166, 167, 168, 169, 170, 171, 172, 173, 174, 175, 176, 177, 178, 179, 180, 181, 182, 183, 184, 185, 186, 187, 188, 189, 190, 191, 192, 193, 194, 195, 196, 197, 198, 199, 200, 201, 202, 203, 204, 205, 206, 207, 208, 209, 210, 211, 212, 213, 214, 215, 216, 217, 218, 219, 220, 221, 222, 223, 224, 225, 226, 227, 228, 229, 230, 231, 232],
      "WindowCenter": [859.0, 857.0, 858.0, 858.0, 857.0, 857.0, 857.0, 857.0, 857.0, 857.0, 858.0, 857.0, 857.0, 857.0, 858.0, 859.0, 859.0, 859.0, 860.0, 860.0, 859.0, 858.0, 859.0, 859.0, 860.0, 860.0, 861.0, 861.0, 860.0, 860.0, 860.0, 860.0, 860.0, 861.0, 860.0, 859.0, 858.0, 858.0, 858.0, 859.0, 859.0, 860.0, 859.0, 858.0, 855.0, 858.0, 856.0, 859.0, 859.0, 859.0, 860.0, 861.0, 862.0, 862.0, 862.0, 862.0, 863.0, 863.0, 862.0, 861.0, 860.0, 860.0, 859.0, 859.0, 860.0, 861.0, 862.0, 861.0, 859.0, 858.0, 857.0, 857.0, 858.0, 859.0, 859.0, 860.0, 859.0, 858.0, 859.0, 859.0, 860.0, 860.0, 861.0, 861.0, 862.0, 862.0, 862.0, 862.0, 863.0, 863.0, 860.0, 861.0, 862.0, 861.0, 861.0, 860.0, 862.0, 864.0, 864.0, 862.0, 861.0, 861.0, 860.0, 860.0, 860.0, 860.0, 861.0, 858.0, 856.0, 855.0, 854.0, 856.0, 857.0, 857.0, 858.0, 859.0, 858.0, 858.0, 859.0, 858.0, 858.0, 859.0, 860.0, 858.0, 856.0, 856.0, 856.0, 857.0, 859.0, 859.0, 860.0, 861.0, 861.0, 861.0, 862.0, 862.0, 860.0, 859.0, 859.0, 859.0, 860.0, 860.0, 859.0, 859.0, 858.0, 857.0, 857.0, 856.0, 856.0, 857.0, 857.0, 857.0, 857.0, 857.0, 857.0, 858.0, 858.0, 857.0, 856.0, 856.0, 856.0, 857.0, 858.0, 859.0, 858.0, 858.0, 857.0, 857.0, 857.0, 857.0, 858.0, 857.0, 856.0, 856.0, 857.0, 857.0, 859.0, 859.0, 859.0, 857.0, 856.0, 856.0, 855.0, 855.0, 856.0, 857.0, 857.0, 855.0, 856.0, 856.0, 856.0, 855.0, 856.0, 856.0, 857.0, 858.0, 858.0, 858.0, 859.0, 859.0, 860.0, 860.0, 858.0, 858.0, 859.0, 860.0, 860.0, 860.0, 859.0, 859.0, 859.0, 858.0, 858.0, 858.0, 857.0, 857.0, 857.0, 857.0, 858.0, 858.0, 859.0, 861.0, 861.0, 861.0, 860.0, 860.0, 860.0, 860.0, 859.0, 859.0, 859.0, 859.0],
      "WindowWidth": [1867.0, 1863.0, 1864.0, 1864.0, 1862.0, 1861.0, 1863.0, 1863.0, 1862.0, 1863.0, 1864.0, 1863.0, 1862.0, 1863.0, 1865.0, 1867.0, 1867.0, 1867.0, 1870.0, 1869.0, 1868.0, 1865.0, 1866.0, 1868.0, 1870.0, 1871.0, 1872.0, 1872.0, 1871.0, 1871.0, 1870.0, 1870.0, 1870.0, 1872.0, 1871.0, 1867.0, 1863.0, 1863.0, 1865.0, 1867.0, 1866.0, 1868.0, 1867.0, 1863.0, 1856.0, 1864.0, 1860.0, 1867.0, 1867.0, 1867.0, 1870.0, 1873.0, 1874.0, 1875.0, 1875.0, 1875.0, 1876.0, 1876.0, 1874.0, 1872.0, 1871.0, 1868.0, 1865.0, 1867.0, 1870.0, 1873.0, 1875.0, 1872.0, 1867.0, 1865.0, 1861.0, 1861.0, 1864.0, 1867.0, 1867.0, 1868.0, 1866.0, 1864.0, 1866.0, 1866.0, 1868.0, 1870.0, 1871.0, 1871.0, 1874.0, 1876.0, 1876.0, 1876.0, 1877.0, 1878.0, 1872.0, 1873.0, 1874.0, 1872.0, 1873.0, 1868.0, 1872.0, 1878.0, 1878.0, 1873.0, 1870.0, 1869.0, 1867.0, 1868.0, 1869.0, 1867.0, 1870.0, 1865.0, 1858.0, 1854.0, 1852.0, 1859.0, 1861.0, 1861.0, 1863.0, 1866.0, 1864.0, 1864.0, 1865.0, 1864.0, 1864.0, 1866.0, 1869.0, 1863.0, 1859.0, 1859.0, 1858.0, 1861.0, 1866.0, 1865.0, 1869.0, 1872.0, 1872.0, 1873.0, 1875.0, 1873.0, 1869.0, 1866.0, 1866.0, 1868.0, 1869.0, 1868.0, 1866.0, 1865.0, 1863.0, 1860.0, 1859.0, 1856.0, 1857.0, 1860.0, 1861.0, 1861.0, 1861.0, 1862.0, 1860.0, 1863.0, 1863.0, 1861.0, 1859.0, 1858.0, 1859.0, 1861.0, 1865.0, 1867.0, 1863.0, 1863.0, 1860.0, 1860.0, 1860.0, 1861.0, 1863.0, 1861.0, 1859.0, 1859.0, 1860.0, 1862.0, 1865.0, 1867.0, 1865.0, 1861.0, 1859.0, 1859.0, 1856.0, 1856.0, 1857.0, 1860.0, 1861.0, 1855.0, 1858.0, 1859.0, 1858.0, 1856.0, 1858.0, 1857.0, 1861.0, 1864.0, 1863.0, 1863.0, 1865.0, 1867.0, 1868.0, 1867.0, 1863.0, 1864.0, 1866.0, 1868.0, 1868.0, 1868.0, 1865.0, 1864.0, 1866.0, 1863.0, 1862.0, 1862.0, 1861.0, 1861.0, 1861.0, 1862.0, 1863.0, 1864.0, 1867.0, 1871.0, 1873.0, 1871.0, 1868.0, 1868.0, 1870.0, 1868.0, 1866.0, 1865.0, 1866.0, 1865.0]
    },
    "slices": {}
  }
}