{
  "AcquisitionMatrixPE": 100,
  "AcquisitionNumber": 1,
  "AcquisitionTime": "14:18:28.650000",
  "BandwidthPerPixelPhaseEncode": 18.519,
  "BaseResolution": 100,
  "BodyPartExamined": "BRAIN",
  "ConsistencyInfo": "N4_VE11C_LATEST_20160120",
  "ConversionSoftware": "dcm2niix",
  "ConversionSoftwareVersion": "v1.0.20180622 GCC4.9.2",
  "DerivedVendorReportedEchoSpacing": 0.000539986,
  "DeviceSerialNumber": "166078",
  "DwellTime": 2.1e-06,
  "EchoTime": 0.034,
  "EchoTrainLength": 100,
  "EffectiveEchoSpacing": 0.000539986,
  "FlipAngle": 90,
  "ImageOrientationPatientDICOM": [0.995107, 0.00608194, 0.098619, 0.0138953, 0.979571, -0.20062],
  "ImageType": [
    "ORIGINAL",
    "PRIMARY",
    "M",
    "ND",
    "MOSAIC"
],
  "InPlanePhaseEncodingDirectionDICOM": "COL",
  "InstitutionAddress": "Street_StreetNo_Bei_Jing_District_CN_ZIP",
  "InstitutionName": "BeiJing_Normal_University",
  "InstitutionalDepartmentName": "Department",
  "MRAcquisitionType": "2D",
  "MagneticFieldStrength": 3,
  "Manufacturer": "Siemens",
  "ManufacturersModelName": "Prisma",
  "Modality": "MR",
  "MultibandAccelerationFactor": 3,
  "PartialFourier": 1,
  "PatientPosition": "HFS",
  "PercentPhaseFOV": 100,
  "PhaseEncodingDirection": "j-",
  "PhaseEncodingSteps": 100,
  "PhaseResolution": 1,
  "PixelBandwidth": 2380,
  "ProcedureStepDescription": "BNU_P2018_64CH_Liu.Jia",
  "ProtocolName": "bold_100x100_s3_2x2x2_232",
  "PulseSequenceDetails": "%SiemensSeq%_ep2d_bold",
  "ReceiveCoilActiveElements": "HC1-7;NC1",
  "ReceiveCoilName": "HeadNeck_64",
  "ReconMatrixPE": 100,
  "RepetitionTime": 2,
  "SAR": 0.0704468,
  "ScanOptions": "FS",
  "ScanningSequence": "EP",
  "SequenceName": "_epfid2d1_100",
  "SequenceVariant": "SK",
  "SeriesDescription": "bold_100x100_s3_2x2x2_232",
  "SeriesNumber": 5,
  "ShimSetting": [-5449, -11481, -1228, 426, -36, -135, -192, -7],
  "SliceThickness": 2,
  "SliceTiming": [1.485, 0, 0.99, 0.0825, 1.0725, 0.165, 1.155, 0.2475, 1.2375, 0.33, 1.32, 0.4125, 1.4025, 0.5775, 1.5675, 0.66, 1.65, 0.7425, 1.7325, 0.825, 1.815, 0.9075, 1.8975, 0.495, 1.485, 0, 0.99, 0.0825, 1.0725, 0.165, 1.155, 0.2475, 1.2375, 0.33, 1.32, 0.4125, 1.4025, 0.5775, 1.5675, 0.66, 1.65, 0.7425, 1.7325, 0.825, 1.815, 0.9075, 1.8975, 0.495, 1.485, 0, 0.99, 0.0825, 1.0725, 0.165, 1.155, 0.2475, 1.2375, 0.33, 1.32, 0.4125, 1.4025, 0.5775, 1.5675, 0.66, 1.65, 0.7425, 1.7325, 0.825, 1.815, 0.9075, 1.8975, 0.495],
  "SoftwareVersions": "syngo_MR_E11",
  "SpacingBetweenSlices": 2,
  "StationName": "AWP166078",
  "TaskName": "motor",
  "TotalReadoutTime": 0.0534586,
  "TxRefAmp": 209.286,
  "dcmmeta_affine": [
    [-1.990213394165039, 0.027790548279881477, 0.19564877450466156, 95.29663848876953],
    [-0.012163888663053513, 1.9591410160064697, -0.4020180404186249, -75.45406341552734],
    [0.19723792374134064, 0.4012407660484314, 1.9493852853775024, -98.78717803955078],
    [0.0, 0.0, 0.0, 1.0]
],
  "dcmmeta_reorient_transform": [
    [0.0, -1.0, 0.0, 99.0],
    [1.0, 0.0, 0.0, 0.0],
    [0.0, 0.0, 1.0, 0.0],
    [0.0, 0.0, 0.0, 1.0]
],
  "dcmmeta_shape": [100, 100, 72, 232],
  "dcmmeta_slice_dim": 2,
  "dcmmeta_version": 0.6,
  "global": {
    "const": {
      "AcquisitionMatrix": [100, 0, 0, 100],
      "AngioFlag": "N",
      "BitsAllocated": 16,
      "BitsStored": 12,
      "BodyPartExamined": "BRAIN",
      "Columns": 900,
      "EchoNumbers": 1,
      "EchoTime": 34.0,
      "EchoTrainLength": 100,
      "FlipAngle": 90.0,
      "HighBit": 11,
      "ImageOrientationPatient": [0.99510668308824, 0.00608194426419, 0.09861895977495, 0.01389527437743, 0.97957050927555, -0.2006203845765],
      "ImagePositionPatient": [-905.2494677509, -907.02286187229, 22.53680173058],
      "ImageType": [
        "ORIGINAL",
        "PRIMARY",
        "M",
        "ND",
        "MOSAIC"
],
      "ImagedNucleus": "1H",
      "ImagingFrequency": 123.257852,
      "InPlanePhaseEncodingDirection": "COL",
      "MRAcquisitionType": "2D",
      "MagneticFieldStrength": 3.0,
      "Manufacturer": "SIEMENS",
      "ManufacturerModelName": "Prisma",
      "Modality": "MR",
      "NumberOfAverages": 1.0,
      "NumberOfPhaseEncodingSteps": 100,
      "PercentPhaseFieldOfView": 100.0,
      "PercentSampling": 100.0,
      "PerformedProcedureStepStartTime": "135732.103000",
      "PhotometricInterpretation": "MONOCHROME2",
      "PixelBandwidth": 2380.0,
      "PixelRepresentation": 0,
      "PixelSpacing": [2.0, 2.0],
      "ProtocolName": "bold_100x100_s3_2x2x2_232",
      "RepetitionTime": 2000.0,
      "Rows": 900,
      "SAR": 0.07044681947471,
      "SamplesPerPixel": 1,
      "ScanOptions": "FS",
      "ScanningSequence": "EP",
      "SequenceName": "*epfid2d1_100",
      "SequenceVariant": "SK",
      "SeriesDescription": "bold_100x100_s3_2x2x2_232",
      "SeriesNumber": 5,
      "SeriesTime": "141832.203000",
      "SliceLocation": -71.797850319129,
      "SliceThickness": 2.0,
      "SmallestImagePixelValue": 0,
      "SoftwareVersions": "syngo MR E11",
      "SpacingBetweenSlices": 2.0000000061386,
      "SpecificCharacterSet": "ISO_IR 100",
      "StudyID": "1",
      "StudyTime": "135732.042000",
      "TransmitCoilName": "Body",
      "VariableFlipAngleFlag": "N",
      "WindowCenterWidthExplanation": "Algo1",
      "dBdt": 0.0},
    "slices": {}
  },
  "time": {
    "samples": {
      "AcquisitionNumber": [1, 2, 3, 4, 5, 6, 7, 8, 9, 10, 11, 12, 13, 14, 15, 16, 17, 18, 19, 20, 21, 22, 23, 24, 25, 26, 27, 28, 29, 30, 31, 32, 33, 34, 35, 36, 37, 38, 39, 40, 41, 42, 43, 44, 45, 46, 47, 48, 49, 50, 51, 52, 53, 54, 55, 56, 57, 58, 59, 60, 61, 62, 63, 64, 65, 66, 67, 68, 69, 70, 71, 72, 73, 74, 75, 76, 77, 78, 79, 80, 81, 82, 83, 84, 85, 86, 87, 88, 89, 90, 91, 92, 93, 94, 95, 96, 97, 98, 99, 100, 101, 102, 103, 104, 105, 106, 107, 108, 109, 110, 111, 112, 113, 114, 115, 116, 117, 118, 119, 120, 121, 122, 123, 124, 125, 126, 127, 128, 129, 130, 131, 132, 133, 134, 135, 136, 137, 138, 139, 140, 141, 142, 143, 144, 145, 146, 147, 148, 149, 150, 151, 152, 153, 154, 155, 156, 157, 158, 159, 160, 161, 162, 163, 164, 165, 166, 167, 168, 169, 170, 171, 172, 173, 174, 175, 176, 177, 178, 179, 180, 181, 182, 183, 184, 185, 186, 187, 188, 189, 190, 191, 192, 193, 194, 195, 196, 197, 198, 199, 200, 201, 202, 203, 204, 205, 206, 207, 208, 209, 210, 211, 212, 213, 214, 215, 216, 217, 218, 219, 220, 221, 222, 223, 224, 225, 226, 227, 228, 229, 230, 231, 232],
      "AcquisitionTime": ["141828.650000", "141830.650000", "141832.650000", "141834.650000", "141836.650000", "141838.650000", "141840.650000", "141842.650000", "141844.650000", "141846.650000", "141848.650000", "141850.650000", "141852.650000", "141854.650000", "141856.650000", "141858.650000", "141900.650000", "141902.650000", "141904.650000", "141906.650000", "141908.650000", "141910.650000", "141912.650000", "141914.650000", "141916.650000", "141918.650000", "141920.650000", "141922.650000", "141924.650000", "141926.650000", "141928.650000", "141930.650000", "141932.650000", "141934.650000", "141936.650000", "141938.650000", "141940.650000", "141942.650000", "141944.650000", "141946.650000", "141948.650000", "141950.650000", "141952.650000", "141954.650000", "141956.650000", "141958.650000", "142000.650000", "142002.650000", "142004.650000", "142006.650000", "142008.650000", "142010.650000", "142012.650000", "142014.650000", "142016.650000", "142018.650000", "142020.650000", "142022.650000", "142024.650000", "142026.650000", "142028.650000", "142030.650000", "142032.650000", "142034.650000", "142036.650000", "142038.650000", "142040.650000", "142042.650000", "142044.650000", "142046.650000", "142048.650000", "142050.650000", "142052.650000", "142054.650000", "142056.650000", "142058.650000", "142100.650000", "142102.650000", "142104.650000", "142106.650000", "142108.650000", "142110.650000", "142112.650000", "142114.650000", "142116.650000", "142118.650000", "142120.650000", "142122.650000", "142124.650000", "142126.650000", "142128.650000", "142130.650000", "142132.650000", "142134.650000", "142136.650000", "142138.650000", "142140.650000", "142142.650000", "142144.650000", "142146.650000", "142148.650000", "142150.650000", "142152.650000", "142154.650000", "142156.650000", "142158.650000", "142200.650000", "142202.650000", "142204.650000", "142206.650000", "142208.650000", "142210.650000", "142212.650000", "142214.650000", "142216.650000", "142218.650000", "142220.650000", "142222.650000", "142224.650000", "142226.650000", "142228.650000", "142230.650000", "142232.650000", "142234.650000", "142236.650000", "142238.650000", "142240.650000", "142242.650000", "142244.650000", "142246.650000", "142248.650000", "142250.650000", "142252.650000", "142254.650000", "142256.650000", "142258.650000", "142300.650000", "142302.650000", "142304.650000", "142306.650000", "142308.650000", "142310.650000", "142312.650000", "142314.650000", "142316.650000", "142318.650000", "142320.650000", "142322.650000", "142324.650000", "142326.650000", "142328.650000", "142330.650000", "142332.650000", "142334.650000", "142336.650000", "142338.650000", "142340.650000", "142342.650000", "142344.650000", "142346.650000", "142348.650000", "142350.650000", "142352.650000", "142354.650000", "142356.650000", "142358.650000", "142400.650000", "142402.650000", "142404.650000", "142406.650000", "142408.650000", "142410.650000", "142412.650000", "142414.650000", "142416.650000", "142418.650000", "142420.650000", "142422.650000", "142424.650000", "142426.650000", "142428.650000", "142430.650000", "142432.650000", "142434.650000", "142436.650000", "142438.650000", "142440.650000", "142442.650000", "142444.650000", "142446.650000", "142448.650000", "142450.650000", "142452.650000", "142454.650000", "142456.650000", "142458.650000", "142500.650000", "142502.650000", "142504.650000", "142506.650000", "142508.650000", "142510.650000", "142512.650000", "142514.650000", "142516.650000", "142518.650000", "142520.650000", "142522.650000", "142524.650000", "142526.650000", "142528.650000", "142530.650000", "142532.650000", "142534.650000", "142536.650000", "142538.650000", "142540.650000", "142542.650000", "142544.650000", "142546.650000", "142548.650000", "142550.650000", "142552.650000", "142554.650000", "142556.650000", "142558.650000", "142600.650000", "142602.650000", "142604.650000", "142606.650000", "142608.650000", "142610.650000"],
      "ContentTime": ["141832.207000", "141833.202000", "141835.201000", "141837.202000", "141839.201000", "141841.201000", "141843.203000", "141845.202000", "141847.203000", "141849.203000", "141851.202000", "141853.201000", "141855.201000", "141857.201000", "141859.202000", "141901.202000", "141903.202000", "141905.202000", "141907.202000", "141909.201000", "141911.202000", "141913.201000", "141915.201000", "141917.202000", "141919.203000", "141921.202000", "141923.202000", "141925.202000", "141927.201000", "141929.201000", "141931.202000", "141933.202000", "141935.202000", "141937.202000", "141939.202000", "141941.203000", "141943.202000", "141945.201000", "141947.201000", "141949.202000", "141951.201000", "141953.202000", "141955.202000", "141957.202000", "141959.202000", "142001.203000", "142003.202000", "142005.201000", "142007.201000", "142009.202000", "142011.202000", "142013.202000", "142015.202000", "142017.202000", "142019.201000", "142021.201000", "142023.201000", "142025.201000", "142027.202000", "142029.202000", "142031.203000", "142033.203000", "142035.203000", "142037.201000", "142039.202000", "142041.201000", "142043.201000", "142045.203000", "142047.203000", "142049.203000", "142051.202000", "142053.203000", "142055.201000", "142057.201000", "142059.201000", "142101.201000", "142103.202000", "142105.202000", "142107.202000", "142109.203000", "142111.202000", "142113.201000", "142115.221000", "142117.201000", "142119.203000", "142121.202000", "142123.202000", "142125.203000", "142127.203000", "142129.201000", "142131.201000", "142133.201000", "142135.201000", "142137.202000", "142139.202000", "142141.203000", "142143.203000", "142145.202000", "142147.201000", "142149.202000", "142151.202000", "142153.201000", "142155.202000", "142157.203000", "142159.203000", "142201.203000", "142203.203000", "142205.202000", "142207.201000", "142209.201000", "142211.201000", "142213.202000", "142215.202000", "142217.202000", "142219.202000", "142221.203000", "142223.201000", "142225.202000", "142227.202000", "142229.202000", "142231.202000", "142233.202000", "142235.203000", "142237.202000", "142239.202000", "142241.202000", "142243.202000", "142245.201000", "142247.203000", "142249.202000", "142251.203000", "142253.203000", "142255.203000", "142257.201000", "142259.201000", "142301.201000", "142303.201000", "142305.203000", "142307.203000", "142309.202000", "142311.202000", "142313.203000", "142315.201000", "142317.202000", "142319.202000", "142321.201000", "142323.202000", "142325.202000", "142327.202000", "142329.203000", "142331.202000", "142333.202000", "142335.201000", "142337.201000", "142339.223000", "142341.203000", "142343.203000", "142345.202000", "142347.203000", "142349.201000", "142351.201000", "142353.202000", "142355.201000", "142357.202000", "142359.202000", "142401.203000", "142403.202000", "142405.203000", "142407.202000", "142409.201000", "142411.201000", "142413.202000", "142415.203000", "142417.202000", "142419.203000", "142421.202000", "142423.203000", "142425.201000", "142427.201000", "142429.202000", "142431.202000", "142433.202000", "142435.202000", "142437.203000", "142439.203000", "142441.202000", "142443.201000", "142445.201000", "142447.202000", "142449.202000", "142451.202000", "142453.202000", "142455.202000", "142457.202000", "142459.201000", "142501.201000", "142503.201000", "142505.202000", "142507.203000", "142509.202000", "142511.202000", "142513.202000", "142515.202000", "142517.201000", "142519.201000", "142521.202000", "142523.202000", "142525.203000", "142527.202000", "142529.203000", "142531.202000", "142533.202000", "142535.202000", "142537.202000", "142539.202000", "142541.202000", "142543.202000", "142545.203000", "142547.202000", "142549.202000", "142551.203000", "142553.201000", "142555.202000", "142557.201000", "142559.203000", "142601.203000", "142603.202000", "142605.202000", "142607.202000", "142609.202000", "142611.202000", "142612.829000"],
      "InstanceCreationTime": ["141832.207000", "141833.202000", "141835.201000", "141837.202000", "141839.201000", "141841.201000", "141843.203000", "141845.202000", "141847.203000", "141849.203000", "141851.202000", "141853.201000", "141855.201000", "141857.201000", "141859.202000", "141901.202000", "141903.202000", "141905.202000", "141907.202000", "141909.201000", "141911.202000", "141913.201000", "141915.201000", "141917.202000", "141919.203000", "141921.202000", "141923.202000", "141925.202000", "141927.201000", "141929.201000", "141931.202000", "141933.202000", "141935.202000", "141937.202000", "141939.202000", "141941.203000", "141943.202000", "141945.201000", "141947.201000", "141949.202000", "141951.201000", "141953.202000", "141955.202000", "141957.202000", "141959.202000", "142001.203000", "142003.202000", "142005.201000", "142007.201000", "142009.202000", "142011.202000", "142013.202000", "142015.202000", "142017.202000", "142019.201000", "142021.201000", "142023.201000", "142025.201000", "142027.202000", "142029.202000", "142031.203000", "142033.203000", "142035.203000", "142037.201000", "142039.202000", "142041.201000", "142043.201000", "142045.203000", "142047.203000", "142049.203000", "142051.202000", "142053.203000", "142055.201000", "142057.201000", "142059.201000", "142101.201000", "142103.202000", "142105.202000", "142107.202000", "142109.203000", "142111.202000", "142113.201000", "142115.221000", "142117.201000", "142119.203000", "142121.202000", "142123.202000", "142125.203000", "142127.203000", "142129.201000", "142131.201000", "142133.201000", "142135.201000", "142137.202000", "142139.202000", "142141.203000", "142143.203000", "142145.202000", "142147.201000", "142149.202000", "142151.202000", "142153.201000", "142155.202000", "142157.203000", "142159.203000", "142201.203000", "142203.203000", "142205.202000", "142207.201000", "142209.201000", "142211.201000", "142213.202000", "142215.202000", "142217.202000", "142219.202000", "142221.203000", "142223.201000", "142225.202000", "142227.202000", "142229.202000", "142231.202000", "142233.202000", "142235.203000", "142237.202000", "142239.202000", "142241.202000", "142243.202000", "142245.201000", "142247.203000", "142249.202000", "142251.203000", "142253.203000", "142255.203000", "142257.201000", "142259.201000", "142301.201000", "142303.201000", "142305.203000", "142307.203000", "142309.202000", "142311.202000", "142313.203000", "142315.201000", "142317.202000", "142319.202000", "142321.201000", "142323.202000", "142325.202000", "142327.202000", "142329.203000", "142331.202000", "142333.202000", "142335.201000", "142337.201000", "142339.223000", "142341.203000", "142343.203000", "142345.202000", "142347.203000", "142349.201000", "142351.201000", "142353.202000", "142355.201000", "142357.202000", "142359.202000", "142401.203000", "142403.202000", "142405.203000", "142407.202000", "142409.201000", "142411.201000", "142413.202000", "142415.203000", "142417.202000", "142419.203000", "142421.202000", "142423.203000", "142425.201000", "142427.201000", "142429.202000", "142431.202000", "142433.202000", "142435.202000", "142437.203000", "142439.203000", "142441.202000", "142443.201000", "142445.201000", "142447.202000", "142449.202000", "142451.202000", "142453.202000", "142455.202000", "142457.202000", "142459.201000", "142501.201000", "142503.201000", "142505.202000", "142507.203000", "142509.202000", "142511.202000", "142513.202000", "142515.202000", "142517.201000", "142519.201000", "142521.202000", "142523.202000", "142525.203000", "142527.202000", "142529.203000", "142531.202000", "142533.202000", "142535.202000", "142537.202000", "142539.202000", "142541.202000", "142543.202000", "142545.203000", "142547.202000", "142549.202000", "142551.203000", "142553.201000", "142555.202000", "142557.201000", "142559.203000", "142601.203000", "142603.202000", "142605.202000", "142607.202000", "142609.202000", "142611.202000", "142612.829000"],
      "InstanceNumber": [1, 2, 3, 4, 5, 6, 7, 8, 9, 10, 11, 12, 13, 14, 15, 16, 17, 18, 19, 20, 21, 22, 23, 24, 25, 26, 27, 28, 29, 30, 31, 32, 33, 34, 35, 36, 37, 38, 39, 40, 41, 42, 43, 44, 45, 46, 47, 48, 49, 50, 51, 52, 53, 54, 55, 56, 57, 58, 59, 60, 61, 62, 63, 64, 65, 66, 67, 68, 69, 70, 71, 72, 73, 74, 75, 76, 77, 78, 79, 80, 81, 82, 83, 84, 85, 86, 87, 88, 89, 90, 91, 92, 93, 94, 95, 96, 97, 98, 99, 100, 101, 102, 103, 104, 105, 106, 107, 108, 109, 110, 111, 112, 113, 114, 115, 116, 117, 118, 119, 120, 121, 122, 123, 124, 125, 126, 127, 128, 129, 130, 131, 132, 133, 134, 135, 136, 137, 138, 139, 140, 141, 142, 143, 144, 145, 146, 147, 148, 149, 150, 151, 152, 153, 154, 155, 156, 157, 158, 159, 160, 161, 162, 163, 164, 165, 166, 167, 168, 169, 170, 171, 172, 173, 174, 175, 176, 177, 178, 179, 180, 181, 182, 183, 184, 185, 186, 187, 188, 189, 190, 191, 192, 193, 194, 195, 196, 197, 198, 199, 200, 201, 202, 203, 204, 205, 206, 207, 208, 209, 210, 211, 212, 213, 214, 215, 216, 217, 218, 219, 220, 221, 222, 223, 224, 225, 226, 227, 228, 229, 230, 231, 232],
      "LargestImagePixelValue": [3860, 3843, 3831, 3828, 3831, 3850, 3846, 3766, 3774, 3805, 3793, 3789, 3800, 3814, 3765, 3809, 3792, 3754, 3779, 3790, 3815, 3845, 3816, 3786, 3791, 3821, 3739, 3789, 3783, 3800, 3771, 3764, 3761, 3701, 3692, 3728, 3754, 3740, 3765, 3715, 3736, 3752, 3780, 3758, 3782, 3835, 3787, 3812, 3795, 3805, 3757, 3735, 3717, 3753, 3757, 3742, 3739, 3761, 3741, 3767, 3782, 3835, 3839, 3814, 3788, 3799, 3795, 3794, 3764, 3760, 3792, 3822, 3797, 3821, 3691, 3744, 3736, 3780, 3750, 3702, 3749, 3659, 3622, 3736, 3682, 3757, 3763, 3749, 3766, 3801, 3772, 3761, 3753, 3771, 3786, 3839, 3853, 3812, 3796, 3755, 3754, 3732, 3775, 3755, 3743, 3739, 3765, 3759, 3747, 3772, 3774, 3791, 3766, 3760, 3736, 3756, 3766, 3783, 3796, 3764, 3761, 3738, 3751, 3841, 3797, 3737, 3710, 3741, 3720, 3730, 3737, 3746, 3712, 3664, 3664, 3718, 3724, 3730, 3739, 3730, 3735, 3755, 3757, 3728, 3668, 3715, 3714, 3693, 3717, 3652, 3734, 3692, 3758, 3855, 3732, 3815, 3746, 3856, 3762, 3875, 3801, 3716, 3702, 3692, 3702, 3741, 3711, 3736, 3754, 3765, 3779, 3780, 3822, 3829, 3803, 3796, 3795, 3787, 3781, 3771, 3756, 3803, 3774, 3761, 3810, 3761, 3812, 3783, 3756, 3793, 3842, 3866, 3866, 3845, 3770, 3722, 3778, 3794, 3842, 3841, 3896, 3895, 3867, 3859, 3889, 3906, 3915, 3854, 3810, 3848, 3825, 3829, 3833, 3825, 3826, 3826, 3821, 3781, 3853, 3848, 3796, 3822, 3809, 3788, 3806, 3804, 3814, 3805, 3848, 3855, 3848, 3838],
      "WindowCenter": [786.0, 785.0, 784.0, 783.0, 783.0, 783.0, 783.0, 782.0, 782.0, 782.0, 782.0, 781.0, 782.0, 783.0, 783.0, 783.0, 783.0, 783.0, 784.0, 784.0, 783.0, 783.0, 783.0, 784.0, 784.0, 784.0, 784.0, 784.0, 783.0, 783.0, 783.0, 782.0, 783.0, 782.0, 783.0, 784.0, 784.0, 783.0, 783.0, 783.0, 783.0, 784.0, 784.0, 784.0, 783.0, 784.0, 784.0, 784.0, 784.0, 784.0, 784.0, 784.0, 783.0, 783.0, 783.0, 783.0, 784.0, 784.0, 784.0, 783.0, 783.0, 784.0, 784.0, 784.0, 784.0, 783.0, 783.0, 783.0, 784.0, 783.0, 783.0, 783.0, 783.0, 784.0, 785.0, 784.0, 784.0, 782.0, 784.0, 781.0, 782.0, 781.0, 782.0, 783.0, 782.0, 782.0, 783.0, 783.0, 782.0, 783.0, 783.0, 783.0, 783.0, 783.0, 783.0, 783.0, 783.0, 783.0, 783.0, 783.0, 784.0, 783.0, 782.0, 782.0, 782.0, 783.0, 783.0, 783.0, 782.0, 782.0, 783.0, 782.0, 782.0, 783.0, 783.0, 783.0, 784.0, 783.0, 784.0, 783.0, 783.0, 783.0, 783.0, 783.0, 783.0, 784.0, 783.0, 783.0, 783.0, 783.0, 783.0, 783.0, 784.0, 784.0, 784.0, 782.0, 782.0, 782.0, 782.0, 783.0, 782.0, 782.0, 782.0, 783.0, 782.0, 782.0, 782.0, 782.0, 783.0, 782.0, 783.0, 782.0, 782.0, 783.0, 783.0, 783.0, 783.0, 782.0, 783.0, 784.0, 783.0, 783.0, 782.0, 782.0, 782.0, 783.0, 783.0, 782.0, 783.0, 783.0, 783.0, 782.0, 781.0, 781.0, 782.0, 782.0, 783.0, 782.0, 782.0, 782.0, 781.0, 782.0, 782.0, 782.0, 782.0, 782.0, 783.0, 784.0, 783.0, 784.0, 785.0, 785.0, 784.0, 784.0, 785.0, 785.0, 785.0, 784.0, 784.0, 784.0, 784.0, 784.0, 783.0, 785.0, 783.0, 784.0, 782.0, 784.0, 782.0, 782.0, 783.0, 783.0, 783.0, 784.0, 783.0, 783.0, 783.0, 783.0, 783.0, 784.0, 783.0, 783.0, 783.0, 783.0, 783.0, 784.0, 784.0, 783.0, 783.0, 783.0, 783.0, 784.0],
      "WindowWidth": [1735.0, 1729.0, 1725.0, 1724.0, 1724.0, 1722.0, 1723.0, 1721.0, 1721.0, 1720.0, 1721.0, 1719.0, 1721.0, 1722.0, 1724.0, 1724.0, 1724.0, 1723.0, 1727.0, 1726.0, 1724.0, 1723.0, 1724.0, 1725.0, 1726.0, 1727.0, 1725.0, 1728.0, 1724.0, 1724.0, 1723.0, 1722.0, 1724.0, 1722.0, 1724.0, 1726.0, 1727.0, 1722.0, 1723.0, 1723.0, 1724.0, 1726.0, 1726.0, 1726.0, 1724.0, 1725.0, 1725.0, 1727.0, 1726.0, 1726.0, 1727.0, 1725.0, 1723.0, 1723.0, 1725.0, 1724.0, 1725.0, 1725.0, 1725.0, 1723.0, 1723.0, 1725.0, 1725.0, 1726.0, 1726.0, 1725.0, 1723.0, 1724.0, 1725.0, 1724.0, 1723.0, 1722.0, 1722.0, 1726.0, 1729.0, 1726.0, 1726.0, 1720.0, 1726.0, 1717.0, 1719.0, 1717.0, 1719.0, 1722.0, 1721.0, 1721.0, 1722.0, 1723.0, 1721.0, 1724.0, 1724.0, 1723.0, 1724.0, 1723.0, 1722.0, 1723.0, 1723.0, 1723.0, 1723.0, 1722.0, 1725.0, 1724.0, 1721.0, 1720.0, 1720.0, 1722.0, 1723.0, 1722.0, 1721.0, 1721.0, 1722.0, 1721.0, 1721.0, 1722.0, 1724.0, 1724.0, 1725.0, 1723.0, 1725.0, 1724.0, 1723.0, 1724.0, 1724.0, 1722.0, 1723.0, 1725.0, 1724.0, 1724.0, 1724.0, 1723.0, 1722.0, 1722.0, 1725.0, 1727.0, 1724.0, 1720.0, 1719.0, 1720.0, 1721.0, 1722.0, 1720.0, 1721.0, 1721.0, 1721.0, 1720.0, 1721.0, 1720.0, 1720.0, 1722.0, 1720.0, 1722.0, 1720.0, 1721.0, 1724.0, 1722.0, 1724.0, 1721.0, 1721.0, 1722.0, 1725.0, 1724.0, 1722.0, 1721.0, 1721.0, 1721.0, 1722.0, 1722.0, 1721.0, 1722.0, 1722.0, 1722.0, 1719.0, 1718.0, 1718.0, 1719.0, 1719.0, 1722.0, 1721.0, 1720.0, 1719.0, 1717.0, 1719.0, 1719.0, 1718.0, 1720.0, 1721.0, 1723.0, 1725.0, 1723.0, 1725.0, 1728.0, 1728.0, 1725.0, 1727.0, 1727.0, 1727.0, 1727.0, 1725.0, 1725.0, 1725.0, 1726.0, 1726.0, 1723.0, 1727.0, 1724.0, 1725.0, 1720.0, 1724.0, 1720.0, 1721.0, 1723.0, 1724.0, 1723.0, 1724.0, 1723.0, 1724.0, 1723.0, 1722.0, 1724.0, 1724.0, 1723.0, 1722.0, 1723.0, 1723.0, 1724.0, 1725.0, 1725.0, 1723.0, 1723.0, 1723.0, 1724.0, 1726.0]
    },
    "slices": {}
  }
}