{
  "AcquisitionMatrixPE": 100,
  "AcquisitionNumber": 1,
  "AcquisitionTime": "14:09:38.402500",
  "BandwidthPerPixelPhaseEncode": 18.519,
  "BaseResolution": 100,
  "BodyPartExamined": "BRAIN",
  "ConsistencyInfo": "N4_VE11C_LATEST_20160120",
  "ConversionSoftware": "dcm2niix",
  "ConversionSoftwareVersion": "v1.0.20180622 GCC4.9.2",
  "DerivedVendorReportedEchoSpacing": 0.000539986,
  "DeviceSerialNumber": "166078",
  "DwellTime": 2.1e-06,
  "EchoTime": 0.034,
  "EchoTrainLength": 100,
  "EffectiveEchoSpacing": 0.000539986,
  "FlipAngle": 90,
  "ImageOrientationPatientDICOM": [0.995107, 0.00608194, 0.098619, 0.0138953, 0.979571, -0.20062],
  "ImageType": [
    "ORIGINAL",
    "PRIMARY",
    "M",
    "ND",
    "MOSAIC"
],
  "InPlanePhaseEncodingDirectionDICOM": "COL",
  "InstitutionAddress": "Street_StreetNo_Bei_Jing_District_CN_ZIP",
  "InstitutionName": "BeiJing_Normal_University",
  "InstitutionalDepartmentName": "Department",
  "MRAcquisitionType": "2D",
  "MagneticFieldStrength": 3,
  "Manufacturer": "Siemens",
  "ManufacturersModelName": "Prisma",
  "Modality": "MR",
  "MultibandAccelerationFactor": 3,
  "PartialFourier": 1,
  "PatientPosition": "HFS",
  "PercentPhaseFOV": 100,
  "PhaseEncodingDirection": "j-",
  "PhaseEncodingSteps": 100,
  "PhaseResolution": 1,
  "PixelBandwidth": 2380,
  "ProcedureStepDescription": "BNU_P2018_64CH_Liu.Jia",
  "ProtocolName": "bold_100x100_s3_2x2x2_232",
  "PulseSequenceDetails": "%SiemensSeq%_ep2d_bold",
  "ReceiveCoilActiveElements": "HC1-7;NC1",
  "ReceiveCoilName": "HeadNeck_64",
  "ReconMatrixPE": 100,
  "RepetitionTime": 2,
  "SAR": 0.0704468,
  "ScanOptions": "FS",
  "ScanningSequence": "EP",
  "SequenceName": "_epfid2d1_100",
  "SequenceVariant": "SK",
  "SeriesDescription": "bold_100x100_s3_2x2x2_232",
  "SeriesNumber": 4,
  "ShimSetting": [-5449, -11481, -1228, 426, -36, -135, -192, -7],
  "SliceThickness": 2,
  "SliceTiming": [1.485, 0, 0.99, 0.0825, 1.0725, 0.165, 1.155, 0.2475, 1.2375, 0.33, 1.32, 0.4125, 1.4025, 0.5775, 1.5675, 0.66, 1.65, 0.7425, 1.7325, 0.825, 1.815, 0.9075, 1.8975, 0.495, 1.485, 0, 0.99, 0.0825, 1.0725, 0.165, 1.155, 0.2475, 1.2375, 0.33, 1.32, 0.4125, 1.4025, 0.5775, 1.5675, 0.66, 1.65, 0.7425, 1.7325, 0.825, 1.815, 0.9075, 1.8975, 0.495, 1.485, 0, 0.99, 0.0825, 1.0725, 0.165, 1.155, 0.2475, 1.2375, 0.33, 1.32, 0.4125, 1.4025, 0.5775, 1.5675, 0.66, 1.65, 0.7425, 1.7325, 0.825, 1.815, 0.9075, 1.8975, 0.495],
  "SoftwareVersions": "syngo_MR_E11",
  "SpacingBetweenSlices": 2,
  "StationName": "AWP166078",
  "TaskName": "motor",
  "TotalReadoutTime": 0.0534586,
  "TxRefAmp": 209.286,
  "dcmmeta_affine": [
    [-1.990213394165039, 0.027790548279881477, 0.19564877450466156, 95.29663848876953],
    [-0.012163888663053513, 1.9591410160064697, -0.4020180404186249, -75.45406341552734],
    [0.19723792374134064, 0.4012407660484314, 1.9493852853775024, -98.78717803955078],
    [0.0, 0.0, 0.0, 1.0]
],
  "dcmmeta_reorient_transform": [
    [0.0, -1.0, 0.0, 99.0],
    [1.0, 0.0, 0.0, 0.0],
    [0.0, 0.0, 1.0, 0.0],
    [0.0, 0.0, 0.0, 1.0]
],
  "dcmmeta_shape": [100, 100, 72, 232],
  "dcmmeta_slice_dim": 2,
  "dcmmeta_version": 0.6,
  "global": {
    "const": {
      "AcquisitionMatrix": [100, 0, 0, 100],
      "AngioFlag": "N",
      "BitsAllocated": 16,
      "BitsStored": 12,
      "BodyPartExamined": "BRAIN",
      "Columns": 900,
      "EchoNumbers": 1,
      "EchoTime": 34.0,
      "EchoTrainLength": 100,
      "FlipAngle": 90.0,
      "HighBit": 11,
      "ImageOrientationPatient": [0.99510668308824, 0.00608194426419, 0.09861895977495, 0.01389527437743, 0.97957050927555, -0.2006203845765],
      "ImagePositionPatient": [-905.2494677509, -907.02286187229, 22.53680173058],
      "ImageType": [
        "ORIGINAL",
        "PRIMARY",
        "M",
        "ND",
        "MOSAIC"
],
      "ImagedNucleus": "1H",
      "ImagingFrequency": 123.257849,
      "InPlanePhaseEncodingDirection": "COL",
      "MRAcquisitionType": "2D",
      "MagneticFieldStrength": 3.0,
      "Manufacturer": "SIEMENS",
      "ManufacturerModelName": "Prisma",
      "Modality": "MR",
      "NumberOfAverages": 1.0,
      "NumberOfPhaseEncodingSteps": 100,
      "PercentPhaseFieldOfView": 100.0,
      "PercentSampling": 100.0,
      "PerformedProcedureStepStartTime": "135732.103000",
      "PhotometricInterpretation": "MONOCHROME2",
      "PixelBandwidth": 2380.0,
      "PixelRepresentation": 0,
      "PixelSpacing": [2.0, 2.0],
      "ProtocolName": "bold_100x100_s3_2x2x2_232",
      "RepetitionTime": 2000.0,
      "Rows": 900,
      "SAR": 0.07044681947471,
      "SamplesPerPixel": 1,
      "ScanOptions": "FS",
      "ScanningSequence": "EP",
      "SequenceName": "*epfid2d1_100",
      "SequenceVariant": "SK",
      "SeriesDescription": "bold_100x100_s3_2x2x2_232",
      "SeriesNumber": 4,
      "SeriesTime": "140941.187000",
      "SliceLocation": -71.797850319129,
      "SliceThickness": 2.0,
      "SmallestImagePixelValue": 0,
      "SoftwareVersions": "syngo MR E11",
      "SpacingBetweenSlices": 2.0000000061386,
      "SpecificCharacterSet": "ISO_IR 100",
      "StudyID": "1",
      "StudyTime": "135732.042000",
      "TransmitCoilName": "Body",
      "VariableFlipAngleFlag": "N",
      "WindowCenterWidthExplanation": "Algo1",
      "dBdt": 0.0},
    "slices": {}
  },
  "time": {
    "samples": {
      "AcquisitionNumber": [1, 2, 3, 4, 5, 6, 7, 8, 9, 10, 11, 12, 13, 14, 15, 16, 17, 18, 19, 20, 21, 22, 23, 24, 25, 26, 27, 28, 29, 30, 31, 32, 33, 34, 35, 36, 37, 38, 39, 40, 41, 42, 43, 44, 45, 46, 47, 48, 49, 50, 51, 52, 53, 54, 55, 56, 57, 58, 59, 60, 61, 62, 63, 64, 65, 66, 67, 68, 69, 70, 71, 72, 73, 74, 75, 76, 77, 78, 79, 80, 81, 82, 83, 84, 85, 86, 87, 88, 89, 90, 91, 92, 93, 94, 95, 96, 97, 98, 99, 100, 101, 102, 103, 104, 105, 106, 107, 108, 109, 110, 111, 112, 113, 114, 115, 116, 117, 118, 119, 120, 121, 122, 123, 124, 125, 126, 127, 128, 129, 130, 131, 132, 133, 134, 135, 136, 137, 138, 139, 140, 141, 142, 143, 144, 145, 146, 147, 148, 149, 150, 151, 152, 153, 154, 155, 156, 157, 158, 159, 160, 161, 162, 163, 164, 165, 166, 167, 168, 169, 170, 171, 172, 173, 174, 175, 176, 177, 178, 179, 180, 181, 182, 183, 184, 185, 186, 187, 188, 189, 190, 191, 192, 193, 194, 195, 196, 197, 198, 199, 200, 201, 202, 203, 204, 205, 206, 207, 208, 209, 210, 211, 212, 213, 214, 215, 216, 217, 218, 219, 220, 221, 222, 223, 224, 225, 226, 227, 228, 229, 230, 231, 232],
      "AcquisitionTime": ["140938.402500", "140940.402500", "140942.402500", "140944.402500", "140946.402500", "140948.402500", "140950.402500", "140952.402500", "140954.402500", "140956.402500", "140958.402500", "141000.402500", "141002.402500", "141004.402500", "141006.402500", "141008.402500", "141010.402500", "141012.402500", "141014.402500", "141016.402500", "141018.402500", "141020.402500", "141022.402500", "141024.402500", "141026.402500", "141028.402500", "141030.402500", "141032.402500", "141034.402500", "141036.402500", "141038.402500", "141040.402500", "141042.402500", "141044.402500", "141046.402500", "141048.402500", "141050.402500", "141052.402500", "141054.402500", "141056.402500", "141058.402500", "141100.402500", "141102.402500", "141104.402500", "141106.402500", "141108.402500", "141110.402500", "141112.402500", "141114.402500", "141116.402500", "141118.402500", "141120.402500", "141122.402500", "141124.402500", "141126.402500", "141128.402500", "141130.402500", "141132.402500", "141134.402500", "141136.402500", "141138.402500", "141140.402500", "141142.402500", "141144.402500", "141146.402500", "141148.402500", "141150.402500", "141152.402500", "141154.402500", "141156.402500", "141158.402500", "141200.402500", "141202.402500", "141204.402500", "141206.402500", "141208.402500", "141210.402500", "141212.402500", "141214.402500", "141216.402500", "141218.402500", "141220.402500", "141222.402500", "141224.402500", "141226.402500", "141228.402500", "141230.402500", "141232.402500", "141234.402500", "141236.402500", "141238.402500", "141240.402500", "141242.402500", "141244.402500", "141246.402500", "141248.402500", "141250.402500", "141252.402500", "141254.402500", "141256.402500", "141258.402500", "141300.402500", "141302.402500", "141304.402500", "141306.402500", "141308.402500", "141310.402500", "141312.402500", "141314.402500", "141316.402500", "141318.402500", "141320.402500", "141322.402500", "141324.402500", "141326.402500", "141328.402500", "141330.402500", "141332.402500", "141334.402500", "141336.402500", "141338.402500", "141340.402500", "141342.402500", "141344.402500", "141346.402500", "141348.402500", "141350.402500", "141352.402500", "141354.402500", "141356.402500", "141358.402500", "141400.402500", "141402.402500", "141404.402500", "141406.402500", "141408.402500", "141410.402500", "141412.402500", "141414.402500", "141416.402500", "141418.402500", "141420.402500", "141422.402500", "141424.402500", "141426.402500", "141428.402500", "141430.402500", "141432.402500", "141434.402500", "141436.402500", "141438.402500", "141440.402500", "141442.402500", "141444.402500", "141446.402500", "141448.402500", "141450.402500", "141452.402500", "141454.402500", "141456.402500", "141458.402500", "141500.402500", "141502.402500", "141504.402500", "141506.402500", "141508.402500", "141510.402500", "141512.402500", "141514.402500", "141516.402500", "141518.402500", "141520.402500", "141522.402500", "141524.402500", "141526.402500", "141528.402500", "141530.402500", "141532.402500", "141534.402500", "141536.402500", "141538.402500", "141540.402500", "141542.402500", "141544.402500", "141546.402500", "141548.402500", "141550.402500", "141552.402500", "141554.402500", "141556.402500", "141558.402500", "141600.402500", "141602.402500", "141604.402500", "141606.402500", "141608.402500", "141610.402500", "141612.402500", "141614.402500", "141616.402500", "141618.402500", "141620.402500", "141622.402500", "141624.402500", "141626.402500", "141628.402500", "141630.402500", "141632.402500", "141634.402500", "141636.402500", "141638.402500", "141640.402500", "141642.402500", "141644.402500", "141646.402500", "141648.402500", "141650.402500", "141652.402500", "141654.402500", "141656.402500", "141658.402500", "141700.402500", "141702.402500", "141704.402500", "141706.402500", "141708.402500", "141710.402500", "141712.402500", "141714.402500", "141716.402500", "141718.402500", "141720.402500"],
      "ContentTime": ["140941.191000", "140942.186000", "140944.186000", "140946.186000", "140948.185000", "140950.186000", "140952.185000", "140954.185000", "140956.185000", "140958.186000", "141000.186000", "141002.186000", "141004.186000", "141006.185000", "141008.186000", "141010.185000", "141012.185000", "141014.185000", "141016.186000", "141018.186000", "141020.186000", "141022.187000", "141024.185000", "141026.185000", "141028.185000", "141030.186000", "141032.187000", "141034.186000", "141036.186000", "141038.186000", "141040.185000", "141042.186000", "141044.185000", "141046.185000", "141048.185000", "141050.186000", "141052.186000", "141054.187000", "141056.186000", "141058.185000", "141100.185000", "141102.185000", "141104.185000", "141106.185000", "141108.186000", "141110.186000", "141112.186000", "141114.186000", "141116.185000", "141118.686000", "141120.186000", "141122.186000", "141124.185000", "141126.186000", "141128.186000", "141130.186000", "141132.186000", "141134.185000", "141136.185000", "141138.185000", "141140.185000", "141142.186000", "141144.186000", "141146.686000", "141148.187000", "141150.185000", "141152.185000", "141154.185000", "141156.185000", "141158.185000", "141200.186000", "141202.186000", "141204.186000", "141206.186000", "141208.186000", "141210.185000", "141212.185000", "141214.186000", "141216.185000", "141218.186000", "141220.187000", "141222.186000", "141224.686000", "141226.186000", "141228.185000", "141230.185000", "141232.186000", "141234.185000", "141236.186000", "141238.187000", "141240.186000", "141242.186000", "141244.185000", "141246.185000", "141248.185000", "141250.185000", "141252.186000", "141254.186000", "141256.186000", "141258.186000", "141300.185000", "141302.185000", "141304.186000", "141306.185000", "141308.185000", "141310.186000", "141312.186000", "141314.186000", "141316.187000", "141318.185000", "141320.185000", "141322.185000", "141324.185000", "141326.185000", "141328.186000", "141330.186000", "141332.187000", "141334.186000", "141336.186000", "141338.186000", "141340.185000", "141342.186000", "141344.185000", "141346.187000", "141348.186000", "141350.186000", "141352.187000", "141354.185000", "141356.185000", "141358.185000", "141400.185000", "141402.186000", "141404.187000", "141406.186000", "141408.186000", "141410.185000", "141412.185000", "141414.186000", "141416.185000", "141418.185000", "141420.186000", "141422.686000", "141424.186000", "141426.186000", "141428.186000", "141430.185000", "141432.186000", "141434.185000", "141436.185000", "141438.186000", "141440.186000", "141442.186000", "141444.187000", "141446.185000", "141448.185000", "141450.185000", "141452.185000", "141454.185000", "141456.186000", "141458.186000", "141500.186000", "141502.186000", "141504.186000", "141506.185000", "141508.186000", "141510.185000", "141512.186000", "141514.186000", "141516.187000", "141518.687000", "141520.185000", "141522.686000", "141524.185000", "141526.185000", "141528.185000", "141530.187000", "141532.186000", "141534.186000", "141536.186000", "141538.185000", "141540.185000", "141542.186000", "141544.185000", "141546.185000", "141548.186000", "141550.186000", "141552.186000", "141554.187000", "141556.186000", "141558.186000", "141600.185000", "141602.186000", "141604.186000", "141606.186000", "141608.186000", "141610.187000", "141612.186000", "141614.185000", "141616.685000", "141618.185000", "141620.185000", "141622.687000", "141624.186000", "141626.186000", "141628.186000", "141630.186000", "141632.185000", "141634.186000", "141636.185000", "141638.186000", "141640.187000", "141642.187000", "141644.186000", "141646.186000", "141648.185000", "141650.185000", "141652.186000", "141654.185000", "141656.687000", "141658.186000", "141700.186000", "141702.186000", "141704.187000", "141706.185000", "141708.185000", "141710.186000", "141712.185000", "141714.186000", "141716.186000", "141718.186000", "141720.186000", "141722.068000"],
      "InstanceCreationTime": ["140941.191000", "140942.186000", "140944.186000", "140946.186000", "140948.185000", "140950.186000", "140952.185000", "140954.185000", "140956.185000", "140958.186000", "141000.186000", "141002.186000", "141004.186000", "141006.185000", "141008.186000", "141010.185000", "141012.185000", "141014.185000", "141016.186000", "141018.186000", "141020.186000", "141022.187000", "141024.185000", "141026.185000", "141028.185000", "141030.186000", "141032.187000", "141034.186000", "141036.186000", "141038.186000", "141040.185000", "141042.186000", "141044.185000", "141046.185000", "141048.185000", "141050.186000", "141052.186000", "141054.187000", "141056.186000", "141058.185000", "141100.185000", "141102.185000", "141104.185000", "141106.185000", "141108.186000", "141110.186000", "141112.186000", "141114.186000", "141116.185000", "141118.686000", "141120.186000", "141122.186000", "141124.185000", "141126.186000", "141128.186000", "141130.186000", "141132.186000", "141134.185000", "141136.185000", "141138.185000", "141140.185000", "141142.186000", "141144.186000", "141146.686000", "141148.187000", "141150.185000", "141152.185000", "141154.185000", "141156.185000", "141158.185000", "141200.186000", "141202.186000", "141204.186000", "141206.186000", "141208.186000", "141210.185000", "141212.185000", "141214.186000", "141216.185000", "141218.186000", "141220.187000", "141222.186000", "141224.686000", "141226.186000", "141228.185000", "141230.185000", "141232.186000", "141234.185000", "141236.186000", "141238.187000", "141240.186000", "141242.186000", "141244.185000", "141246.185000", "141248.185000", "141250.185000", "141252.186000", "141254.186000", "141256.186000", "141258.186000", "141300.185000", "141302.185000", "141304.186000", "141306.185000", "141308.185000", "141310.186000", "141312.186000", "141314.186000", "141316.187000", "141318.185000", "141320.185000", "141322.185000", "141324.185000", "141326.185000", "141328.186000", "141330.186000", "141332.187000", "141334.186000", "141336.186000", "141338.186000", "141340.185000", "141342.186000", "141344.185000", "141346.187000", "141348.186000", "141350.186000", "141352.187000", "141354.185000", "141356.185000", "141358.185000", "141400.185000", "141402.186000", "141404.187000", "141406.186000", "141408.186000", "141410.185000", "141412.185000", "141414.186000", "141416.185000", "141418.185000", "141420.186000", "141422.686000", "141424.186000", "141426.186000", "141428.186000", "141430.185000", "141432.186000", "141434.185000", "141436.185000", "141438.186000", "141440.186000", "141442.186000", "141444.187000", "141446.185000", "141448.185000", "141450.185000", "141452.185000", "141454.185000", "141456.186000", "141458.186000", "141500.186000", "141502.186000", "141504.186000", "141506.185000", "141508.186000", "141510.185000", "141512.186000", "141514.186000", "141516.187000", "141518.687000", "141520.185000", "141522.686000", "141524.185000", "141526.185000", "141528.185000", "141530.187000", "141532.186000", "141534.186000", "141536.186000", "141538.185000", "141540.185000", "141542.186000", "141544.185000", "141546.185000", "141548.186000", "141550.186000", "141552.186000", "141554.187000", "141556.186000", "141558.186000", "141600.185000", "141602.186000", "141604.186000", "141606.186000", "141608.186000", "141610.187000", "141612.186000", "141614.185000", "141616.685000", "141618.185000", "141620.185000", "141622.687000", "141624.186000", "141626.186000", "141628.186000", "141630.186000", "141632.185000", "141634.186000", "141636.185000", "141638.186000", "141640.187000", "141642.187000", "141644.186000", "141646.186000", "141648.185000", "141650.185000", "141652.186000", "141654.185000", "141656.687000", "141658.186000", "141700.186000", "141702.186000", "141704.187000", "141706.185000", "141708.185000", "141710.186000", "141712.185000", "141714.186000", "141716.186000", "141718.186000", "141720.186000", "141722.068000"],
      "InstanceNumber": [1, 2, 3, 4, 5, 6, 7, 8, 9, 10, 11, 12, 13, 14, 15, 16, 17, 18, 19, 20, 21, 22, 23, 24, 25, 26, 27, 28, 29, 30, 31, 32, 33, 34, 35, 36, 37, 38, 39, 40, 41, 42, 43, 44, 45, 46, 47, 48, 49, 50, 51, 52, 53, 54, 55, 56, 57, 58, 59, 60, 61, 62, 63, 64, 65, 66, 67, 68, 69, 70, 71, 72, 73, 74, 75, 76, 77, 78, 79, 80, 81, 82, 83, 84, 85, 86, 87, 88, 89, 90, 91, 92, 93, 94, 95, 96, 97, 98, 99, 100, 101, 102, 103, 104, 105, 106, 107, 108, 109, 110, 111, 112, 113, 114, 115, 116, 117, 118, 119, 120, 121, 122, 123, 124, 125, 126, 127, 128, 129, 130, 131, 132, 133, 134, 135, 136, 137, 138, 139, 140, 141, 142, 143, 144, 145, 146, 147, 148, 149, 150, 151, 152, 153, 154, 155, 156, 157, 158, 159, 160, 161, 162, 163, 164, 165, 166, 167, 168, 169, 170, 171, 172, 173, 174, 175, 176, 177, 178, 179, 180, 181, 182, 183, 184, 185, 186, 187, 188, 189, 190, 191, 192, 193, 194, 195, 196, 197, 198, 199, 200, 201, 202, 203, 204, 205, 206, 207, 208, 209, 210, 211, 212, 213, 214, 215, 216, 217, 218, 219, 220, 221, 222, 223, 224, 225, 226, 227, 228, 229, 230, 231, 232],
      "LargestImagePixelValue": [3905, 3904, 3873, 3890, 3874, 3884, 3894, 3896, 3875, 3860, 3839, 3824, 3853, 3827, 3857, 3814, 3823, 3830, 3879, 3830, 3835, 3852, 3860, 3848, 3840, 3819, 3827, 3826, 3802, 3787, 3799, 3831, 3836, 3790, 3820, 3793, 3782, 3840, 3840, 3820, 3842, 3797, 3782, 3789, 3792, 3805, 3856, 3872, 3829, 3828, 3743, 3807, 3789, 3860, 3801, 3780, 3765, 3746, 3763, 3805, 3809, 3834, 3842, 3805, 3814, 3820, 3822, 3818, 3794, 3798, 3838, 3823, 3830, 3829, 3797, 3793, 3777, 3794, 3806, 3813, 3752, 3776, 3774, 3752, 3793, 3806, 3773, 3745, 3725, 3782, 3715, 3784, 3692, 3795, 3796, 3727, 3727, 3720, 3815, 3779, 3760, 3794, 3770, 3799, 3781, 3801, 3792, 3774, 3782, 3772, 3810, 3787, 3734, 3681, 3614, 3657, 3644, 3668, 3661, 3670, 3627, 3649, 3622, 3707, 3731, 3654, 3688, 3649, 3678, 3647, 3633, 3729, 3679, 3665, 3663, 3725, 3675, 3811, 3750, 3619, 3799, 3635, 3839, 3650, 3597, 3616, 3591, 3581, 3607, 3638, 3617, 3621, 3603, 3624, 3615, 3627, 3647, 3603, 3621, 3630, 3606, 3640, 3620, 3623, 3618, 3619, 3614, 3631, 3658, 3621, 3640, 3678, 3647, 3653, 3656, 3643, 3623, 3802, 3641, 3588, 3656, 3627, 3674, 3644, 3617, 3624, 3600, 3602, 3611, 3621, 3607, 3664, 3644, 3656, 3678, 3700, 3643, 3660, 3675, 3665, 3673, 3690, 3663, 3671, 3639, 3724, 3727, 3684, 3693, 3651, 3652, 3656, 3653, 3634, 3655, 3689, 3678, 3639, 3673, 3640, 3718, 3687, 3698, 3742, 3758, 3776, 3705, 3684, 3755, 3761, 3761, 3755],
      "WindowCenter": [788.0, 785.0, 784.0, 784.0, 784.0, 784.0, 784.0, 783.0, 783.0, 784.0, 785.0, 785.0, 785.0, 784.0, 784.0, 784.0, 784.0, 785.0, 785.0, 785.0, 784.0, 784.0, 784.0, 784.0, 784.0, 784.0, 785.0, 785.0, 784.0, 784.0, 784.0, 784.0, 784.0, 785.0, 786.0, 785.0, 784.0, 784.0, 784.0, 784.0, 785.0, 785.0, 786.0, 785.0, 785.0, 785.0, 785.0, 785.0, 784.0, 784.0, 785.0, 785.0, 784.0, 784.0, 784.0, 784.0, 785.0, 785.0, 785.0, 786.0, 785.0, 785.0, 785.0, 784.0, 784.0, 784.0, 784.0, 784.0, 783.0, 784.0, 784.0, 784.0, 784.0, 784.0, 784.0, 784.0, 783.0, 783.0, 783.0, 783.0, 783.0, 784.0, 784.0, 783.0, 784.0, 783.0, 783.0, 783.0, 783.0, 785.0, 785.0, 784.0, 784.0, 782.0, 784.0, 783.0, 783.0, 782.0, 784.0, 783.0, 784.0, 783.0, 783.0, 783.0, 783.0, 784.0, 784.0, 784.0, 783.0, 783.0, 783.0, 782.0, 782.0, 782.0, 783.0, 783.0, 782.0, 782.0, 781.0, 781.0, 781.0, 782.0, 782.0, 782.0, 783.0, 782.0, 782.0, 781.0, 782.0, 782.0, 783.0, 783.0, 782.0, 781.0, 781.0, 782.0, 781.0, 783.0, 784.0, 782.0, 782.0, 780.0, 782.0, 781.0, 781.0, 781.0, 781.0, 781.0, 781.0, 781.0, 781.0, 782.0, 781.0, 782.0, 782.0, 782.0, 781.0, 781.0, 781.0, 781.0, 781.0, 782.0, 781.0, 781.0, 781.0, 781.0, 781.0, 781.0, 781.0, 781.0, 782.0, 782.0, 781.0, 781.0, 781.0, 781.0, 781.0, 783.0, 782.0, 781.0, 781.0, 779.0, 780.0, 780.0, 780.0, 781.0, 782.0, 782.0, 781.0, 782.0, 783.0, 782.0, 782.0, 782.0, 784.0, 784.0, 781.0, 781.0, 781.0, 781.0, 782.0, 782.0, 782.0, 782.0, 781.0, 781.0, 780.0, 780.0, 781.0, 782.0, 782.0, 781.0, 781.0, 781.0, 781.0, 781.0, 781.0, 782.0, 783.0, 782.0, 782.0, 781.0, 781.0, 781.0, 781.0, 783.0, 783.0, 783.0, 783.0, 782.0, 782.0, 782.0],
      "WindowWidth": [1739.0, 1731.0, 1728.0, 1727.0, 1727.0, 1726.0, 1726.0, 1725.0, 1725.0, 1727.0, 1730.0, 1729.0, 1729.0, 1728.0, 1728.0, 1727.0, 1727.0, 1729.0, 1731.0, 1729.0, 1728.0, 1728.0, 1727.0, 1727.0, 1727.0, 1728.0, 1729.0, 1729.0, 1727.0, 1727.0, 1727.0, 1727.0, 1727.0, 1728.0, 1731.0, 1728.0, 1728.0, 1727.0, 1726.0, 1728.0, 1730.0, 1731.0, 1732.0, 1731.0, 1730.0, 1729.0, 1729.0, 1729.0, 1728.0, 1729.0, 1729.0, 1730.0, 1726.0, 1727.0, 1727.0, 1728.0, 1728.0, 1729.0, 1729.0, 1731.0, 1729.0, 1729.0, 1729.0, 1728.0, 1727.0, 1726.0, 1726.0, 1726.0, 1725.0, 1725.0, 1726.0, 1726.0, 1726.0, 1727.0, 1727.0, 1726.0, 1724.0, 1723.0, 1723.0, 1723.0, 1723.0, 1725.0, 1725.0, 1725.0, 1725.0, 1725.0, 1724.0, 1724.0, 1725.0, 1728.0, 1728.0, 1728.0, 1726.0, 1722.0, 1726.0, 1724.0, 1723.0, 1722.0, 1728.0, 1724.0, 1725.0, 1724.0, 1723.0, 1724.0, 1724.0, 1726.0, 1727.0, 1726.0, 1724.0, 1724.0, 1724.0, 1722.0, 1722.0, 1720.0, 1723.0, 1721.0, 1719.0, 1719.0, 1716.0, 1717.0, 1718.0, 1721.0, 1720.0, 1721.0, 1721.0, 1719.0, 1718.0, 1718.0, 1719.0, 1720.0, 1721.0, 1721.0, 1720.0, 1717.0, 1717.0, 1719.0, 1718.0, 1723.0, 1727.0, 1720.0, 1719.0, 1714.0, 1720.0, 1718.0, 1716.0, 1716.0, 1717.0, 1717.0, 1717.0, 1716.0, 1717.0, 1719.0, 1718.0, 1719.0, 1720.0, 1720.0, 1718.0, 1716.0, 1716.0, 1717.0, 1718.0, 1719.0, 1718.0, 1718.0, 1718.0, 1717.0, 1717.0, 1716.0, 1716.0, 1718.0, 1720.0, 1721.0, 1718.0, 1718.0, 1717.0, 1717.0, 1716.0, 1723.0, 1720.0, 1716.0, 1716.0, 1713.0, 1714.0, 1714.0, 1715.0, 1717.0, 1718.0, 1719.0, 1718.0, 1720.0, 1721.0, 1721.0, 1719.0, 1721.0, 1725.0, 1725.0, 1718.0, 1717.0, 1719.0, 1717.0, 1719.0, 1720.0, 1719.0, 1719.0, 1716.0, 1716.0, 1715.0, 1715.0, 1718.0, 1719.0, 1720.0, 1718.0, 1716.0, 1715.0, 1716.0, 1716.0, 1717.0, 1719.0, 1722.0, 1721.0, 1720.0, 1717.0, 1717.0, 1717.0, 1718.0, 1722.0, 1723.0, 1723.0, 1722.0, 1720.0, 1719.0, 1719.0]
    },
    "slices": {}
  }
}