{
  "AcquisitionMatrixPE": 100,
  "AcquisitionNumber": 1,
  "AcquisitionTime": "14:02:6.912500",
  "BandwidthPerPixelPhaseEncode": 18.519,
  "BaseResolution": 100,
  "BodyPartExamined": "BRAIN",
  "ConsistencyInfo": "N4_VE11C_LATEST_20160120",
  "ConversionSoftware": "dcm2niix",
  "ConversionSoftwareVersion": "v1.0.20180622 GCC4.9.2",
  "DerivedVendorReportedEchoSpacing": 0.000539986,
  "DeviceSerialNumber": "166078",
  "DwellTime": 2.1e-06,
  "EchoTime": 0.034,
  "EchoTrainLength": 100,
  "EffectiveEchoSpacing": 0.000539986,
  "FlipAngle": 90,
  "ImageOrientationPatientDICOM": [0.999778, 0.00234749, 0.0209296, 1.89377e-09, 0.993769, -0.111463],
  "ImageType": [
    "ORIGINAL",
    "PRIMARY",
    "M",
    "ND",
    "MOSAIC"
],
  "InPlanePhaseEncodingDirectionDICOM": "COL",
  "InstitutionAddress": "Street_StreetNo_Bei_Jing_District_CN_ZIP",
  "InstitutionName": "BeiJing_Normal_University",
  "InstitutionalDepartmentName": "Department",
  "MRAcquisitionType": "2D",
  "MagneticFieldStrength": 3,
  "Manufacturer": "Siemens",
  "ManufacturersModelName": "Prisma",
  "Modality": "MR",
  "MultibandAccelerationFactor": 3,
  "PartialFourier": 1,
  "PatientPosition": "HFS",
  "PercentPhaseFOV": 100,
  "PhaseEncodingDirection": "j-",
  "PhaseEncodingSteps": 100,
  "PhaseResolution": 1,
  "PixelBandwidth": 2380,
  "ProcedureStepDescription": "BNU_P2018_64CH_Liu.Jia",
  "ProtocolName": "bold_100x100_s3_2x2x2_232",
  "PulseSequenceDetails": "%SiemensSeq%_ep2d_bold",
  "ReceiveCoilActiveElements": "HC1-7;NC1",
  "ReceiveCoilName": "HeadNeck_64",
  "ReconMatrixPE": 100,
  "RepetitionTime": 2,
  "SAR": 0.0656515,
  "ScanOptions": "FS",
  "ScanningSequence": "EP",
  "SequenceName": "_epfid2d1_100",
  "SequenceVariant": "SK",
  "SeriesDescription": "bold_100x100_s3_2x2x2_232",
  "SeriesNumber": 4,
  "ShimSetting": [-5461, -11505, -1294, 372, 30, -156, -195, -23],
  "SliceThickness": 2,
  "SliceTiming": [1.4825, 0, 0.9875, 0.0825, 1.07, 0.165, 1.1525, 0.245, 1.235, 0.3275, 1.3175, 0.41, 1.4, 0.575, 1.565, 0.6575, 1.6475, 0.74, 1.73, 0.8225, 1.8125, 0.905, 1.895, 0.4925, 1.4825, 0, 0.9875, 0.0825, 1.07, 0.165, 1.1525, 0.245, 1.235, 0.3275, 1.3175, 0.41, 1.4, 0.575, 1.565, 0.6575, 1.6475, 0.74, 1.73, 0.8225, 1.8125, 0.905, 1.895, 0.4925, 1.4825, 0, 0.9875, 0.0825, 1.07, 0.165, 1.1525, 0.245, 1.235, 0.3275, 1.3175, 0.41, 1.4, 0.575, 1.565, 0.6575, 1.6475, 0.74, 1.73, 0.8225, 1.8125, 0.905, 1.895, 0.4925],
  "SoftwareVersions": "syngo_MR_E11",
  "SpacingBetweenSlices": 2,
  "StationName": "AWP166078",
  "TaskName": "motor",
  "TotalReadoutTime": 0.0534586,
  "TxRefAmp": 208.475,
  "dcmmeta_affine": [
    [-1.9995564222335815, 3.7875378389173875e-09, 0.042121678590774536, 99.86634063720703],
    [-0.004694988951086998, 1.9875372648239136, -0.22287577390670776, -94.02369689941406],
    [0.04185920208692551, 0.22292523086071014, 1.9870963096618652, -77.60188293457031],
    [0.0, 0.0, 0.0, 1.0]
],
  "dcmmeta_reorient_transform": [
    [0.0, -1.0, 0.0, 99.0],
    [1.0, 0.0, 0.0, 0.0],
    [0.0, 0.0, 1.0, 0.0],
    [0.0, 0.0, 0.0, 1.0]
],
  "dcmmeta_shape": [100, 100, 72, 232],
  "dcmmeta_slice_dim": 2,
  "dcmmeta_version": 0.6,
  "global": {
    "const": {
      "AcquisitionMatrix": [100, 0, 0, 100],
      "AngioFlag": "N",
      "BitsAllocated": 16,
      "BitsStored": 12,
      "BodyPartExamined": "BRAIN",
      "Columns": 900,
      "EchoNumbers": 1,
      "EchoTime": 34.0,
      "EchoTrainLength": 100,
      "FlipAngle": 90.0,
      "HighBit": 11,
      "ImageOrientationPatient": [0.99977819592129, 0.00234749436589, 0.02092960177795, 1.893769e-09, 0.99376862771334, -0.1114626151351],
      "ImagePositionPatient": [-899.68890103105, -899.63538641245, 16.894125473547],
      "ImageType": [
        "ORIGINAL",
        "PRIMARY",
        "M",
        "ND",
        "MOSAIC"
],
      "ImagedNucleus": "1H",
      "ImagingFrequency": 123.257843,
      "InPlanePhaseEncodingDirection": "COL",
      "MRAcquisitionType": "2D",
      "MagneticFieldStrength": 3.0,
      "Manufacturer": "SIEMENS",
      "ManufacturerModelName": "Prisma",
      "Modality": "MR",
      "NumberOfAverages": 1.0,
      "NumberOfPhaseEncodingSteps": 100,
      "PercentPhaseFieldOfView": 100.0,
      "PercentSampling": 100.0,
      "PerformedProcedureStepStartTime": "135037.259000",
      "PhotometricInterpretation": "MONOCHROME2",
      "PixelBandwidth": 2380.0,
      "PixelRepresentation": 0,
      "PixelSpacing": [2.0, 2.0],
      "ProtocolName": "bold_100x100_s3_2x2x2_232",
      "RepetitionTime": 2000.0,
      "Rows": 900,
      "SAR": 0.06565146806243,
      "SamplesPerPixel": 1,
      "ScanOptions": "FS",
      "ScanningSequence": "EP",
      "SequenceName": "*epfid2d1_100",
      "SequenceVariant": "SK",
      "SeriesDescription": "bold_100x100_s3_2x2x2_232",
      "SeriesNumber": 4,
      "SeriesTime": "140209.049000",
      "SliceLocation": -64.520139715568,
      "SliceThickness": 2.0,
      "SmallestImagePixelValue": 0,
      "SoftwareVersions": "syngo MR E11",
      "SpacingBetweenSlices": 1.9999999170878,
      "SpecificCharacterSet": "ISO_IR 100",
      "StudyID": "1",
      "StudyTime": "135037.182000",
      "TransmitCoilName": "Body",
      "VariableFlipAngleFlag": "N",
      "WindowCenterWidthExplanation": "Algo1",
      "dBdt": 0.0},
    "slices": {}
  },
  "time": {
    "samples": {
      "AcquisitionNumber": [1, 2, 3, 4, 5, 6, 7, 8, 9, 10, 11, 12, 13, 14, 15, 16, 17, 18, 19, 20, 21, 22, 23, 24, 25, 26, 27, 28, 29, 30, 31, 32, 33, 34, 35, 36, 37, 38, 39, 40, 41, 42, 43, 44, 45, 46, 47, 48, 49, 50, 51, 52, 53, 54, 55, 56, 57, 58, 59, 60, 61, 62, 63, 64, 65, 66, 67, 68, 69, 70, 71, 72, 73, 74, 75, 76, 77, 78, 79, 80, 81, 82, 83, 84, 85, 86, 87, 88, 89, 90, 91, 92, 93, 94, 95, 96, 97, 98, 99, 100, 101, 102, 103, 104, 105, 106, 107, 108, 109, 110, 111, 112, 113, 114, 115, 116, 117, 118, 119, 120, 121, 122, 123, 124, 125, 126, 127, 128, 129, 130, 131, 132, 133, 134, 135, 136, 137, 138, 139, 140, 141, 142, 143, 144, 145, 146, 147, 148, 149, 150, 151, 152, 153, 154, 155, 156, 157, 158, 159, 160, 161, 162, 163, 164, 165, 166, 167, 168, 169, 170, 171, 172, 173, 174, 175, 176, 177, 178, 179, 180, 181, 182, 183, 184, 185, 186, 187, 188, 189, 190, 191, 192, 193, 194, 195, 196, 197, 198, 199, 200, 201, 202, 203, 204, 205, 206, 207, 208, 209, 210, 211, 212, 213, 214, 215, 216, 217, 218, 219, 220, 221, 222, 223, 224, 225, 226, 227, 228, 229, 230, 231, 232],
      "AcquisitionTime": ["140206.912500", "140208.912500", "140210.912500", "140212.912500", "140214.912500", "140216.912500", "140218.912500", "140220.912500", "140222.912500", "140224.912500", "140226.912500", "140228.912500", "140230.912500", "140232.912500", "140234.912500", "140236.912500", "140238.912500", "140240.912500", "140242.912500", "140244.912500", "140246.912500", "140248.912500", "140250.912500", "140252.912500", "140254.912500", "140256.912500", "140258.912500", "140300.912500", "140302.912500", "140304.912500", "140306.912500", "140308.912500", "140310.912500", "140312.912500", "140314.912500", "140316.912500", "140318.912500", "140320.912500", "140322.912500", "140324.912500", "140326.912500", "140328.912500", "140330.912500", "140332.912500", "140334.912500", "140336.912500", "140338.912500", "140340.912500", "140342.912500", "140344.912500", "140346.912500", "140348.912500", "140350.912500", "140352.912500", "140354.912500", "140356.912500", "140358.912500", "140400.912500", "140402.912500", "140404.912500", "140406.912500", "140408.912500", "140410.912500", "140412.912500", "140414.912500", "140416.912500", "140418.912500", "140420.912500", "140422.912500", "140424.912500", "140426.912500", "140428.912500", "140430.912500", "140432.912500", "140434.912500", "140436.912500", "140438.912500", "140440.912500", "140442.912500", "140444.912500", "140446.912500", "140448.912500", "140450.912500", "140452.912500", "140454.912500", "140456.912500", "140458.912500", "140500.912500", "140502.912500", "140504.912500", "140506.912500", "140508.912500", "140510.912500", "140512.912500", "140514.912500", "140516.912500", "140518.912500", "140520.912500", "140522.912500", "140524.912500", "140526.912500", "140528.912500", "140530.912500", "140532.912500", "140534.912500", "140536.912500", "140538.912500", "140540.912500", "140542.912500", "140544.912500", "140546.912500", "140548.912500", "140550.912500", "140552.912500", "140554.912500", "140556.912500", "140558.912500", "140600.912500", "140602.912500", "140604.912500", "140606.912500", "140608.912500", "140610.912500", "140612.912500", "140614.912500", "140616.912500", "140618.912500", "140620.912500", "140622.912500", "140624.912500", "140626.912500", "140628.912500", "140630.912500", "140632.912500", "140634.912500", "140636.912500", "140638.912500", "140640.912500", "140642.912500", "140644.912500", "140646.912500", "140648.912500", "140650.912500", "140652.912500", "140654.912500", "140656.912500", "140658.912500", "140700.912500", "140702.912500", "140704.912500", "140706.912500", "140708.912500", "140710.912500", "140712.912500", "140714.912500", "140716.912500", "140718.912500", "140720.912500", "140722.912500", "140724.912500", "140726.912500", "140728.912500", "140730.912500", "140732.912500", "140734.912500", "140736.912500", "140738.912500", "140740.912500", "140742.912500", "140744.912500", "140746.912500", "140748.912500", "140750.912500", "140752.912500", "140754.912500", "140756.912500", "140758.912500", "140800.912500", "140802.912500", "140804.912500", "140806.912500", "140808.912500", "140810.912500", "140812.912500", "140814.912500", "140816.912500", "140818.912500", "140820.912500", "140822.912500", "140824.912500", "140826.912500", "140828.912500", "140830.912500", "140832.912500", "140834.912500", "140836.912500", "140838.912500", "140840.912500", "140842.912500", "140844.912500", "140846.912500", "140848.912500", "140850.912500", "140852.912500", "140854.912500", "140856.912500", "140858.912500", "140900.912500", "140902.912500", "140904.912500", "140906.912500", "140908.912500", "140910.912500", "140912.912500", "140914.912500", "140916.912500", "140918.912500", "140920.912500", "140922.912500", "140924.912500", "140926.912500", "140928.912500", "140930.912500", "140932.912500", "140934.912500", "140936.912500", "140938.912500", "140940.912500", "140942.912500", "140944.912500", "140946.912500", "140948.912500"],
      "ContentTime": ["140209.062000", "140210.548000", "140212.548000", "140214.548000", "140216.549000", "140218.549000", "140220.549000", "140222.549000", "140224.549000", "140226.548000", "140228.548000", "140230.548000", "140232.548000", "140234.549000", "140236.549000", "140238.549000", "140240.549000", "140242.548000", "140244.549000", "140246.548000", "140248.548000", "140250.548000", "140252.550000", "140254.549000", "140256.550000", "140258.549000", "140300.549000", "140302.548000", "140304.548000", "140306.548000", "140308.548000", "140310.550000", "140312.549000", "140314.550000", "140316.548000", "140318.548000", "140320.548000", "140322.548000", "140324.548000", "140326.549000", "140328.549000", "140330.550000", "140332.549000", "140334.548000", "140336.548000", "140338.548000", "140340.548000", "140342.548000", "140344.549000", "140346.549000", "140348.550000", "140350.549000", "140352.548000", "140354.548000", "140356.549000", "140358.549000", "140400.548000", "140402.549000", "140404.549000", "140406.550000", "140408.549000", "140410.548000", "140412.548000", "140414.548000", "140416.549000", "140418.548000", "140420.549000", "140422.549000", "140424.549000", "140426.548000", "140428.549000", "140430.548000", "140433.049000", "140434.548000", "140436.549000", "140438.549000", "140440.549000", "140442.550000", "140444.548000", "140446.548000", "140448.548000", "140450.549000", "140452.548000", "140454.550000", "140456.549000", "140458.549000", "140500.549000", "140502.548000", "140504.548000", "140506.548000", "140508.548000", "140510.548000", "140512.549000", "140514.549000", "140516.549000", "140518.549000", "140520.548000", "140522.548000", "140525.049000", "140526.548000", "140528.548000", "140530.549000", "140532.549000", "140534.549000", "140536.549000", "140538.548000", "140540.548000", "140542.548000", "140544.549000", "140546.550000", "140548.549000", "140550.549000", "140552.549000", "140554.548000", "140556.548000", "140558.548000", "140600.549000", "140602.549000", "140604.550000", "140606.549000", "140608.549000", "140611.056000", "140612.548000", "140614.548000", "140616.548000", "140618.548000", "140620.548000", "140622.549000", "140624.549000", "140626.549000", "140628.549000", "140630.548000", "140632.548000", "140634.548000", "140636.548000", "140638.550000", "140640.549000", "140642.549000", "140644.550000", "140646.548000", "140649.048000", "140650.548000", "140652.548000", "140654.549000", "140656.550000", "140658.550000", "140700.549000", "140702.549000", "140704.548000", "140706.548000", "140708.549000", "140710.548000", "140712.548000", "140714.549000", "140716.549000", "140718.550000", "140720.549000", "140722.548000", "140724.548000", "140726.548000", "140728.549000", "140731.050000", "140732.550000", "140734.549000", "140736.549000", "140738.550000", "140740.548000", "140742.548000", "140744.548000", "140746.548000", "140748.549000", "140750.549000", "140752.550000", "140754.549000", "140756.549000", "140758.549000", "140800.548000", "140802.548000", "140804.549000", "140806.549000", "140808.549000", "140810.549000", "140812.549000", "140815.048000", "140816.549000", "140818.548000", "140820.548000", "140822.549000", "140824.549000", "140826.549000", "140828.549000", "140830.549000", "140832.548000", "140834.548000", "140836.548000", "140838.549000", "140840.549000", "140842.549000", "140844.549000", "140846.549000", "140848.549000", "140850.549000", "140852.548000", "140854.548000", "140856.548000", "140858.549000", "140900.549000", "140902.549000", "140904.549000", "140906.548000", "140908.549000", "140910.548000", "140912.548000", "140914.548000", "140916.549000", "140918.549000", "140920.549000", "140922.550000", "140924.548000", "140926.549000", "140928.549000", "140930.548000", "140932.548000", "140934.550000", "140936.549000", "140938.549000", "140940.549000", "140942.549000", "140944.549000", "140946.548000", "140948.549000", "140950.367000"],
      "InstanceCreationTime": ["140209.062000", "140210.548000", "140212.548000", "140214.548000", "140216.549000", "140218.549000", "140220.549000", "140222.549000", "140224.549000", "140226.548000", "140228.548000", "140230.548000", "140232.548000", "140234.549000", "140236.549000", "140238.549000", "140240.549000", "140242.548000", "140244.549000", "140246.548000", "140248.548000", "140250.548000", "140252.550000", "140254.549000", "140256.550000", "140258.549000", "140300.549000", "140302.548000", "140304.548000", "140306.548000", "140308.548000", "140310.550000", "140312.549000", "140314.550000", "140316.548000", "140318.548000", "140320.548000", "140322.548000", "140324.548000", "140326.549000", "140328.549000", "140330.550000", "140332.549000", "140334.548000", "140336.548000", "140338.548000", "140340.548000", "140342.548000", "140344.549000", "140346.549000", "140348.550000", "140350.549000", "140352.548000", "140354.548000", "140356.549000", "140358.549000", "140400.548000", "140402.549000", "140404.549000", "140406.550000", "140408.549000", "140410.548000", "140412.548000", "140414.548000", "140416.549000", "140418.548000", "140420.549000", "140422.549000", "140424.549000", "140426.548000", "140428.549000", "140430.548000", "140433.049000", "140434.548000", "140436.549000", "140438.549000", "140440.549000", "140442.550000", "140444.548000", "140446.548000", "140448.548000", "140450.549000", "140452.548000", "140454.550000", "140456.549000", "140458.549000", "140500.549000", "140502.548000", "140504.548000", "140506.548000", "140508.548000", "140510.548000", "140512.549000", "140514.549000", "140516.549000", "140518.549000", "140520.548000", "140522.548000", "140525.049000", "140526.548000", "140528.548000", "140530.549000", "140532.549000", "140534.549000", "140536.549000", "140538.548000", "140540.548000", "140542.548000", "140544.549000", "140546.550000", "140548.549000", "140550.549000", "140552.549000", "140554.548000", "140556.548000", "140558.548000", "140600.549000", "140602.549000", "140604.550000", "140606.549000", "140608.549000", "140611.056000", "140612.548000", "140614.548000", "140616.548000", "140618.548000", "140620.548000", "140622.549000", "140624.549000", "140626.549000", "140628.549000", "140630.548000", "140632.548000", "140634.548000", "140636.548000", "140638.550000", "140640.549000", "140642.549000", "140644.550000", "140646.548000", "140649.048000", "140650.548000", "140652.548000", "140654.549000", "140656.550000", "140658.550000", "140700.549000", "140702.549000", "140704.548000", "140706.548000", "140708.549000", "140710.548000", "140712.548000", "140714.549000", "140716.549000", "140718.550000", "140720.549000", "140722.548000", "140724.548000", "140726.548000", "140728.549000", "140731.050000", "140732.550000", "140734.549000", "140736.549000", "140738.550000", "140740.548000", "140742.548000", "140744.548000", "140746.548000", "140748.549000", "140750.549000", "140752.550000", "140754.549000", "140756.549000", "140758.549000", "140800.548000", "140802.548000", "140804.549000", "140806.549000", "140808.549000", "140810.549000", "140812.549000", "140815.048000", "140816.549000", "140818.548000", "140820.548000", "140822.549000", "140824.549000", "140826.549000", "140828.549000", "140830.549000", "140832.548000", "140834.548000", "140836.548000", "140838.549000", "140840.549000", "140842.549000", "140844.549000", "140846.549000", "140848.549000", "140850.549000", "140852.548000", "140854.548000", "140856.548000", "140858.549000", "140900.549000", "140902.549000", "140904.549000", "140906.548000", "140908.549000", "140910.548000", "140912.548000", "140914.548000", "140916.549000", "140918.549000", "140920.549000", "140922.550000", "140924.548000", "140926.549000", "140928.549000", "140930.548000", "140932.548000", "140934.550000", "140936.549000", "140938.549000", "140940.549000", "140942.549000", "140944.549000", "140946.548000", "140948.549000", "140950.367000"],
      "InstanceNumber": [1, 2, 3, 4, 5, 6, 7, 8, 9, 10, 11, 12, 13, 14, 15, 16, 17, 18, 19, 20, 21, 22, 23, 24, 25, 26, 27, 28, 29, 30, 31, 32, 33, 34, 35, 36, 37, 38, 39, 40, 41, 42, 43, 44, 45, 46, 47, 48, 49, 50, 51, 52, 53, 54, 55, 56, 57, 58, 59, 60, 61, 62, 63, 64, 65, 66, 67, 68, 69, 70, 71, 72, 73, 74, 75, 76, 77, 78, 79, 80, 81, 82, 83, 84, 85, 86, 87, 88, 89, 90, 91, 92, 93, 94, 95, 96, 97, 98, 99, 100, 101, 102, 103, 104, 105, 106, 107, 108, 109, 110, 111, 112, 113, 114, 115, 116, 117, 118, 119, 120, 121, 122, 123, 124, 125, 126, 127, 128, 129, 130, 131, 132, 133, 134, 135, 136, 137, 138, 139, 140, 141, 142, 143, 144, 145, 146, 147, 148, 149, 150, 151, 152, 153, 154, 155, 156, 157, 158, 159, 160, 161, 162, 163, 164, 165, 166, 167, 168, 169, 170, 171, 172, 173, 174, 175, 176, 177, 178, 179, 180, 181, 182, 183, 184, 185, 186, 187, 188, 189, 190, 191, 192, 193, 194, 195, 196, 197, 198, 199, 200, 201, 202, 203, 204, 205, 206, 207, 208, 209, 210, 211, 212, 213, 214, 215, 216, 217, 218, 219, 220, 221, 222, 223, 224, 225, 226, 227, 228, 229, 230, 231, 232],
      "LargestImagePixelValue": [4095, 4082, 4094, 4047, 4044, 4072, 4072, 4095, 4077, 4060, 4022, 4065, 4022, 4073, 4041, 4027, 4047, 4057, 4055, 4024, 4060, 4013, 4011, 4023, 4034, 3899, 3965, 3809, 3732, 3979, 3899, 3735, 4095, 4095, 4002, 3979, 3979, 3982, 3949, 3980, 4079, 3973, 4095, 4029, 3928, 3983, 3931, 3932, 3914, 3995, 4052, 4069, 4095, 4077, 4095, 4095, 3984, 3928, 3935, 3988, 4002, 4064, 4005, 4057, 3993, 4045, 4095, 4095, 4059, 4095, 4095, 4095, 4069, 3816, 4021, 3871, 3804, 3851, 4074, 3851, 3914, 4001, 3972, 4005, 4017, 4052, 3941, 3975, 3985, 4007, 4055, 4026, 4010, 4061, 4007, 4007, 4028, 3999, 3981, 4016, 3951, 4005, 3994, 3965, 4035, 3989, 3969, 4015, 4095, 3953, 3989, 3957, 4095, 4037, 4095, 4054, 4053, 3990, 4064, 3981, 4070, 3975, 3963, 3931, 3972, 3933, 3913, 3947, 4057, 4092, 4063, 4037, 4076, 4095, 4041, 4011, 4010, 4041, 4028, 4031, 4036, 4059, 4031, 4092, 4041, 4052, 4087, 4095, 4038, 4011, 4036, 4005, 4053, 3933, 3977, 3973, 3998, 4050, 4095, 3980, 4002, 3965, 3921, 3885, 3870, 3889, 3950, 4002, 3924, 3942, 3984, 4038, 3978, 3963, 3987, 3984, 4013, 4036, 4020, 3995, 3989, 4053, 3989, 3996, 4095, 3915, 3854, 3917, 3872, 3829, 3889, 3889, 3874, 4095, 3888, 3884, 3886, 3864, 3897, 3871, 3875, 3847, 3845, 3809, 3761, 3747, 3713, 3945, 3883, 3883, 3891, 3806, 3907, 3887, 3890, 3892, 3891, 3890, 3884, 3861, 3833, 3774, 3842, 3768, 3778, 3856, 3799, 3818, 3778, 3829, 3764, 3804],
      "WindowCenter": [768.0, 766.0, 765.0, 765.0, 765.0, 765.0, 765.0, 766.0, 766.0, 766.0, 766.0, 765.0, 764.0, 765.0, 765.0, 765.0, 765.0, 766.0, 766.0, 766.0, 766.0, 765.0, 765.0, 765.0, 766.0, 765.0, 766.0, 764.0, 765.0, 764.0, 765.0, 765.0, 765.0, 767.0, 768.0, 769.0, 768.0, 767.0, 767.0, 768.0, 769.0, 769.0, 770.0, 769.0, 767.0, 767.0, 767.0, 767.0, 767.0, 767.0, 767.0, 767.0, 768.0, 766.0, 766.0, 767.0, 768.0, 768.0, 768.0, 768.0, 769.0, 768.0, 767.0, 767.0, 767.0, 766.0, 767.0, 766.0, 764.0, 764.0, 766.0, 766.0, 766.0, 764.0, 768.0, 768.0, 766.0, 765.0, 767.0, 766.0, 770.0, 769.0, 769.0, 768.0, 768.0, 767.0, 766.0, 766.0, 766.0, 766.0, 768.0, 768.0, 767.0, 766.0, 766.0, 766.0, 765.0, 765.0, 766.0, 766.0, 765.0, 766.0, 766.0, 767.0, 767.0, 767.0, 768.0, 768.0, 768.0, 767.0, 767.0, 767.0, 766.0, 767.0, 768.0, 767.0, 767.0, 765.0, 766.0, 766.0, 766.0, 766.0, 766.0, 766.0, 766.0, 765.0, 765.0, 766.0, 765.0, 766.0, 767.0, 767.0, 767.0, 767.0, 766.0, 766.0, 767.0, 767.0, 767.0, 767.0, 767.0, 767.0, 767.0, 768.0, 767.0, 768.0, 769.0, 769.0, 768.0, 768.0, 768.0, 768.0, 769.0, 769.0, 769.0, 768.0, 766.0, 766.0, 766.0, 767.0, 768.0, 767.0, 768.0, 768.0, 767.0, 764.0, 761.0, 761.0, 759.0, 762.0, 763.0, 764.0, 763.0, 763.0, 763.0, 765.0, 765.0, 766.0, 766.0, 766.0, 765.0, 766.0, 765.0, 766.0, 766.0, 766.0, 766.0, 767.0, 766.0, 763.0, 766.0, 769.0, 768.0, 768.0, 765.0, 764.0, 764.0, 764.0, 764.0, 765.0, 765.0, 766.0, 767.0, 766.0, 767.0, 764.0, 765.0, 765.0, 766.0, 766.0, 767.0, 767.0, 767.0, 767.0, 767.0, 766.0, 766.0, 766.0, 767.0, 767.0, 765.0, 765.0, 765.0, 764.0, 764.0, 765.0, 766.0, 765.0, 763.0, 761.0, 761.0, 761.0],
      "WindowWidth": [1684.0, 1677.0, 1676.0, 1674.0, 1675.0, 1674.0, 1676.0, 1678.0, 1678.0, 1679.0, 1679.0, 1676.0, 1673.0, 1674.0, 1674.0, 1675.0, 1675.0, 1677.0, 1677.0, 1678.0, 1678.0, 1676.0, 1677.0, 1676.0, 1677.0, 1676.0, 1679.0, 1674.0, 1677.0, 1672.0, 1676.0, 1675.0, 1676.0, 1680.0, 1685.0, 1685.0, 1684.0, 1682.0, 1682.0, 1684.0, 1686.0, 1686.0, 1689.0, 1686.0, 1683.0, 1681.0, 1681.0, 1681.0, 1681.0, 1682.0, 1683.0, 1682.0, 1682.0, 1677.0, 1678.0, 1681.0, 1683.0, 1683.0, 1685.0, 1684.0, 1685.0, 1685.0, 1683.0, 1682.0, 1680.0, 1678.0, 1682.0, 1678.0, 1673.0, 1673.0, 1677.0, 1676.0, 1676.0, 1672.0, 1684.0, 1685.0, 1680.0, 1676.0, 1680.0, 1677.0, 1689.0, 1686.0, 1687.0, 1685.0, 1683.0, 1681.0, 1679.0, 1679.0, 1679.0, 1679.0, 1685.0, 1683.0, 1681.0, 1678.0, 1678.0, 1678.0, 1677.0, 1676.0, 1678.0, 1678.0, 1676.0, 1678.0, 1679.0, 1680.0, 1681.0, 1682.0, 1683.0, 1684.0, 1684.0, 1680.0, 1680.0, 1681.0, 1680.0, 1681.0, 1684.0, 1681.0, 1679.0, 1675.0, 1678.0, 1676.0, 1677.0, 1679.0, 1678.0, 1677.0, 1678.0, 1676.0, 1676.0, 1677.0, 1675.0, 1677.0, 1679.0, 1680.0, 1681.0, 1679.0, 1679.0, 1678.0, 1681.0, 1682.0, 1681.0, 1680.0, 1680.0, 1680.0, 1680.0, 1682.0, 1682.0, 1684.0, 1686.0, 1686.0, 1684.0, 1682.0, 1683.0, 1684.0, 1688.0, 1687.0, 1688.0, 1684.0, 1678.0, 1677.0, 1678.0, 1681.0, 1683.0, 1680.0, 1682.0, 1684.0, 1682.0, 1672.0, 1663.0, 1664.0, 1659.0, 1667.0, 1670.0, 1672.0, 1668.0, 1670.0, 1669.0, 1673.0, 1674.0, 1678.0, 1678.0, 1678.0, 1676.0, 1677.0, 1675.0, 1677.0, 1678.0, 1678.0, 1678.0, 1681.0, 1678.0, 1670.0, 1680.0, 1688.0, 1684.0, 1683.0, 1674.0, 1673.0, 1673.0, 1673.0, 1673.0, 1674.0, 1675.0, 1679.0, 1680.0, 1678.0, 1680.0, 1673.0, 1674.0, 1677.0, 1677.0, 1678.0, 1680.0, 1680.0, 1681.0, 1680.0, 1680.0, 1679.0, 1679.0, 1679.0, 1681.0, 1680.0, 1676.0, 1674.0, 1673.0, 1672.0, 1673.0, 1674.0, 1677.0, 1675.0, 1668.0, 1664.0, 1662.0, 1664.0]
    },
    "slices": {}
  }
}