{
  "AcquisitionMatrixPE": 100,
  "AcquisitionNumber": 1,
  "AcquisitionTime": "14:30:33.190000",
  "BandwidthPerPixelPhaseEncode": 18.519,
  "BaseResolution": 100,
  "BodyPartExamined": "BRAIN",
  "ConsistencyInfo": "N4_VE11C_LATEST_20160120",
  "ConversionSoftware": "dcm2niix",
  "ConversionSoftwareVersion": "v1.0.20180622 GCC4.9.2",
  "DerivedVendorReportedEchoSpacing": 0.000539986,
  "DeviceSerialNumber": "166078",
  "DwellTime": 2.1e-06,
  "EchoTime": 0.034,
  "EchoTrainLength": 100,
  "EffectiveEchoSpacing": 0.000539986,
  "FlipAngle": 90,
  "ImageOrientationPatientDICOM": [0.999778, 0.00234749, 0.0209296, 1.89377e-09, 0.993769, -0.111463],
  "ImageType": [
    "ORIGINAL",
    "PRIMARY",
    "M",
    "ND",
    "MOSAIC"
],
  "InPlanePhaseEncodingDirectionDICOM": "COL",
  "InstitutionAddress": "Street_StreetNo_Bei_Jing_District_CN_ZIP",
  "InstitutionName": "BeiJing_Normal_University",
  "InstitutionalDepartmentName": "Department",
  "MRAcquisitionType": "2D",
  "MagneticFieldStrength": 3,
  "Manufacturer": "Siemens",
  "ManufacturersModelName": "Prisma",
  "Modality": "MR",
  "MultibandAccelerationFactor": 3,
  "PartialFourier": 1,
  "PatientPosition": "HFS",
  "PercentPhaseFOV": 100,
  "PhaseEncodingDirection": "j-",
  "PhaseEncodingSteps": 100,
  "PhaseResolution": 1,
  "PixelBandwidth": 2380,
  "ProcedureStepDescription": "BNU_P2018_64CH_Liu.Jia",
  "ProtocolName": "bold_100x100_s3_2x2x2_232",
  "PulseSequenceDetails": "%SiemensSeq%_ep2d_bold",
  "ReceiveCoilActiveElements": "HC1-7;NC1",
  "ReceiveCoilName": "HeadNeck_64",
  "ReconMatrixPE": 100,
  "RepetitionTime": 2,
  "SAR": 0.0656515,
  "ScanOptions": "FS",
  "ScanningSequence": "EP",
  "SequenceName": "_epfid2d1_100",
  "SequenceVariant": "SK",
  "SeriesDescription": "bold_100x100_s3_2x2x2_232",
  "SeriesNumber": 9,
  "ShimSetting": [-5461, -11505, -1294, 372, 30, -156, -195, -23],
  "SliceThickness": 2,
  "SliceTiming": [1.485, 0, 0.99, 0.0825, 1.0725, 0.165, 1.155, 0.2475, 1.2375, 0.33, 1.32, 0.4125, 1.4025, 0.5775, 1.5675, 0.66, 1.65, 0.7425, 1.7325, 0.825, 1.815, 0.9075, 1.8975, 0.495, 1.485, 0, 0.99, 0.0825, 1.0725, 0.165, 1.155, 0.2475, 1.2375, 0.33, 1.32, 0.4125, 1.4025, 0.5775, 1.5675, 0.66, 1.65, 0.7425, 1.7325, 0.825, 1.815, 0.9075, 1.8975, 0.495, 1.485, 0, 0.99, 0.0825, 1.0725, 0.165, 1.155, 0.2475, 1.2375, 0.33, 1.32, 0.4125, 1.4025, 0.5775, 1.5675, 0.66, 1.65, 0.7425, 1.7325, 0.825, 1.815, 0.9075, 1.8975, 0.495],
  "SoftwareVersions": "syngo_MR_E11",
  "SpacingBetweenSlices": 2,
  "StationName": "AWP166078",
  "TaskName": "motor",
  "TotalReadoutTime": 0.0534586,
  "TxRefAmp": 208.475,
  "dcmmeta_affine": [
    [-1.9995564222335815, 3.7875378389173875e-09, 0.042121678590774536, 99.86634063720703],
    [-0.004694988951086998, 1.9875372648239136, -0.22287577390670776, -94.02369689941406],
    [0.04185920208692551, 0.22292523086071014, 1.9870963096618652, -77.60188293457031],
    [0.0, 0.0, 0.0, 1.0]
],
  "dcmmeta_reorient_transform": [
    [0.0, -1.0, 0.0, 99.0],
    [1.0, 0.0, 0.0, 0.0],
    [0.0, 0.0, 1.0, 0.0],
    [0.0, 0.0, 0.0, 1.0]
],
  "dcmmeta_shape": [100, 100, 72, 232],
  "dcmmeta_slice_dim": 2,
  "dcmmeta_version": 0.6,
  "global": {
    "const": {
      "AcquisitionMatrix": [100, 0, 0, 100],
      "AngioFlag": "N",
      "BitsAllocated": 16,
      "BitsStored": 12,
      "BodyPartExamined": "BRAIN",
      "Columns": 900,
      "EchoNumbers": 1,
      "EchoTime": 34.0,
      "EchoTrainLength": 100,
      "FlipAngle": 90.0,
      "HighBit": 11,
      "ImageOrientationPatient": [0.99977819592129, 0.00234749436589, 0.02092960177795, 1.893769e-09, 0.99376862771334, -0.1114626151351],
      "ImagePositionPatient": [-899.68890103105, -899.63538641245, 16.894125473547],
      "ImageType": [
        "ORIGINAL",
        "PRIMARY",
        "M",
        "ND",
        "MOSAIC"
],
      "ImagedNucleus": "1H",
      "ImagingFrequency": 123.257851,
      "InPlanePhaseEncodingDirection": "COL",
      "MRAcquisitionType": "2D",
      "MagneticFieldStrength": 3.0,
      "Manufacturer": "SIEMENS",
      "ManufacturerModelName": "Prisma",
      "Modality": "MR",
      "NumberOfAverages": 1.0,
      "NumberOfPhaseEncodingSteps": 100,
      "PercentPhaseFieldOfView": 100.0,
      "PercentSampling": 100.0,
      "PerformedProcedureStepStartTime": "135037.259000",
      "PhotometricInterpretation": "MONOCHROME2",
      "PixelBandwidth": 2380.0,
      "PixelRepresentation": 0,
      "PixelSpacing": [2.0, 2.0],
      "ProtocolName": "bold_100x100_s3_2x2x2_232",
      "RepetitionTime": 2000.0,
      "Rows": 900,
      "SAR": 0.06565146806243,
      "SamplesPerPixel": 1,
      "ScanOptions": "FS",
      "ScanningSequence": "EP",
      "SequenceName": "*epfid2d1_100",
      "SequenceVariant": "SK",
      "SeriesDescription": "bold_100x100_s3_2x2x2_232",
      "SeriesNumber": 9,
      "SeriesTime": "143035.684000",
      "SliceLocation": -64.520139715568,
      "SliceThickness": 2.0,
      "SmallestImagePixelValue": 0,
      "SoftwareVersions": "syngo MR E11",
      "SpacingBetweenSlices": 1.9999999170878,
      "SpecificCharacterSet": "ISO_IR 100",
      "StudyID": "1",
      "StudyTime": "135037.182000",
      "TransmitCoilName": "Body",
      "VariableFlipAngleFlag": "N",
      "WindowCenterWidthExplanation": "Algo1",
      "dBdt": 0.0},
    "slices": {}
  },
  "time": {
    "samples": {
      "AcquisitionNumber": [1, 2, 3, 4, 5, 6, 7, 8, 9, 10, 11, 12, 13, 14, 15, 16, 17, 18, 19, 20, 21, 22, 23, 24, 25, 26, 27, 28, 29, 30, 31, 32, 33, 34, 35, 36, 37, 38, 39, 40, 41, 42, 43, 44, 45, 46, 47, 48, 49, 50, 51, 52, 53, 54, 55, 56, 57, 58, 59, 60, 61, 62, 63, 64, 65, 66, 67, 68, 69, 70, 71, 72, 73, 74, 75, 76, 77, 78, 79, 80, 81, 82, 83, 84, 85, 86, 87, 88, 89, 90, 91, 92, 93, 94, 95, 96, 97, 98, 99, 100, 101, 102, 103, 104, 105, 106, 107, 108, 109, 110, 111, 112, 113, 114, 115, 116, 117, 118, 119, 120, 121, 122, 123, 124, 125, 126, 127, 128, 129, 130, 131, 132, 133, 134, 135, 136, 137, 138, 139, 140, 141, 142, 143, 144, 145, 146, 147, 148, 149, 150, 151, 152, 153, 154, 155, 156, 157, 158, 159, 160, 161, 162, 163, 164, 165, 166, 167, 168, 169, 170, 171, 172, 173, 174, 175, 176, 177, 178, 179, 180, 181, 182, 183, 184, 185, 186, 187, 188, 189, 190, 191, 192, 193, 194, 195, 196, 197, 198, 199, 200, 201, 202, 203, 204, 205, 206, 207, 208, 209, 210, 211, 212, 213, 214, 215, 216, 217, 218, 219, 220, 221, 222, 223, 224, 225, 226, 227, 228, 229, 230, 231, 232],
      "AcquisitionTime": ["143033.190000", "143035.190000", "143037.190000", "143039.190000", "143041.190000", "143043.190000", "143045.190000", "143047.190000", "143049.190000", "143051.190000", "143053.190000", "143055.190000", "143057.190000", "143059.190000", "143101.190000", "143103.190000", "143105.190000", "143107.190000", "143109.190000", "143111.190000", "143113.190000", "143115.190000", "143117.190000", "143119.190000", "143121.190000", "143123.190000", "143125.190000", "143127.190000", "143129.190000", "143131.190000", "143133.190000", "143135.190000", "143137.190000", "143139.190000", "143141.190000", "143143.190000", "143145.190000", "143147.190000", "143149.190000", "143151.190000", "143153.190000", "143155.190000", "143157.190000", "143159.190000", "143201.190000", "143203.190000", "143205.190000", "143207.190000", "143209.190000", "143211.190000", "143213.190000", "143215.190000", "143217.190000", "143219.190000", "143221.190000", "143223.190000", "143225.190000", "143227.190000", "143229.190000", "143231.190000", "143233.190000", "143235.190000", "143237.190000", "143239.190000", "143241.190000", "143243.190000", "143245.190000", "143247.190000", "143249.190000", "143251.190000", "143253.190000", "143255.190000", "143257.190000", "143259.190000", "143301.190000", "143303.190000", "143305.190000", "143307.190000", "143309.190000", "143311.190000", "143313.190000", "143315.190000", "143317.190000", "143319.190000", "143321.190000", "143323.190000", "143325.190000", "143327.190000", "143329.190000", "143331.190000", "143333.190000", "143335.190000", "143337.190000", "143339.190000", "143341.190000", "143343.190000", "143345.190000", "143347.190000", "143349.190000", "143351.190000", "143353.190000", "143355.190000", "143357.190000", "143359.190000", "143401.190000", "143403.190000", "143405.190000", "143407.190000", "143409.190000", "143411.190000", "143413.190000", "143415.190000", "143417.190000", "143419.190000", "143421.190000", "143423.190000", "143425.190000", "143427.190000", "143429.190000", "143431.190000", "143433.190000", "143435.190000", "143437.190000", "143439.190000", "143441.190000", "143443.190000", "143445.190000", "143447.190000", "143449.190000", "143451.190000", "143453.190000", "143455.190000", "143457.190000", "143459.190000", "143501.190000", "143503.190000", "143505.190000", "143507.190000", "143509.190000", "143511.190000", "143513.190000", "143515.190000", "143517.190000", "143519.190000", "143521.190000", "143523.190000", "143525.190000", "143527.190000", "143529.190000", "143531.190000", "143533.190000", "143535.190000", "143537.190000", "143539.190000", "143541.190000", "143543.190000", "143545.190000", "143547.190000", "143549.190000", "143551.190000", "143553.190000", "143555.190000", "143557.190000", "143559.190000", "143601.190000", "143603.190000", "143605.190000", "143607.190000", "143609.190000", "143611.190000", "143613.190000", "143615.190000", "143617.190000", "143619.190000", "143621.190000", "143623.190000", "143625.190000", "143627.190000", "143629.190000", "143631.190000", "143633.190000", "143635.190000", "143637.190000", "143639.190000", "143641.190000", "143643.190000", "143645.190000", "143647.190000", "143649.190000", "143651.190000", "143653.190000", "143655.190000", "143657.190000", "143659.190000", "143701.190000", "143703.190000", "143705.190000", "143707.190000", "143709.190000", "143711.190000", "143713.190000", "143715.190000", "143717.190000", "143719.190000", "143721.190000", "143723.190000", "143725.190000", "143727.190000", "143729.190000", "143731.190000", "143733.190000", "143735.190000", "143737.190000", "143739.190000", "143741.190000", "143743.190000", "143745.190000", "143747.190000", "143749.190000", "143751.190000", "143753.190000", "143755.190000", "143757.190000", "143759.190000", "143801.190000", "143803.190000", "143805.190000", "143807.190000", "143809.190000", "143811.190000", "143813.190000", "143815.190000"],
      "ContentTime": ["143035.688000", "143037.183000", "143039.184000", "143041.183000", "143043.183000", "143045.183000", "143047.182000", "143049.182000", "143051.183000", "143053.183000", "143055.184000", "143057.184000", "143059.183000", "143101.183000", "143103.184000", "143105.182000", "143107.183000", "143109.184000", "143111.183000", "143113.184000", "143115.184000", "143117.183000", "143119.183000", "143121.183000", "143123.183000", "143125.184000", "143127.184000", "143129.184000", "143131.183000", "143133.184000", "143135.184000", "143137.183000", "143139.183000", "143141.182000", "143143.184000", "143145.183000", "143147.184000", "143149.184000", "143151.183000", "143153.184000", "143155.183000", "143157.182000", "143159.182000", "143201.183000", "143203.184000", "143205.183000", "143207.183000", "143209.184000", "143211.184000", "143213.183000", "143215.182000", "143217.183000", "143219.184000", "143221.183000", "143223.183000", "143225.183000", "143227.183000", "143229.184000", "143231.183000", "143233.182000", "143235.184000", "143237.184000", "143239.184000", "143241.184000", "143243.183000", "143245.183000", "143247.183000", "143249.183000", "143251.183000", "143253.183000", "143255.183000", "143257.183000", "143259.183000", "143301.184000", "143303.183000", "143305.183000", "143307.183000", "143309.182000", "143311.184000", "143313.183000", "143315.183000", "143317.183000", "143319.184000", "143321.183000", "143323.183000", "143325.182000", "143327.183000", "143329.184000", "143331.183000", "143333.184000", "143335.183000", "143337.184000", "143339.184000", "143341.183000", "143343.182000", "143345.184000", "143347.183000", "143349.183000", "143351.183000", "143353.184000", "143355.183000", "143357.184000", "143359.184000", "143401.183000", "143403.184000", "143405.183000", "143407.183000", "143409.183000", "143411.183000", "143413.184000", "143415.183000", "143417.183000", "143419.183000", "143421.184000", "143423.183000", "143425.183000", "143427.183000", "143429.183000", "143431.184000", "143433.183000", "143435.182000", "143437.199000", "143439.183000", "143441.183000", "143443.184000", "143445.184000", "143447.184000", "143449.183000", "143451.183000", "143453.182000", "143455.183000", "143457.183000", "143459.184000", "143501.183000", "143503.183000", "143505.184000", "143507.184000", "143509.183000", "143511.182000", "143513.183000", "143515.183000", "143517.183000", "143519.184000", "143521.184000", "143523.183000", "143525.184000", "143527.182000", "143529.183000", "143531.183000", "143533.184000", "143535.184000", "143537.184000", "143539.183000", "143541.183000", "143543.183000", "143545.182000", "143547.184000", "143549.184000", "143551.184000", "143553.184000", "143555.184000", "143557.183000", "143559.184000", "143601.184000", "143603.183000", "143605.184000", "143607.183000", "143609.184000", "143611.183000", "143613.183000", "143615.183000", "143617.183000", "143619.184000", "143621.183000", "143623.183000", "143625.184000", "143627.183000", "143629.184000", "143631.183000", "143633.184000", "143635.184000", "143637.183000", "143639.182000", "143641.183000", "143643.184000", "143645.183000", "143647.184000", "143649.184000", "143651.184000", "143653.183000", "143655.183000", "143657.183000", "143659.183000", "143701.183000", "143703.184000", "143705.183000", "143707.184000", "143709.184000", "143711.183000", "143713.183000", "143715.184000", "143717.183000", "143719.183000", "143721.184000", "143723.183000", "143725.183000", "143727.184000", "143729.184000", "143731.183000", "143733.184000", "143735.184000", "143737.183000", "143739.184000", "143741.184000", "143743.183000", "143745.184000", "143747.182000", "143749.183000", "143751.184000", "143753.183000", "143755.184000", "143757.184000", "143759.184000", "143801.183000", "143803.183000", "143805.183000", "143807.183000", "143809.184000", "143811.184000", "143813.184000", "143815.183000", "143816.858000"],
      "InstanceCreationTime": ["143035.688000", "143037.183000", "143039.184000", "143041.183000", "143043.183000", "143045.183000", "143047.182000", "143049.182000", "143051.183000", "143053.183000", "143055.184000", "143057.184000", "143059.183000", "143101.183000", "143103.184000", "143105.182000", "143107.183000", "143109.184000", "143111.183000", "143113.184000", "143115.184000", "143117.183000", "143119.183000", "143121.183000", "143123.183000", "143125.184000", "143127.184000", "143129.184000", "143131.183000", "143133.184000", "143135.184000", "143137.183000", "143139.183000", "143141.182000", "143143.184000", "143145.183000", "143147.184000", "143149.184000", "143151.183000", "143153.184000", "143155.183000", "143157.182000", "143159.182000", "143201.183000", "143203.184000", "143205.183000", "143207.183000", "143209.184000", "143211.184000", "143213.183000", "143215.182000", "143217.183000", "143219.184000", "143221.183000", "143223.183000", "143225.183000", "143227.183000", "143229.184000", "143231.183000", "143233.182000", "143235.184000", "143237.184000", "143239.184000", "143241.184000", "143243.183000", "143245.183000", "143247.183000", "143249.183000", "143251.183000", "143253.183000", "143255.183000", "143257.183000", "143259.183000", "143301.184000", "143303.183000", "143305.183000", "143307.183000", "143309.182000", "143311.184000", "143313.183000", "143315.183000", "143317.183000", "143319.184000", "143321.183000", "143323.183000", "143325.182000", "143327.183000", "143329.184000", "143331.183000", "143333.184000", "143335.183000", "143337.184000", "143339.184000", "143341.183000", "143343.182000", "143345.184000", "143347.183000", "143349.183000", "143351.183000", "143353.184000", "143355.183000", "143357.184000", "143359.184000", "143401.183000", "143403.184000", "143405.183000", "143407.183000", "143409.183000", "143411.183000", "143413.184000", "143415.183000", "143417.183000", "143419.183000", "143421.184000", "143423.183000", "143425.183000", "143427.183000", "143429.183000", "143431.184000", "143433.183000", "143435.182000", "143437.199000", "143439.183000", "143441.183000", "143443.184000", "143445.184000", "143447.184000", "143449.183000", "143451.183000", "143453.182000", "143455.183000", "143457.183000", "143459.184000", "143501.183000", "143503.183000", "143505.184000", "143507.184000", "143509.183000", "143511.182000", "143513.183000", "143515.183000", "143517.183000", "143519.184000", "143521.184000", "143523.183000", "143525.184000", "143527.182000", "143529.183000", "143531.183000", "143533.184000", "143535.184000", "143537.184000", "143539.183000", "143541.183000", "143543.183000", "143545.182000", "143547.184000", "143549.184000", "143551.184000", "143553.184000", "143555.184000", "143557.183000", "143559.184000", "143601.184000", "143603.183000", "143605.184000", "143607.183000", "143609.184000", "143611.183000", "143613.183000", "143615.183000", "143617.183000", "143619.184000", "143621.183000", "143623.183000", "143625.184000", "143627.183000", "143629.184000", "143631.183000", "143633.184000", "143635.184000", "143637.183000", "143639.182000", "143641.183000", "143643.184000", "143645.183000", "143647.184000", "143649.184000", "143651.184000", "143653.183000", "143655.183000", "143657.183000", "143659.183000", "143701.183000", "143703.184000", "143705.183000", "143707.184000", "143709.184000", "143711.183000", "143713.183000", "143715.184000", "143717.183000", "143719.183000", "143721.184000", "143723.183000", "143725.183000", "143727.184000", "143729.184000", "143731.183000", "143733.184000", "143735.184000", "143737.183000", "143739.184000", "143741.184000", "143743.183000", "143745.184000", "143747.182000", "143749.183000", "143751.184000", "143753.183000", "143755.184000", "143757.184000", "143759.184000", "143801.183000", "143803.183000", "143805.183000", "143807.183000", "143809.184000", "143811.184000", "143813.184000", "143815.183000", "143816.858000"],
      "InstanceNumber": [1, 2, 3, 4, 5, 6, 7, 8, 9, 10, 11, 12, 13, 14, 15, 16, 17, 18, 19, 20, 21, 22, 23, 24, 25, 26, 27, 28, 29, 30, 31, 32, 33, 34, 35, 36, 37, 38, 39, 40, 41, 42, 43, 44, 45, 46, 47, 48, 49, 50, 51, 52, 53, 54, 55, 56, 57, 58, 59, 60, 61, 62, 63, 64, 65, 66, 67, 68, 69, 70, 71, 72, 73, 74, 75, 76, 77, 78, 79, 80, 81, 82, 83, 84, 85, 86, 87, 88, 89, 90, 91, 92, 93, 94, 95, 96, 97, 98, 99, 100, 101, 102, 103, 104, 105, 106, 107, 108, 109, 110, 111, 112, 113, 114, 115, 116, 117, 118, 119, 120, 121, 122, 123, 124, 125, 126, 127, 128, 129, 130, 131, 132, 133, 134, 135, 136, 137, 138, 139, 140, 141, 142, 143, 144, 145, 146, 147, 148, 149, 150, 151, 152, 153, 154, 155, 156, 157, 158, 159, 160, 161, 162, 163, 164, 165, 166, 167, 168, 169, 170, 171, 172, 173, 174, 175, 176, 177, 178, 179, 180, 181, 182, 183, 184, 185, 186, 187, 188, 189, 190, 191, 192, 193, 194, 195, 196, 197, 198, 199, 200, 201, 202, 203, 204, 205, 206, 207, 208, 209, 210, 211, 212, 213, 214, 215, 216, 217, 218, 219, 220, 221, 222, 223, 224, 225, 226, 227, 228, 229, 230, 231, 232],
      "LargestImagePixelValue": [3871, 3877, 3816, 3812, 4095, 3841, 3813, 3816, 3835, 3786, 3905, 3937, 3901, 3889, 3738, 3883, 3833, 3901, 3845, 3868, 3856, 3808, 3798, 3879, 3903, 3931, 3886, 3819, 3952, 3866, 3824, 4022, 3902, 3901, 3866, 3829, 3872, 3855, 3829, 4095, 3914, 3857, 3816, 3982, 3924, 3787, 3715, 3727, 3842, 3757, 3764, 3784, 3778, 3763, 3756, 3830, 3992, 3854, 4007, 3894, 3917, 3894, 3895, 3923, 3916, 3873, 3919, 3730, 4095, 3955, 3946, 3839, 3967, 3935, 3907, 3978, 3919, 3916, 3893, 3955, 3935, 3811, 3841, 3791, 3773, 3797, 3850, 3823, 3899, 3859, 3889, 3858, 3869, 3876, 3895, 3839, 3879, 3792, 3844, 3793, 3962, 3816, 3835, 3816, 3868, 3856, 3830, 3795, 3862, 3850, 3880, 3944, 3901, 3872, 3931, 3879, 3902, 3910, 3900, 3844, 3886, 3870, 3844, 3822, 3943, 3900, 3894, 3889, 3915, 3897, 3853, 3920, 3881, 3908, 3910, 3955, 3926, 3932, 3927, 3940, 3948, 3913, 3992, 3931, 3885, 3952, 3931, 3931, 3893, 3862, 3863, 3969, 3954, 3979, 3970, 3941, 3895, 3973, 3974, 3940, 3919, 3989, 4005, 3917, 4095, 4041, 3990, 4065, 3884, 3912, 3945, 3903, 3912, 3912, 3890, 3931, 3919, 3859, 3973, 3925, 3958, 3986, 3924, 3961, 4040, 3923, 3851, 3752, 3844, 3878, 3821, 3734, 3810, 3849, 3834, 3842, 3833, 3838, 3819, 3873, 3794, 4025, 3916, 3878, 3910, 3894, 3871, 4008, 4003, 3984, 3937, 3926, 3927, 3946, 3924, 3895, 3919, 3790, 3695, 4021, 3979, 3810, 3848, 3958, 4046, 3982, 3990, 3938, 3963, 3932, 3885, 3933],
      "WindowCenter": [766.0, 765.0, 765.0, 766.0, 768.0, 767.0, 766.0, 766.0, 767.0, 765.0, 766.0, 765.0, 766.0, 764.0, 762.0, 767.0, 766.0, 768.0, 769.0, 768.0, 769.0, 768.0, 768.0, 767.0, 768.0, 769.0, 769.0, 768.0, 768.0, 767.0, 767.0, 768.0, 767.0, 768.0, 768.0, 766.0, 767.0, 767.0, 768.0, 769.0, 768.0, 767.0, 769.0, 768.0, 766.0, 765.0, 765.0, 765.0, 766.0, 767.0, 768.0, 768.0, 767.0, 766.0, 766.0, 767.0, 768.0, 767.0, 768.0, 767.0, 767.0, 766.0, 765.0, 765.0, 765.0, 758.0, 762.0, 760.0, 764.0, 764.0, 767.0, 765.0, 765.0, 766.0, 767.0, 768.0, 768.0, 767.0, 767.0, 768.0, 768.0, 769.0, 769.0, 768.0, 767.0, 767.0, 767.0, 767.0, 767.0, 767.0, 768.0, 767.0, 766.0, 766.0, 765.0, 764.0, 764.0, 766.0, 768.0, 767.0, 767.0, 765.0, 764.0, 763.0, 764.0, 765.0, 767.0, 766.0, 766.0, 766.0, 766.0, 766.0, 766.0, 766.0, 767.0, 766.0, 765.0, 764.0, 763.0, 762.0, 762.0, 763.0, 764.0, 764.0, 765.0, 765.0, 765.0, 766.0, 767.0, 766.0, 766.0, 765.0, 765.0, 765.0, 765.0, 766.0, 766.0, 767.0, 767.0, 768.0, 767.0, 766.0, 766.0, 766.0, 766.0, 768.0, 768.0, 769.0, 767.0, 767.0, 767.0, 768.0, 766.0, 766.0, 767.0, 766.0, 766.0, 765.0, 765.0, 766.0, 766.0, 758.0, 766.0, 765.0, 767.0, 768.0, 766.0, 767.0, 766.0, 766.0, 768.0, 768.0, 769.0, 768.0, 767.0, 768.0, 768.0, 769.0, 769.0, 768.0, 767.0, 767.0, 767.0, 768.0, 767.0, 767.0, 768.0, 766.0, 766.0, 766.0, 765.0, 764.0, 764.0, 766.0, 767.0, 766.0, 765.0, 765.0, 765.0, 766.0, 766.0, 768.0, 768.0, 767.0, 767.0, 766.0, 766.0, 766.0, 767.0, 767.0, 768.0, 767.0, 765.0, 763.0, 762.0, 761.0, 762.0, 762.0, 760.0, 766.0, 764.0, 763.0, 765.0, 766.0, 766.0, 767.0, 769.0, 768.0, 767.0, 766.0, 765.0, 765.0],
      "WindowWidth": [1680.0, 1676.0, 1676.0, 1677.0, 1683.0, 1679.0, 1679.0, 1679.0, 1679.0, 1675.0, 1679.0, 1676.0, 1679.0, 1672.0, 1667.0, 1682.0, 1678.0, 1684.0, 1686.0, 1685.0, 1686.0, 1683.0, 1683.0, 1682.0, 1683.0, 1686.0, 1687.0, 1684.0, 1684.0, 1681.0, 1680.0, 1682.0, 1680.0, 1685.0, 1683.0, 1679.0, 1681.0, 1679.0, 1683.0, 1685.0, 1683.0, 1682.0, 1685.0, 1684.0, 1676.0, 1674.0, 1674.0, 1674.0, 1676.0, 1681.0, 1684.0, 1683.0, 1680.0, 1677.0, 1676.0, 1681.0, 1683.0, 1680.0, 1684.0, 1682.0, 1680.0, 1678.0, 1675.0, 1675.0, 1674.0, 1658.0, 1666.0, 1661.0, 1672.0, 1673.0, 1680.0, 1675.0, 1676.0, 1677.0, 1680.0, 1684.0, 1682.0, 1681.0, 1682.0, 1684.0, 1683.0, 1685.0, 1685.0, 1684.0, 1682.0, 1681.0, 1681.0, 1681.0, 1682.0, 1681.0, 1684.0, 1682.0, 1679.0, 1677.0, 1674.0, 1672.0, 1673.0, 1676.0, 1682.0, 1680.0, 1680.0, 1675.0, 1673.0, 1671.0, 1673.0, 1676.0, 1679.0, 1678.0, 1676.0, 1676.0, 1677.0, 1678.0, 1677.0, 1679.0, 1681.0, 1677.0, 1675.0, 1671.0, 1669.0, 1666.0, 1667.0, 1668.0, 1672.0, 1672.0, 1675.0, 1675.0, 1675.0, 1677.0, 1679.0, 1678.0, 1677.0, 1675.0, 1675.0, 1675.0, 1675.0, 1677.0, 1677.0, 1679.0, 1681.0, 1683.0, 1680.0, 1678.0, 1677.0, 1678.0, 1679.0, 1684.0, 1683.0, 1687.0, 1681.0, 1681.0, 1679.0, 1683.0, 1679.0, 1678.0, 1679.0, 1677.0, 1676.0, 1674.0, 1675.0, 1677.0, 1678.0, 1656.0, 1677.0, 1675.0, 1680.0, 1684.0, 1679.0, 1681.0, 1678.0, 1677.0, 1683.0, 1683.0, 1685.0, 1683.0, 1681.0, 1683.0, 1684.0, 1687.0, 1685.0, 1682.0, 1681.0, 1681.0, 1680.0, 1684.0, 1680.0, 1680.0, 1681.0, 1677.0, 1677.0, 1678.0, 1675.0, 1673.0, 1672.0, 1678.0, 1681.0, 1678.0, 1674.0, 1674.0, 1674.0, 1677.0, 1676.0, 1682.0, 1682.0, 1681.0, 1680.0, 1678.0, 1676.0, 1677.0, 1679.0, 1679.0, 1682.0, 1681.0, 1676.0, 1670.0, 1665.0, 1664.0, 1666.0, 1666.0, 1659.0, 1678.0, 1673.0, 1669.0, 1674.0, 1676.0, 1677.0, 1680.0, 1685.0, 1683.0, 1678.0, 1676.0, 1673.0, 1674.0]
    },
    "slices": {}
  }
}