{
  "AcquisitionMatrixPE": 100,
  "AcquisitionNumber": 1,
  "AcquisitionTime": "14:39:9.045000",
  "BandwidthPerPixelPhaseEncode": 18.519,
  "BaseResolution": 100,
  "BodyPartExamined": "BRAIN",
  "ConsistencyInfo": "N4_VE11C_LATEST_20160120",
  "ConversionSoftware": "dcm2niix",
  "ConversionSoftwareVersion": "v1.0.20180622 GCC4.9.2",
  "DerivedVendorReportedEchoSpacing": 0.000539986,
  "DeviceSerialNumber": "166078",
  "DwellTime": 2.1e-06,
  "EchoTime": 0.034,
  "EchoTrainLength": 100,
  "EffectiveEchoSpacing": 0.000539986,
  "FlipAngle": 90,
  "ImageOrientationPatientDICOM": [0.999778, 0.00234749, 0.0209296, 1.89377e-09, 0.993769, -0.111463],
  "ImageType": [
    "ORIGINAL",
    "PRIMARY",
    "M",
    "ND",
    "MOSAIC"
],
  "InPlanePhaseEncodingDirectionDICOM": "COL",
  "InstitutionAddress": "Street_StreetNo_Bei_Jing_District_CN_ZIP",
  "InstitutionName": "BeiJing_Normal_University",
  "InstitutionalDepartmentName": "Department",
  "MRAcquisitionType": "2D",
  "MagneticFieldStrength": 3,
  "Manufacturer": "Siemens",
  "ManufacturersModelName": "Prisma",
  "Modality": "MR",
  "MultibandAccelerationFactor": 3,
  "PartialFourier": 1,
  "PatientPosition": "HFS",
  "PercentPhaseFOV": 100,
  "PhaseEncodingDirection": "j-",
  "PhaseEncodingSteps": 100,
  "PhaseResolution": 1,
  "PixelBandwidth": 2380,
  "ProcedureStepDescription": "BNU_P2018_64CH_Liu.Jia",
  "ProtocolName": "bold_100x100_s3_2x2x2_232",
  "PulseSequenceDetails": "%SiemensSeq%_ep2d_bold",
  "ReceiveCoilActiveElements": "HC1-7;NC1",
  "ReceiveCoilName": "HeadNeck_64",
  "ReconMatrixPE": 100,
  "RepetitionTime": 2,
  "SAR": 0.0656515,
  "ScanOptions": "FS",
  "ScanningSequence": "EP",
  "SequenceName": "_epfid2d1_100",
  "SequenceVariant": "SK",
  "SeriesDescription": "bold_100x100_s3_2x2x2_232",
  "SeriesNumber": 10,
  "ShimSetting": [-5461, -11505, -1294, 372, 30, -156, -195, -23],
  "SliceThickness": 2,
  "SliceTiming": [1.485, 0, 0.99, 0.0825, 1.0725, 0.165, 1.155, 0.2475, 1.2375, 0.33, 1.32, 0.4125, 1.4025, 0.5775, 1.5675, 0.66, 1.65, 0.7425, 1.7325, 0.825, 1.815, 0.9075, 1.8975, 0.495, 1.485, 0, 0.99, 0.0825, 1.0725, 0.165, 1.155, 0.2475, 1.2375, 0.33, 1.32, 0.4125, 1.4025, 0.5775, 1.5675, 0.66, 1.65, 0.7425, 1.7325, 0.825, 1.815, 0.9075, 1.8975, 0.495, 1.485, 0, 0.99, 0.0825, 1.0725, 0.165, 1.155, 0.2475, 1.2375, 0.33, 1.32, 0.4125, 1.4025, 0.5775, 1.5675, 0.66, 1.65, 0.7425, 1.7325, 0.825, 1.815, 0.9075, 1.8975, 0.495],
  "SoftwareVersions": "syngo_MR_E11",
  "SpacingBetweenSlices": 2,
  "StationName": "AWP166078",
  "TaskName": "motor",
  "TotalReadoutTime": 0.0534586,
  "TxRefAmp": 208.475,
  "dcmmeta_affine": [
    [-1.9995564222335815, 3.7875378389173875e-09, 0.042121678590774536, 99.86634063720703],
    [-0.004694988951086998, 1.9875372648239136, -0.22287577390670776, -94.02369689941406],
    [0.04185920208692551, 0.22292523086071014, 1.9870963096618652, -77.60188293457031],
    [0.0, 0.0, 0.0, 1.0]
],
  "dcmmeta_reorient_transform": [
    [0.0, -1.0, 0.0, 99.0],
    [1.0, 0.0, 0.0, 0.0],
    [0.0, 0.0, 1.0, 0.0],
    [0.0, 0.0, 0.0, 1.0]
],
  "dcmmeta_shape": [100, 100, 72, 232],
  "dcmmeta_slice_dim": 2,
  "dcmmeta_version": 0.6,
  "global": {
    "const": {
      "AcquisitionMatrix": [100, 0, 0, 100],
      "AngioFlag": "N",
      "BitsAllocated": 16,
      "BitsStored": 12,
      "BodyPartExamined": "BRAIN",
      "Columns": 900,
      "EchoNumbers": 1,
      "EchoTime": 34.0,
      "EchoTrainLength": 100,
      "FlipAngle": 90.0,
      "HighBit": 11,
      "ImageOrientationPatient": [0.99977819592129, 0.00234749436589, 0.02092960177795, 1.893769e-09, 0.99376862771334, -0.1114626151351],
      "ImagePositionPatient": [-899.68890103105, -899.63538641245, 16.894125473547],
      "ImageType": [
        "ORIGINAL",
        "PRIMARY",
        "M",
        "ND",
        "MOSAIC"
],
      "ImagedNucleus": "1H",
      "ImagingFrequency": 123.257853,
      "InPlanePhaseEncodingDirection": "COL",
      "MRAcquisitionType": "2D",
      "MagneticFieldStrength": 3.0,
      "Manufacturer": "SIEMENS",
      "ManufacturerModelName": "Prisma",
      "Modality": "MR",
      "NumberOfAverages": 1.0,
      "NumberOfPhaseEncodingSteps": 100,
      "PercentPhaseFieldOfView": 100.0,
      "PercentSampling": 100.0,
      "PerformedProcedureStepStartTime": "135037.259000",
      "PhotometricInterpretation": "MONOCHROME2",
      "PixelBandwidth": 2380.0,
      "PixelRepresentation": 0,
      "PixelSpacing": [2.0, 2.0],
      "ProtocolName": "bold_100x100_s3_2x2x2_232",
      "RepetitionTime": 2000.0,
      "Rows": 900,
      "SAR": 0.06565146806243,
      "SamplesPerPixel": 1,
      "ScanOptions": "FS",
      "ScanningSequence": "EP",
      "SequenceName": "*epfid2d1_100",
      "SequenceVariant": "SK",
      "SeriesDescription": "bold_100x100_s3_2x2x2_232",
      "SeriesNumber": 10,
      "SeriesTime": "143911.995000",
      "SliceLocation": -64.520139715568,
      "SliceThickness": 2.0,
      "SmallestImagePixelValue": 0,
      "SoftwareVersions": "syngo MR E11",
      "SpacingBetweenSlices": 1.9999999170878,
      "SpecificCharacterSet": "ISO_IR 100",
      "StudyID": "1",
      "StudyTime": "135037.182000",
      "TransmitCoilName": "Body",
      "VariableFlipAngleFlag": "N",
      "WindowCenterWidthExplanation": "Algo1",
      "dBdt": 0.0},
    "slices": {}
  },
  "time": {
    "samples": {
      "AcquisitionNumber": [1, 2, 3, 4, 5, 6, 7, 8, 9, 10, 11, 12, 13, 14, 15, 16, 17, 18, 19, 20, 21, 22, 23, 24, 25, 26, 27, 28, 29, 30, 31, 32, 33, 34, 35, 36, 37, 38, 39, 40, 41, 42, 43, 44, 45, 46, 47, 48, 49, 50, 51, 52, 53, 54, 55, 56, 57, 58, 59, 60, 61, 62, 63, 64, 65, 66, 67, 68, 69, 70, 71, 72, 73, 74, 75, 76, 77, 78, 79, 80, 81, 82, 83, 84, 85, 86, 87, 88, 89, 90, 91, 92, 93, 94, 95, 96, 97, 98, 99, 100, 101, 102, 103, 104, 105, 106, 107, 108, 109, 110, 111, 112, 113, 114, 115, 116, 117, 118, 119, 120, 121, 122, 123, 124, 125, 126, 127, 128, 129, 130, 131, 132, 133, 134, 135, 136, 137, 138, 139, 140, 141, 142, 143, 144, 145, 146, 147, 148, 149, 150, 151, 152, 153, 154, 155, 156, 157, 158, 159, 160, 161, 162, 163, 164, 165, 166, 167, 168, 169, 170, 171, 172, 173, 174, 175, 176, 177, 178, 179, 180, 181, 182, 183, 184, 185, 186, 187, 188, 189, 190, 191, 192, 193, 194, 195, 196, 197, 198, 199, 200, 201, 202, 203, 204, 205, 206, 207, 208, 209, 210, 211, 212, 213, 214, 215, 216, 217, 218, 219, 220, 221, 222, 223, 224, 225, 226, 227, 228, 229, 230, 231, 232],
      "AcquisitionTime": ["143909.045000", "143911.045000", "143913.045000", "143915.045000", "143917.045000", "143919.045000", "143921.045000", "143923.045000", "143925.045000", "143927.045000", "143929.045000", "143931.045000", "143933.045000", "143935.045000", "143937.045000", "143939.045000", "143941.045000", "143943.045000", "143945.045000", "143947.045000", "143949.045000", "143951.045000", "143953.045000", "143955.045000", "143957.045000", "143959.045000", "144001.045000", "144003.045000", "144005.045000", "144007.045000", "144009.045000", "144011.045000", "144013.045000", "144015.045000", "144017.045000", "144019.045000", "144021.045000", "144023.045000", "144025.045000", "144027.045000", "144029.045000", "144031.045000", "144033.045000", "144035.045000", "144037.045000", "144039.045000", "144041.045000", "144043.045000", "144045.045000", "144047.045000", "144049.045000", "144051.045000", "144053.045000", "144055.045000", "144057.045000", "144059.045000", "144101.045000", "144103.045000", "144105.045000", "144107.045000", "144109.045000", "144111.045000", "144113.045000", "144115.045000", "144117.045000", "144119.045000", "144121.045000", "144123.045000", "144125.045000", "144127.045000", "144129.045000", "144131.045000", "144133.045000", "144135.045000", "144137.045000", "144139.045000", "144141.045000", "144143.045000", "144145.045000", "144147.045000", "144149.045000", "144151.045000", "144153.045000", "144155.045000", "144157.045000", "144159.045000", "144201.045000", "144203.045000", "144205.045000", "144207.045000", "144209.045000", "144211.045000", "144213.045000", "144215.045000", "144217.045000", "144219.045000", "144221.045000", "144223.045000", "144225.045000", "144227.045000", "144229.045000", "144231.045000", "144233.045000", "144235.045000", "144237.045000", "144239.045000", "144241.045000", "144243.045000", "144245.045000", "144247.045000", "144249.045000", "144251.045000", "144253.045000", "144255.045000", "144257.045000", "144259.045000", "144301.045000", "144303.045000", "144305.045000", "144307.045000", "144309.045000", "144311.045000", "144313.045000", "144315.045000", "144317.045000", "144319.045000", "144321.045000", "144323.045000", "144325.045000", "144327.045000", "144329.045000", "144331.045000", "144333.045000", "144335.045000", "144337.045000", "144339.045000", "144341.045000", "144343.045000", "144345.045000", "144347.045000", "144349.045000", "144351.045000", "144353.045000", "144355.045000", "144357.045000", "144359.045000", "144401.045000", "144403.045000", "144405.045000", "144407.045000", "144409.045000", "144411.045000", "144413.045000", "144415.045000", "144417.045000", "144419.045000", "144421.045000", "144423.045000", "144425.045000", "144427.045000", "144429.045000", "144431.045000", "144433.045000", "144435.045000", "144437.045000", "144439.045000", "144441.045000", "144443.045000", "144445.045000", "144447.045000", "144449.045000", "144451.045000", "144453.045000", "144455.045000", "144457.045000", "144459.045000", "144501.045000", "144503.045000", "144505.045000", "144507.045000", "144509.045000", "144511.045000", "144513.045000", "144515.045000", "144517.045000", "144519.045000", "144521.045000", "144523.045000", "144525.045000", "144527.045000", "144529.045000", "144531.045000", "144533.045000", "144535.045000", "144537.045000", "144539.045000", "144541.045000", "144543.045000", "144545.045000", "144547.045000", "144549.045000", "144551.045000", "144553.045000", "144555.045000", "144557.045000", "144559.045000", "144601.045000", "144603.045000", "144605.045000", "144607.045000", "144609.045000", "144611.045000", "144613.045000", "144615.045000", "144617.045000", "144619.045000", "144621.045000", "144623.045000", "144625.045000", "144627.045000", "144629.045000", "144631.045000", "144633.045000", "144635.045000", "144637.045000", "144639.045000", "144641.045000", "144643.045000", "144645.045000", "144647.045000", "144649.045000", "144651.045000"],
      "ContentTime": ["143911.998000", "143913.484000", "143915.483000", "143917.485000", "143919.484000", "143921.484000", "143923.484000", "143925.485000", "143927.484000", "143929.483000", "143931.483000", "143933.483000", "143935.484000", "143937.484000", "143939.484000", "143941.484000", "143943.484000", "143944.984000", "143947.483000", "143949.483000", "143951.483000", "143953.485000", "143955.484000", "143957.484000", "143959.485000", "144001.484000", "144003.484000", "144005.483000", "144007.484000", "144009.484000", "144011.484000", "144013.485000", "144015.484000", "144017.484000", "144019.484000", "144021.484000", "144023.483000", "144025.484000", "144027.484000", "144029.485000", "144031.484000", "144033.484000", "144034.985000", "144037.484000", "144039.484000", "144041.483000", "144043.484000", "144045.485000", "144047.484000", "144049.485000", "144051.484000", "144053.484000", "144055.485000", "144057.484000", "144059.483000", "144101.483000", "144103.485000", "144105.484000", "144107.484000", "144109.484000", "144111.485000", "144113.484000", "144115.484000", "144117.483000", "144119.485000", "144121.485000", "144123.484000", "144125.484000", "144127.485000", "144129.484000", "144130.984000", "144133.483000", "144135.484000", "144137.485000", "144139.484000", "144141.484000", "144143.484000", "144145.485000", "144147.484000", "144149.483000", "144151.483000", "144153.483000", "144155.484000", "144157.484000", "144159.485000", "144201.484000", "144203.484000", "144205.484000", "144207.484000", "144209.483000", "144211.483000", "144213.484000", "144215.485000", "144217.484000", "144219.484000", "144221.484000", "144223.485000", "144225.484000", "144227.483000", "144228.983000", "144231.485000", "144233.484000", "144235.484000", "144237.484000", "144239.484000", "144241.483000", "144243.483000", "144245.483000", "144247.485000", "144249.484000", "144251.484000", "144253.484000", "144255.485000", "144257.485000", "144259.483000", "144301.483000", "144303.483000", "144305.484000", "144307.485000", "144309.484000", "144311.485000", "144313.485000", "144315.484000", "144317.483000", "144319.484000", "144321.485000", "144323.484000", "144325.484000", "144327.484000", "144329.485000", "144331.484000", "144333.485000", "144335.483000", "144337.483000", "144339.484000", "144341.484000", "144343.484000", "144345.485000", "144347.484000", "144349.484000", "144351.483000", "144353.483000", "144355.483000", "144357.485000", "144359.484000", "144401.484000", "144403.484000", "144405.484000", "144407.485000", "144409.483000", "144411.483000", "144413.483000", "144415.485000", "144417.485000", "144419.484000", "144421.484000", "144423.484000", "144425.485000", "144427.484000", "144428.984000", "144430.984000", "144433.484000", "144435.484000", "144437.485000", "144439.484000", "144441.493000", "144443.484000", "144445.484000", "144447.483000", "144449.484000", "144451.484000", "144453.484000", "144455.485000", "144457.485000", "144459.484000", "144501.484000", "144503.484000", "144505.483000", "144506.984000", "144509.484000", "144511.484000", "144513.484000", "144515.485000", "144517.484000", "144519.484000", "144521.484000", "144523.484000", "144525.485000", "144527.485000", "144529.485000", "144531.484000", "144533.484000", "144535.484000", "144537.483000", "144539.483000", "144541.485000", "144543.485000", "144545.484000", "144547.485000", "144549.484000", "144551.484000", "144553.485000", "144555.483000", "144557.484000", "144559.484000", "144601.484000", "144603.485000", "144605.485000", "144607.484000", "144609.485000", "144611.484000", "144613.483000", "144614.983000", "144617.484000", "144619.484000", "144621.484000", "144623.484000", "144625.484000", "144627.484000", "144629.484000", "144630.983000", "144633.484000", "144635.485000", "144637.485000", "144639.484000", "144641.484000", "144643.484000", "144645.484000", "144647.483000", "144649.483000", "144651.485000", "144652.959000"],
      "InstanceCreationTime": ["143911.998000", "143913.484000", "143915.483000", "143917.485000", "143919.484000", "143921.484000", "143923.484000", "143925.485000", "143927.484000", "143929.483000", "143931.483000", "143933.483000", "143935.484000", "143937.484000", "143939.484000", "143941.484000", "143943.484000", "143944.984000", "143947.483000", "143949.483000", "143951.483000", "143953.485000", "143955.484000", "143957.484000", "143959.485000", "144001.484000", "144003.484000", "144005.483000", "144007.484000", "144009.484000", "144011.484000", "144013.485000", "144015.484000", "144017.484000", "144019.484000", "144021.484000", "144023.483000", "144025.484000", "144027.484000", "144029.485000", "144031.484000", "144033.484000", "144034.985000", "144037.484000", "144039.484000", "144041.483000", "144043.484000", "144045.485000", "144047.484000", "144049.485000", "144051.484000", "144053.484000", "144055.485000", "144057.484000", "144059.483000", "144101.483000", "144103.485000", "144105.484000", "144107.484000", "144109.484000", "144111.485000", "144113.484000", "144115.484000", "144117.483000", "144119.485000", "144121.485000", "144123.484000", "144125.484000", "144127.485000", "144129.484000", "144130.984000", "144133.483000", "144135.484000", "144137.485000", "144139.484000", "144141.484000", "144143.484000", "144145.485000", "144147.484000", "144149.483000", "144151.483000", "144153.483000", "144155.484000", "144157.484000", "144159.485000", "144201.484000", "144203.484000", "144205.484000", "144207.484000", "144209.483000", "144211.483000", "144213.484000", "144215.485000", "144217.484000", "144219.484000", "144221.484000", "144223.485000", "144225.484000", "144227.483000", "144228.983000", "144231.485000", "144233.484000", "144235.484000", "144237.484000", "144239.484000", "144241.483000", "144243.483000", "144245.483000", "144247.485000", "144249.484000", "144251.484000", "144253.484000", "144255.485000", "144257.485000", "144259.483000", "144301.483000", "144303.483000", "144305.484000", "144307.485000", "144309.484000", "144311.485000", "144313.485000", "144315.484000", "144317.483000", "144319.484000", "144321.485000", "144323.484000", "144325.484000", "144327.484000", "144329.485000", "144331.484000", "144333.485000", "144335.483000", "144337.483000", "144339.484000", "144341.484000", "144343.484000", "144345.485000", "144347.484000", "144349.484000", "144351.483000", "144353.483000", "144355.483000", "144357.485000", "144359.484000", "144401.484000", "144403.484000", "144405.484000", "144407.485000", "144409.483000", "144411.483000", "144413.483000", "144415.485000", "144417.485000", "144419.484000", "144421.484000", "144423.484000", "144425.485000", "144427.484000", "144428.984000", "144430.984000", "144433.484000", "144435.484000", "144437.485000", "144439.484000", "144441.493000", "144443.484000", "144445.484000", "144447.483000", "144449.484000", "144451.484000", "144453.484000", "144455.485000", "144457.485000", "144459.484000", "144501.484000", "144503.484000", "144505.483000", "144506.984000", "144509.484000", "144511.484000", "144513.484000", "144515.485000", "144517.484000", "144519.484000", "144521.484000", "144523.484000", "144525.485000", "144527.485000", "144529.485000", "144531.484000", "144533.484000", "144535.484000", "144537.483000", "144539.483000", "144541.485000", "144543.485000", "144545.484000", "144547.485000", "144549.484000", "144551.484000", "144553.485000", "144555.483000", "144557.484000", "144559.484000", "144601.484000", "144603.485000", "144605.485000", "144607.484000", "144609.485000", "144611.484000", "144613.483000", "144614.983000", "144617.484000", "144619.484000", "144621.484000", "144623.484000", "144625.484000", "144627.484000", "144629.484000", "144630.983000", "144633.484000", "144635.485000", "144637.485000", "144639.484000", "144641.484000", "144643.484000", "144645.484000", "144647.483000", "144649.483000", "144651.485000", "144652.959000"],
      "InstanceNumber": [1, 2, 3, 4, 5, 6, 7, 8, 9, 10, 11, 12, 13, 14, 15, 16, 17, 18, 19, 20, 21, 22, 23, 24, 25, 26, 27, 28, 29, 30, 31, 32, 33, 34, 35, 36, 37, 38, 39, 40, 41, 42, 43, 44, 45, 46, 47, 48, 49, 50, 51, 52, 53, 54, 55, 56, 57, 58, 59, 60, 61, 62, 63, 64, 65, 66, 67, 68, 69, 70, 71, 72, 73, 74, 75, 76, 77, 78, 79, 80, 81, 82, 83, 84, 85, 86, 87, 88, 89, 90, 91, 92, 93, 94, 95, 96, 97, 98, 99, 100, 101, 102, 103, 104, 105, 106, 107, 108, 109, 110, 111, 112, 113, 114, 115, 116, 117, 118, 119, 120, 121, 122, 123, 124, 125, 126, 127, 128, 129, 130, 131, 132, 133, 134, 135, 136, 137, 138, 139, 140, 141, 142, 143, 144, 145, 146, 147, 148, 149, 150, 151, 152, 153, 154, 155, 156, 157, 158, 159, 160, 161, 162, 163, 164, 165, 166, 167, 168, 169, 170, 171, 172, 173, 174, 175, 176, 177, 178, 179, 180, 181, 182, 183, 184, 185, 186, 187, 188, 189, 190, 191, 192, 193, 194, 195, 196, 197, 198, 199, 200, 201, 202, 203, 204, 205, 206, 207, 208, 209, 210, 211, 212, 213, 214, 215, 216, 217, 218, 219, 220, 221, 222, 223, 224, 225, 226, 227, 228, 229, 230, 231, 232],
      "LargestImagePixelValue": [3873, 3855, 3848, 3875, 3921, 3934, 3906, 3829, 3878, 3801, 3809, 3834, 3839, 3841, 3855, 3789, 4056, 3751, 4051, 4004, 3864, 3810, 3976, 3901, 3911, 3911, 3911, 3880, 3962, 3849, 3908, 3917, 4004, 3869, 3940, 3782, 3892, 3842, 3865, 3881, 3744, 3737, 3784, 3788, 3814, 3787, 3824, 3805, 3791, 3809, 3807, 3818, 3848, 3791, 3861, 3849, 3809, 3921, 3866, 3887, 3863, 3813, 3831, 3856, 3791, 3858, 3833, 3836, 3805, 3858, 3835, 3864, 3852, 3839, 3824, 3811, 3813, 3883, 3853, 3859, 3844, 3860, 3899, 3785, 3826, 3829, 3892, 3810, 3870, 3858, 3864, 3819, 3789, 3884, 3841, 3836, 3896, 3829, 3807, 3820, 3843, 3849, 3836, 3872, 3833, 3929, 3915, 4081, 3991, 4027, 4095, 3876, 4019, 3853, 3889, 3942, 3947, 3875, 3891, 3886, 3897, 3869, 4095, 3913, 4024, 3930, 4088, 4095, 3942, 3909, 3957, 3961, 3971, 3988, 3970, 3950, 3996, 3982, 3965, 3950, 3930, 3980, 3932, 3991, 3935, 4020, 3977, 4007, 3990, 3991, 4007, 3963, 3956, 4064, 4017, 4006, 3984, 4005, 3996, 4026, 4013, 3944, 3991, 3945, 3910, 3947, 3982, 3920, 3913, 3973, 3973, 3959, 3983, 3976, 3993, 3990, 3968, 3984, 3985, 3969, 3987, 3977, 3987, 3902, 3975, 3986, 3989, 3974, 3970, 3966, 4007, 4003, 3979, 3955, 3963, 3953, 3917, 3902, 3939, 3892, 3990, 3954, 3979, 3966, 3931, 3913, 3949, 3937, 3960, 3998, 3902, 3908, 4095, 3999, 3996, 4026, 3853, 4068, 4045, 4042, 4069, 4095, 4089, 4076, 3925, 3904, 3898, 3952, 3892, 3879, 3954, 3913],
      "WindowCenter": [768.0, 766.0, 766.0, 766.0, 767.0, 766.0, 766.0, 765.0, 765.0, 766.0, 766.0, 766.0, 766.0, 766.0, 766.0, 766.0, 767.0, 765.0, 765.0, 767.0, 766.0, 766.0, 766.0, 764.0, 767.0, 767.0, 769.0, 769.0, 769.0, 767.0, 769.0, 768.0, 769.0, 767.0, 765.0, 763.0, 761.0, 761.0, 763.0, 763.0, 762.0, 762.0, 763.0, 762.0, 762.0, 762.0, 763.0, 764.0, 765.0, 765.0, 767.0, 767.0, 767.0, 766.0, 767.0, 767.0, 766.0, 768.0, 769.0, 769.0, 768.0, 767.0, 767.0, 768.0, 767.0, 767.0, 767.0, 767.0, 766.0, 766.0, 765.0, 766.0, 766.0, 767.0, 767.0, 766.0, 765.0, 767.0, 767.0, 767.0, 766.0, 767.0, 767.0, 766.0, 766.0, 766.0, 767.0, 767.0, 767.0, 768.0, 769.0, 767.0, 766.0, 766.0, 765.0, 766.0, 766.0, 765.0, 765.0, 766.0, 765.0, 764.0, 765.0, 766.0, 766.0, 763.0, 763.0, 766.0, 764.0, 763.0, 765.0, 760.0, 766.0, 766.0, 767.0, 768.0, 769.0, 767.0, 767.0, 766.0, 765.0, 756.0, 764.0, 765.0, 766.0, 759.0, 767.0, 765.0, 765.0, 766.0, 768.0, 769.0, 768.0, 768.0, 767.0, 768.0, 768.0, 769.0, 768.0, 768.0, 767.0, 767.0, 767.0, 766.0, 766.0, 766.0, 768.0, 768.0, 767.0, 766.0, 763.0, 761.0, 760.0, 763.0, 764.0, 764.0, 764.0, 765.0, 766.0, 765.0, 766.0, 765.0, 766.0, 767.0, 767.0, 767.0, 768.0, 768.0, 768.0, 769.0, 769.0, 769.0, 769.0, 768.0, 768.0, 769.0, 768.0, 769.0, 768.0, 769.0, 767.0, 767.0, 767.0, 767.0, 768.0, 768.0, 768.0, 767.0, 768.0, 767.0, 767.0, 767.0, 768.0, 768.0, 768.0, 768.0, 769.0, 769.0, 769.0, 768.0, 769.0, 769.0, 768.0, 767.0, 766.0, 766.0, 768.0, 768.0, 768.0, 767.0, 764.0, 766.0, 766.0, 764.0, 765.0, 764.0, 765.0, 768.0, 769.0, 769.0, 768.0, 768.0, 768.0, 768.0, 767.0, 768.0, 769.0, 768.0, 766.0, 765.0, 765.0, 765.0],
      "WindowWidth": [1683.0, 1678.0, 1678.0, 1678.0, 1680.0, 1677.0, 1676.0, 1674.0, 1674.0, 1676.0, 1678.0, 1679.0, 1677.0, 1677.0, 1677.0, 1677.0, 1681.0, 1675.0, 1675.0, 1681.0, 1678.0, 1679.0, 1678.0, 1673.0, 1682.0, 1680.0, 1687.0, 1686.0, 1685.0, 1681.0, 1685.0, 1685.0, 1686.0, 1679.0, 1676.0, 1668.0, 1664.0, 1663.0, 1668.0, 1670.0, 1667.0, 1666.0, 1668.0, 1667.0, 1666.0, 1666.0, 1669.0, 1671.0, 1673.0, 1675.0, 1680.0, 1680.0, 1680.0, 1678.0, 1681.0, 1679.0, 1677.0, 1683.0, 1685.0, 1685.0, 1682.0, 1681.0, 1681.0, 1683.0, 1680.0, 1680.0, 1679.0, 1679.0, 1678.0, 1677.0, 1674.0, 1676.0, 1678.0, 1680.0, 1681.0, 1678.0, 1675.0, 1678.0, 1679.0, 1680.0, 1679.0, 1679.0, 1679.0, 1676.0, 1678.0, 1678.0, 1681.0, 1679.0, 1679.0, 1682.0, 1685.0, 1682.0, 1676.0, 1676.0, 1675.0, 1676.0, 1677.0, 1676.0, 1676.0, 1676.0, 1675.0, 1673.0, 1674.0, 1676.0, 1677.0, 1670.0, 1671.0, 1679.0, 1673.0, 1671.0, 1675.0, 1661.0, 1680.0, 1677.0, 1681.0, 1683.0, 1685.0, 1681.0, 1680.0, 1677.0, 1676.0, 1652.0, 1674.0, 1675.0, 1679.0, 1659.0, 1683.0, 1676.0, 1677.0, 1678.0, 1684.0, 1685.0, 1684.0, 1682.0, 1681.0, 1684.0, 1684.0, 1686.0, 1684.0, 1683.0, 1681.0, 1680.0, 1679.0, 1678.0, 1677.0, 1678.0, 1682.0, 1683.0, 1680.0, 1676.0, 1668.0, 1662.0, 1662.0, 1670.0, 1672.0, 1672.0, 1672.0, 1675.0, 1676.0, 1676.0, 1678.0, 1676.0, 1679.0, 1681.0, 1681.0, 1682.0, 1683.0, 1682.0, 1683.0, 1686.0, 1687.0, 1687.0, 1685.0, 1684.0, 1684.0, 1685.0, 1683.0, 1686.0, 1684.0, 1685.0, 1681.0, 1682.0, 1681.0, 1680.0, 1682.0, 1683.0, 1683.0, 1681.0, 1682.0, 1679.0, 1680.0, 1682.0, 1682.0, 1683.0, 1684.0, 1684.0, 1685.0, 1684.0, 1686.0, 1684.0, 1685.0, 1685.0, 1684.0, 1680.0, 1679.0, 1677.0, 1681.0, 1683.0, 1683.0, 1678.0, 1671.0, 1678.0, 1677.0, 1673.0, 1675.0, 1672.0, 1675.0, 1683.0, 1684.0, 1685.0, 1684.0, 1682.0, 1682.0, 1684.0, 1679.0, 1682.0, 1684.0, 1682.0, 1676.0, 1674.0, 1674.0, 1675.0]
    },
    "slices": {}
  }
}