{
  "AcquisitionMatrixPE": 100,
  "AcquisitionNumber": 1,
  "AcquisitionTime": "14:10:28.920000",
  "BandwidthPerPixelPhaseEncode": 18.519,
  "BaseResolution": 100,
  "BodyPartExamined": "BRAIN",
  "ConsistencyInfo": "N4_VE11C_LATEST_20160120",
  "ConversionSoftware": "dcm2niix",
  "ConversionSoftwareVersion": "v1.0.20180622 GCC4.9.2",
  "DerivedVendorReportedEchoSpacing": 0.000539986,
  "DeviceSerialNumber": "166078",
  "DwellTime": 2.1e-06,
  "EchoTime": 0.034,
  "EchoTrainLength": 100,
  "EffectiveEchoSpacing": 0.000539986,
  "FlipAngle": 90,
  "ImageOrientationPatientDICOM": [0.999778, 0.00234749, 0.0209296, 1.89377e-09, 0.993769, -0.111463],
  "ImageType": [
    "ORIGINAL",
    "PRIMARY",
    "M",
    "ND",
    "MOSAIC"
],
  "InPlanePhaseEncodingDirectionDICOM": "COL",
  "InstitutionAddress": "Street_StreetNo_Bei_Jing_District_CN_ZIP",
  "InstitutionName": "BeiJing_Normal_University",
  "InstitutionalDepartmentName": "Department",
  "MRAcquisitionType": "2D",
  "MagneticFieldStrength": 3,
  "Manufacturer": "Siemens",
  "ManufacturersModelName": "Prisma",
  "Modality": "MR",
  "MultibandAccelerationFactor": 3,
  "PartialFourier": 1,
  "PatientPosition": "HFS",
  "PercentPhaseFOV": 100,
  "PhaseEncodingDirection": "j-",
  "PhaseEncodingSteps": 100,
  "PhaseResolution": 1,
  "PixelBandwidth": 2380,
  "ProcedureStepDescription": "BNU_P2018_64CH_Liu.Jia",
  "ProtocolName": "bold_100x100_s3_2x2x2_232",
  "PulseSequenceDetails": "%SiemensSeq%_ep2d_bold",
  "ReceiveCoilActiveElements": "HC1-7;NC1",
  "ReceiveCoilName": "HeadNeck_64",
  "ReconMatrixPE": 100,
  "RepetitionTime": 2,
  "SAR": 0.0656515,
  "ScanOptions": "FS",
  "ScanningSequence": "EP",
  "SequenceName": "_epfid2d1_100",
  "SequenceVariant": "SK",
  "SeriesDescription": "bold_100x100_s3_2x2x2_232",
  "SeriesNumber": 5,
  "ShimSetting": [-5461, -11505, -1294, 372, 30, -156, -195, -23],
  "SliceThickness": 2,
  "SliceTiming": [1.485, 0, 0.99, 0.0825, 1.0725, 0.165, 1.155, 0.2475, 1.2375, 0.33, 1.32, 0.4125, 1.4025, 0.5775, 1.5675, 0.66, 1.65, 0.7425, 1.7325, 0.825, 1.815, 0.9075, 1.8975, 0.495, 1.485, 0, 0.99, 0.0825, 1.0725, 0.165, 1.155, 0.2475, 1.2375, 0.33, 1.32, 0.4125, 1.4025, 0.5775, 1.5675, 0.66, 1.65, 0.7425, 1.7325, 0.825, 1.815, 0.9075, 1.8975, 0.495, 1.485, 0, 0.99, 0.0825, 1.0725, 0.165, 1.155, 0.2475, 1.2375, 0.33, 1.32, 0.4125, 1.4025, 0.5775, 1.5675, 0.66, 1.65, 0.7425, 1.7325, 0.825, 1.815, 0.9075, 1.8975, 0.495],
  "SoftwareVersions": "syngo_MR_E11",
  "SpacingBetweenSlices": 2,
  "StationName": "AWP166078",
  "TaskName": "motor",
  "TotalReadoutTime": 0.0534586,
  "TxRefAmp": 208.475,
  "dcmmeta_affine": [
    [-1.9995564222335815, 3.7875378389173875e-09, 0.042121678590774536, 99.86634063720703],
    [-0.004694988951086998, 1.9875372648239136, -0.22287577390670776, -94.02369689941406],
    [0.04185920208692551, 0.22292523086071014, 1.9870963096618652, -77.60188293457031],
    [0.0, 0.0, 0.0, 1.0]
],
  "dcmmeta_reorient_transform": [
    [0.0, -1.0, 0.0, 99.0],
    [1.0, 0.0, 0.0, 0.0],
    [0.0, 0.0, 1.0, 0.0],
    [0.0, 0.0, 0.0, 1.0]
],
  "dcmmeta_shape": [100, 100, 72, 232],
  "dcmmeta_slice_dim": 2,
  "dcmmeta_version": 0.6,
  "global": {
    "const": {
      "AcquisitionMatrix": [100, 0, 0, 100],
      "AngioFlag": "N",
      "BitsAllocated": 16,
      "BitsStored": 12,
      "BodyPartExamined": "BRAIN",
      "Columns": 900,
      "EchoNumbers": 1,
      "EchoTime": 34.0,
      "EchoTrainLength": 100,
      "FlipAngle": 90.0,
      "HighBit": 11,
      "ImageOrientationPatient": [0.99977819592129, 0.00234749436589, 0.02092960177795, 1.893769e-09, 0.99376862771334, -0.1114626151351],
      "ImagePositionPatient": [-899.68890103105, -899.63538641245, 16.894125473547],
      "ImageType": [
        "ORIGINAL",
        "PRIMARY",
        "M",
        "ND",
        "MOSAIC"
],
      "ImagedNucleus": "1H",
      "ImagingFrequency": 123.257847,
      "InPlanePhaseEncodingDirection": "COL",
      "MRAcquisitionType": "2D",
      "MagneticFieldStrength": 3.0,
      "Manufacturer": "SIEMENS",
      "ManufacturerModelName": "Prisma",
      "Modality": "MR",
      "NumberOfAverages": 1.0,
      "NumberOfPhaseEncodingSteps": 100,
      "PercentPhaseFieldOfView": 100.0,
      "PercentSampling": 100.0,
      "PerformedProcedureStepStartTime": "135037.259000",
      "PhotometricInterpretation": "MONOCHROME2",
      "PixelBandwidth": 2380.0,
      "PixelRepresentation": 0,
      "PixelSpacing": [2.0, 2.0],
      "ProtocolName": "bold_100x100_s3_2x2x2_232",
      "RepetitionTime": 2000.0,
      "Rows": 900,
      "SAR": 0.06565146806243,
      "SamplesPerPixel": 1,
      "ScanOptions": "FS",
      "ScanningSequence": "EP",
      "SequenceName": "*epfid2d1_100",
      "SequenceVariant": "SK",
      "SeriesDescription": "bold_100x100_s3_2x2x2_232",
      "SeriesNumber": 5,
      "SeriesTime": "141030.987000",
      "SliceLocation": -64.520139715568,
      "SliceThickness": 2.0,
      "SmallestImagePixelValue": 0,
      "SoftwareVersions": "syngo MR E11",
      "SpacingBetweenSlices": 1.9999999170878,
      "SpecificCharacterSet": "ISO_IR 100",
      "StudyID": "1",
      "StudyTime": "135037.182000",
      "TransmitCoilName": "Body",
      "VariableFlipAngleFlag": "N",
      "WindowCenterWidthExplanation": "Algo1",
      "dBdt": 0.0},
    "slices": {}
  },
  "time": {
    "samples": {
      "AcquisitionNumber": [1, 2, 3, 4, 5, 6, 7, 8, 9, 10, 11, 12, 13, 14, 15, 16, 17, 18, 19, 20, 21, 22, 23, 24, 25, 26, 27, 28, 29, 30, 31, 32, 33, 34, 35, 36, 37, 38, 39, 40, 41, 42, 43, 44, 45, 46, 47, 48, 49, 50, 51, 52, 53, 54, 55, 56, 57, 58, 59, 60, 61, 62, 63, 64, 65, 66, 67, 68, 69, 70, 71, 72, 73, 74, 75, 76, 77, 78, 79, 80, 81, 82, 83, 84, 85, 86, 87, 88, 89, 90, 91, 92, 93, 94, 95, 96, 97, 98, 99, 100, 101, 102, 103, 104, 105, 106, 107, 108, 109, 110, 111, 112, 113, 114, 115, 116, 117, 118, 119, 120, 121, 122, 123, 124, 125, 126, 127, 128, 129, 130, 131, 132, 133, 134, 135, 136, 137, 138, 139, 140, 141, 142, 143, 144, 145, 146, 147, 148, 149, 150, 151, 152, 153, 154, 155, 156, 157, 158, 159, 160, 161, 162, 163, 164, 165, 166, 167, 168, 169, 170, 171, 172, 173, 174, 175, 176, 177, 178, 179, 180, 181, 182, 183, 184, 185, 186, 187, 188, 189, 190, 191, 192, 193, 194, 195, 196, 197, 198, 199, 200, 201, 202, 203, 204, 205, 206, 207, 208, 209, 210, 211, 212, 213, 214, 215, 216, 217, 218, 219, 220, 221, 222, 223, 224, 225, 226, 227, 228, 229, 230, 231, 232],
      "AcquisitionTime": ["141028.920000", "141030.920000", "141032.920000", "141034.920000", "141036.920000", "141038.920000", "141040.920000", "141042.920000", "141044.920000", "141046.920000", "141048.920000", "141050.920000", "141052.920000", "141054.920000", "141056.920000", "141058.920000", "141100.920000", "141102.920000", "141104.920000", "141106.920000", "141108.920000", "141110.920000", "141112.920000", "141114.920000", "141116.920000", "141118.920000", "141120.920000", "141122.920000", "141124.920000", "141126.920000", "141128.920000", "141130.920000", "141132.920000", "141134.920000", "141136.920000", "141138.920000", "141140.920000", "141142.920000", "141144.920000", "141146.920000", "141148.920000", "141150.920000", "141152.920000", "141154.920000", "141156.920000", "141158.920000", "141200.920000", "141202.920000", "141204.920000", "141206.920000", "141208.920000", "141210.920000", "141212.920000", "141214.920000", "141216.920000", "141218.920000", "141220.920000", "141222.920000", "141224.920000", "141226.920000", "141228.920000", "141230.920000", "141232.920000", "141234.920000", "141236.920000", "141238.920000", "141240.920000", "141242.920000", "141244.920000", "141246.920000", "141248.920000", "141250.920000", "141252.920000", "141254.920000", "141256.920000", "141258.920000", "141300.920000", "141302.920000", "141304.920000", "141306.920000", "141308.920000", "141310.920000", "141312.920000", "141314.920000", "141316.920000", "141318.920000", "141320.920000", "141322.920000", "141324.920000", "141326.920000", "141328.920000", "141330.920000", "141332.920000", "141334.920000", "141336.920000", "141338.920000", "141340.920000", "141342.920000", "141344.920000", "141346.920000", "141348.920000", "141350.920000", "141352.920000", "141354.920000", "141356.920000", "141358.920000", "141400.920000", "141402.920000", "141404.920000", "141406.920000", "141408.920000", "141410.920000", "141412.920000", "141414.920000", "141416.920000", "141418.920000", "141420.920000", "141422.920000", "141424.920000", "141426.920000", "141428.920000", "141430.920000", "141432.920000", "141434.920000", "141436.920000", "141438.920000", "141440.920000", "141442.920000", "141444.920000", "141446.920000", "141448.920000", "141450.920000", "141452.920000", "141454.920000", "141456.920000", "141458.920000", "141500.920000", "141502.920000", "141504.920000", "141506.920000", "141508.920000", "141510.920000", "141512.920000", "141514.920000", "141516.920000", "141518.920000", "141520.920000", "141522.920000", "141524.920000", "141526.920000", "141528.920000", "141530.920000", "141532.920000", "141534.920000", "141536.920000", "141538.920000", "141540.920000", "141542.920000", "141544.920000", "141546.920000", "141548.920000", "141550.920000", "141552.920000", "141554.920000", "141556.920000", "141558.920000", "141600.920000", "141602.920000", "141604.920000", "141606.920000", "141608.920000", "141610.920000", "141612.920000", "141614.920000", "141616.920000", "141618.920000", "141620.920000", "141622.920000", "141624.920000", "141626.920000", "141628.920000", "141630.920000", "141632.920000", "141634.920000", "141636.920000", "141638.920000", "141640.920000", "141642.920000", "141644.920000", "141646.920000", "141648.920000", "141650.920000", "141652.920000", "141654.920000", "141656.920000", "141658.920000", "141700.920000", "141702.920000", "141704.920000", "141706.920000", "141708.920000", "141710.920000", "141712.920000", "141714.920000", "141716.920000", "141718.920000", "141720.920000", "141722.920000", "141724.920000", "141726.920000", "141728.920000", "141730.920000", "141732.920000", "141734.920000", "141736.920000", "141738.920000", "141740.920000", "141742.920000", "141744.920000", "141746.920000", "141748.920000", "141750.920000", "141752.920000", "141754.920000", "141756.920000", "141758.920000", "141800.920000", "141802.920000", "141804.920000", "141806.920000", "141808.920000", "141810.920000"],
      "ContentTime": ["141030.991000", "141032.487000", "141034.486000", "141036.486000", "141038.487000", "141040.486000", "141042.486000", "141044.487000", "141046.486000", "141048.486000", "141050.486000", "141052.486000", "141054.486000", "141056.486000", "141058.486000", "141100.487000", "141102.486000", "141104.487000", "141106.486000", "141108.487000", "141110.486000", "141112.487000", "141114.486000", "141116.486000", "141118.487000", "141120.486000", "141122.486000", "141124.487000", "141126.486000", "141128.486000", "141130.486000", "141132.486000", "141134.487000", "141136.487000", "141138.487000", "141140.486000", "141142.486000", "141144.486000", "141146.486000", "141148.486000", "141150.487000", "141152.486000", "141154.487000", "141156.486000", "141158.486000", "141200.486000", "141202.986000", "141204.986000", "141206.486000", "141208.486000", "141210.487000", "141212.487000", "141214.486000", "141216.487000", "141218.487000", "141220.486000", "141222.487000", "141224.486000", "141226.486000", "141228.487000", "141230.486000", "141232.487000", "141234.486000", "141236.487000", "141238.487000", "141240.486000", "141242.486000", "141244.486000", "141246.487000", "141248.486000", "141250.486000", "141252.487000", "141254.486000", "141256.486000", "141258.486000", "141300.986000", "141302.486000", "141304.487000", "141306.487000", "141308.486000", "141310.486000", "141312.487000", "141314.486000", "141316.486000", "141318.486000", "141320.487000", "141322.486000", "141324.486000", "141326.486000", "141328.486000", "141330.487000", "141332.486000", "141334.486000", "141336.486000", "141338.487000", "141340.487000", "141342.486000", "141344.486000", "141346.486000", "141348.486000", "141350.486000", "141352.486000", "141354.486000", "141356.487000", "141358.486000", "141400.486000", "141402.486000", "141404.486000", "141406.486000", "141408.486000", "141410.486000", "141412.486000", "141414.487000", "141416.486000", "141418.486000", "141420.486000", "141422.486000", "141424.486000", "141426.486000", "141428.486000", "141430.487000", "141432.486000", "141434.486000", "141436.487000", "141438.487000", "141440.486000", "141442.486000", "141444.487000", "141446.486000", "141448.487000", "141450.486000", "141452.486000", "141454.486000", "141456.486000", "141458.486000", "141500.486000", "141502.486000", "141504.486000", "141506.488000", "141508.486000", "141510.487000", "141512.487000", "141514.487000", "141516.487000", "141518.486000", "141520.487000", "141522.486000", "141524.488000", "141526.487000", "141528.486000", "141530.486000", "141532.486000", "141534.487000", "141536.987000", "141538.500000", "141540.486000", "141542.486000", "141544.486000", "141546.486000", "141548.486000", "141550.486000", "141552.486000", "141554.486000", "141556.487000", "141558.487000", "141600.486000", "141602.486000", "141604.487000", "141606.486000", "141608.486000", "141610.486000", "141612.486000", "141614.486000", "141616.987000", "141618.486000", "141620.486000", "141622.486000", "141624.487000", "141626.487000", "141628.486000", "141630.486000", "141632.486000", "141634.987000", "141636.486000", "141638.486000", "141640.486000", "141642.987000", "141644.486000", "141646.486000", "141648.486000", "141650.487000", "141652.487000", "141654.487000", "141656.487000", "141658.486000", "141700.486000", "141702.486000", "141704.486000", "141706.486000", "141708.488000", "141710.486000", "141712.486000", "141714.486000", "141716.486000", "141718.486000", "141720.486000", "141722.486000", "141724.486000", "141726.988000", "141728.486000", "141730.486000", "141732.486000", "141734.486000", "141736.487000", "141738.486000", "141740.986000", "141742.486000", "141744.487000", "141746.486000", "141748.487000", "141750.486000", "141752.486000", "141754.486000", "141756.486000", "141758.487000", "141800.487000", "141802.486000", "141804.486000", "141806.487000", "141808.487000", "141810.486000", "141812.393000"],
      "InstanceCreationTime": ["141030.991000", "141032.487000", "141034.486000", "141036.486000", "141038.487000", "141040.486000", "141042.486000", "141044.487000", "141046.486000", "141048.486000", "141050.486000", "141052.486000", "141054.486000", "141056.486000", "141058.486000", "141100.487000", "141102.486000", "141104.487000", "141106.486000", "141108.487000", "141110.486000", "141112.487000", "141114.486000", "141116.486000", "141118.487000", "141120.486000", "141122.486000", "141124.487000", "141126.486000", "141128.486000", "141130.486000", "141132.486000", "141134.487000", "141136.487000", "141138.487000", "141140.486000", "141142.486000", "141144.486000", "141146.486000", "141148.486000", "141150.487000", "141152.486000", "141154.487000", "141156.486000", "141158.486000", "141200.486000", "141202.986000", "141204.986000", "141206.486000", "141208.486000", "141210.487000", "141212.487000", "141214.486000", "141216.487000", "141218.487000", "141220.486000", "141222.487000", "141224.486000", "141226.486000", "141228.487000", "141230.486000", "141232.487000", "141234.486000", "141236.487000", "141238.487000", "141240.486000", "141242.486000", "141244.486000", "141246.487000", "141248.486000", "141250.486000", "141252.487000", "141254.486000", "141256.486000", "141258.486000", "141300.986000", "141302.486000", "141304.487000", "141306.487000", "141308.486000", "141310.486000", "141312.487000", "141314.486000", "141316.486000", "141318.486000", "141320.487000", "141322.486000", "141324.486000", "141326.486000", "141328.486000", "141330.487000", "141332.486000", "141334.486000", "141336.486000", "141338.487000", "141340.487000", "141342.486000", "141344.486000", "141346.486000", "141348.486000", "141350.486000", "141352.486000", "141354.486000", "141356.487000", "141358.486000", "141400.486000", "141402.486000", "141404.486000", "141406.486000", "141408.486000", "141410.486000", "141412.486000", "141414.487000", "141416.486000", "141418.486000", "141420.486000", "141422.486000", "141424.486000", "141426.486000", "141428.486000", "141430.487000", "141432.486000", "141434.486000", "141436.487000", "141438.487000", "141440.486000", "141442.486000", "141444.487000", "141446.486000", "141448.487000", "141450.486000", "141452.486000", "141454.486000", "141456.486000", "141458.486000", "141500.486000", "141502.486000", "141504.486000", "141506.488000", "141508.486000", "141510.487000", "141512.487000", "141514.487000", "141516.487000", "141518.486000", "141520.487000", "141522.486000", "141524.488000", "141526.487000", "141528.486000", "141530.486000", "141532.486000", "141534.487000", "141536.987000", "141538.500000", "141540.486000", "141542.486000", "141544.486000", "141546.486000", "141548.486000", "141550.486000", "141552.486000", "141554.486000", "141556.487000", "141558.487000", "141600.486000", "141602.486000", "141604.487000", "141606.486000", "141608.486000", "141610.486000", "141612.486000", "141614.486000", "141616.987000", "141618.486000", "141620.486000", "141622.486000", "141624.487000", "141626.487000", "141628.486000", "141630.486000", "141632.486000", "141634.987000", "141636.486000", "141638.486000", "141640.486000", "141642.987000", "141644.486000", "141646.486000", "141648.486000", "141650.487000", "141652.487000", "141654.487000", "141656.487000", "141658.486000", "141700.486000", "141702.486000", "141704.486000", "141706.486000", "141708.488000", "141710.486000", "141712.486000", "141714.486000", "141716.486000", "141718.486000", "141720.486000", "141722.486000", "141724.486000", "141726.988000", "141728.486000", "141730.486000", "141732.486000", "141734.486000", "141736.487000", "141738.486000", "141740.986000", "141742.486000", "141744.487000", "141746.486000", "141748.487000", "141750.486000", "141752.486000", "141754.486000", "141756.486000", "141758.487000", "141800.487000", "141802.486000", "141804.486000", "141806.487000", "141808.487000", "141810.486000", "141812.393000"],
      "InstanceNumber": [1, 2, 3, 4, 5, 6, 7, 8, 9, 10, 11, 12, 13, 14, 15, 16, 17, 18, 19, 20, 21, 22, 23, 24, 25, 26, 27, 28, 29, 30, 31, 32, 33, 34, 35, 36, 37, 38, 39, 40, 41, 42, 43, 44, 45, 46, 47, 48, 49, 50, 51, 52, 53, 54, 55, 56, 57, 58, 59, 60, 61, 62, 63, 64, 65, 66, 67, 68, 69, 70, 71, 72, 73, 74, 75, 76, 77, 78, 79, 80, 81, 82, 83, 84, 85, 86, 87, 88, 89, 90, 91, 92, 93, 94, 95, 96, 97, 98, 99, 100, 101, 102, 103, 104, 105, 106, 107, 108, 109, 110, 111, 112, 113, 114, 115, 116, 117, 118, 119, 120, 121, 122, 123, 124, 125, 126, 127, 128, 129, 130, 131, 132, 133, 134, 135, 136, 137, 138, 139, 140, 141, 142, 143, 144, 145, 146, 147, 148, 149, 150, 151, 152, 153, 154, 155, 156, 157, 158, 159, 160, 161, 162, 163, 164, 165, 166, 167, 168, 169, 170, 171, 172, 173, 174, 175, 176, 177, 178, 179, 180, 181, 182, 183, 184, 185, 186, 187, 188, 189, 190, 191, 192, 193, 194, 195, 196, 197, 198, 199, 200, 201, 202, 203, 204, 205, 206, 207, 208, 209, 210, 211, 212, 213, 214, 215, 216, 217, 218, 219, 220, 221, 222, 223, 224, 225, 226, 227, 228, 229, 230, 231, 232],
      "LargestImagePixelValue": [3862, 3810, 3921, 3769, 3830, 3752, 3783, 3782, 3794, 3814, 3796, 3803, 3770, 3792, 3768, 3789, 3766, 3763, 3747, 4095, 3747, 3745, 3777, 3784, 3717, 3738, 3739, 3756, 3753, 3739, 3741, 3760, 3748, 3763, 3751, 3742, 3753, 3891, 3759, 3753, 3749, 3741, 3757, 3718, 3705, 3712, 3737, 3716, 3724, 3782, 3768, 3789, 3734, 4079, 3860, 3880, 3981, 4034, 3734, 3679, 3752, 3729, 3736, 3736, 3734, 3754, 3732, 3744, 3732, 3736, 3724, 3693, 3740, 3689, 3820, 3723, 3809, 3814, 3797, 4095, 3871, 3803, 3783, 3788, 3773, 3806, 3779, 3797, 3751, 3701, 3742, 3771, 3714, 3767, 3820, 3734, 3882, 3791, 3929, 3791, 3782, 3756, 3813, 3809, 3796, 3747, 3819, 3733, 3789, 3780, 3792, 3747, 3717, 3794, 3752, 3806, 3744, 3812, 3810, 3807, 3772, 3776, 3775, 3783, 3790, 3792, 3768, 3774, 3758, 3773, 3800, 3777, 3743, 3750, 3763, 3752, 3768, 3748, 3771, 3706, 3673, 3688, 3884, 3783, 3766, 3743, 3739, 3724, 3721, 3701, 3777, 3719, 3714, 3693, 3744, 3733, 3753, 3738, 3750, 3733, 3789, 3732, 3758, 3695, 3724, 3747, 3741, 3750, 3744, 3934, 3757, 3740, 3770, 3750, 3779, 3786, 3794, 3760, 3804, 3825, 3721, 3663, 3670, 3749, 3773, 3725, 3736, 3745, 3763, 3742, 3729, 3741, 3746, 3730, 3788, 3727, 3756, 3976, 3763, 3761, 4095, 3772, 3743, 3771, 3757, 3809, 3752, 3817, 3787, 4010, 3783, 4095, 3753, 3743, 3745, 3747, 3736, 3758, 3756, 3737, 3759, 3741, 3807, 3767, 3829, 3755, 3736, 3718, 3732, 3707, 3712, 3707],
      "WindowCenter": [765.0, 763.0, 764.0, 764.0, 765.0, 764.0, 764.0, 764.0, 763.0, 763.0, 764.0, 764.0, 764.0, 763.0, 763.0, 764.0, 765.0, 766.0, 766.0, 767.0, 765.0, 764.0, 764.0, 764.0, 764.0, 765.0, 765.0, 765.0, 764.0, 764.0, 763.0, 764.0, 764.0, 765.0, 765.0, 765.0, 765.0, 766.0, 765.0, 765.0, 765.0, 766.0, 767.0, 766.0, 765.0, 764.0, 764.0, 764.0, 765.0, 763.0, 764.0, 763.0, 764.0, 764.0, 767.0, 765.0, 763.0, 767.0, 766.0, 766.0, 766.0, 765.0, 765.0, 764.0, 764.0, 765.0, 764.0, 764.0, 764.0, 765.0, 765.0, 765.0, 765.0, 766.0, 768.0, 767.0, 766.0, 766.0, 766.0, 768.0, 765.0, 766.0, 767.0, 766.0, 766.0, 766.0, 766.0, 766.0, 765.0, 765.0, 764.0, 765.0, 765.0, 762.0, 766.0, 764.0, 765.0, 765.0, 767.0, 767.0, 765.0, 762.0, 762.0, 761.0, 762.0, 764.0, 765.0, 763.0, 763.0, 763.0, 764.0, 764.0, 764.0, 765.0, 765.0, 764.0, 763.0, 763.0, 762.0, 761.0, 762.0, 762.0, 763.0, 762.0, 762.0, 762.0, 763.0, 764.0, 765.0, 766.0, 766.0, 765.0, 763.0, 764.0, 765.0, 765.0, 765.0, 764.0, 764.0, 763.0, 761.0, 760.0, 763.0, 761.0, 764.0, 764.0, 764.0, 764.0, 763.0, 763.0, 761.0, 764.0, 767.0, 767.0, 766.0, 764.0, 763.0, 763.0, 763.0, 764.0, 763.0, 764.0, 765.0, 764.0, 765.0, 764.0, 764.0, 764.0, 763.0, 766.0, 766.0, 765.0, 764.0, 763.0, 762.0, 762.0, 763.0, 759.0, 763.0, 763.0, 763.0, 762.0, 762.0, 764.0, 762.0, 764.0, 765.0, 766.0, 766.0, 766.0, 766.0, 766.0, 765.0, 766.0, 766.0, 765.0, 766.0, 767.0, 766.0, 766.0, 768.0, 767.0, 766.0, 766.0, 764.0, 763.0, 763.0, 763.0, 763.0, 767.0, 766.0, 767.0, 765.0, 764.0, 765.0, 765.0, 765.0, 766.0, 766.0, 764.0, 762.0, 759.0, 759.0, 759.0, 760.0, 762.0, 764.0, 765.0, 764.0, 763.0, 763.0, 762.0],
      "WindowWidth": [1675.0, 1670.0, 1671.0, 1671.0, 1673.0, 1672.0, 1672.0, 1671.0, 1670.0, 1671.0, 1672.0, 1671.0, 1672.0, 1670.0, 1670.0, 1672.0, 1675.0, 1677.0, 1677.0, 1682.0, 1674.0, 1671.0, 1673.0, 1673.0, 1673.0, 1675.0, 1675.0, 1674.0, 1672.0, 1671.0, 1671.0, 1671.0, 1671.0, 1674.0, 1676.0, 1676.0, 1676.0, 1677.0, 1675.0, 1676.0, 1677.0, 1679.0, 1681.0, 1678.0, 1675.0, 1671.0, 1673.0, 1673.0, 1674.0, 1670.0, 1674.0, 1671.0, 1674.0, 1673.0, 1682.0, 1676.0, 1672.0, 1679.0, 1679.0, 1677.0, 1677.0, 1674.0, 1674.0, 1673.0, 1671.0, 1674.0, 1672.0, 1673.0, 1672.0, 1674.0, 1675.0, 1674.0, 1675.0, 1677.0, 1683.0, 1680.0, 1677.0, 1677.0, 1677.0, 1683.0, 1676.0, 1676.0, 1679.0, 1678.0, 1677.0, 1677.0, 1677.0, 1677.0, 1675.0, 1674.0, 1671.0, 1676.0, 1674.0, 1668.0, 1677.0, 1673.0, 1675.0, 1675.0, 1681.0, 1681.0, 1675.0, 1667.0, 1665.0, 1663.0, 1665.0, 1672.0, 1674.0, 1670.0, 1668.0, 1669.0, 1671.0, 1673.0, 1673.0, 1674.0, 1675.0, 1672.0, 1669.0, 1667.0, 1666.0, 1663.0, 1666.0, 1667.0, 1669.0, 1667.0, 1666.0, 1665.0, 1669.0, 1672.0, 1676.0, 1677.0, 1676.0, 1673.0, 1669.0, 1671.0, 1674.0, 1674.0, 1673.0, 1671.0, 1670.0, 1668.0, 1664.0, 1661.0, 1668.0, 1664.0, 1671.0, 1671.0, 1671.0, 1671.0, 1670.0, 1669.0, 1663.0, 1672.0, 1679.0, 1680.0, 1677.0, 1671.0, 1669.0, 1669.0, 1670.0, 1671.0, 1668.0, 1670.0, 1673.0, 1673.0, 1673.0, 1672.0, 1671.0, 1671.0, 1669.0, 1679.0, 1676.0, 1675.0, 1672.0, 1668.0, 1667.0, 1666.0, 1668.0, 1658.0, 1670.0, 1669.0, 1669.0, 1666.0, 1666.0, 1671.0, 1668.0, 1672.0, 1675.0, 1678.0, 1679.0, 1678.0, 1676.0, 1678.0, 1676.0, 1677.0, 1676.0, 1675.0, 1676.0, 1679.0, 1676.0, 1677.0, 1683.0, 1679.0, 1678.0, 1677.0, 1670.0, 1669.0, 1669.0, 1670.0, 1669.0, 1679.0, 1678.0, 1682.0, 1674.0, 1673.0, 1673.0, 1673.0, 1675.0, 1676.0, 1676.0, 1671.0, 1666.0, 1659.0, 1657.0, 1658.0, 1661.0, 1665.0, 1670.0, 1674.0, 1672.0, 1669.0, 1667.0, 1666.0]
    },
    "slices": {}
  }
}