{
  "AcquisitionMatrixPE": 100,
  "AcquisitionNumber": 1,
  "AcquisitionTime": "13:53:47.067500",
  "BandwidthPerPixelPhaseEncode": 18.519,
  "BaseResolution": 100,
  "BodyPartExamined": "BRAIN",
  "ConsistencyInfo": "N4_VE11C_LATEST_20160120",
  "ConversionSoftware": "dcm2niix",
  "ConversionSoftwareVersion": "v1.0.20180622 GCC4.9.2",
  "DerivedVendorReportedEchoSpacing": 0.000539986,
  "DeviceSerialNumber": "166078",
  "DwellTime": 2.1e-06,
  "EchoTime": 0.034,
  "EchoTrainLength": 100,
  "EffectiveEchoSpacing": 0.000539986,
  "FlipAngle": 90,
  "ImageOrientationPatientDICOM": [0.999778, 0.00234749, 0.0209296, 1.89377e-09, 0.993769, -0.111463],
  "ImageType": [
    "ORIGINAL",
    "PRIMARY",
    "M",
    "ND",
    "MOSAIC"
],
  "InPlanePhaseEncodingDirectionDICOM": "COL",
  "InstitutionAddress": "Street_StreetNo_Bei_Jing_District_CN_ZIP",
  "InstitutionName": "BeiJing_Normal_University",
  "InstitutionalDepartmentName": "Department",
  "MRAcquisitionType": "2D",
  "MagneticFieldStrength": 3,
  "Manufacturer": "Siemens",
  "ManufacturersModelName": "Prisma",
  "Modality": "MR",
  "MultibandAccelerationFactor": 3,
  "PartialFourier": 1,
  "PatientPosition": "HFS",
  "PercentPhaseFOV": 100,
  "PhaseEncodingDirection": "j-",
  "PhaseEncodingSteps": 100,
  "PhaseResolution": 1,
  "PixelBandwidth": 2380,
  "ProcedureStepDescription": "BNU_P2018_64CH_Liu.Jia",
  "ProtocolName": "bold_100x100_s3_2x2x2_232",
  "PulseSequenceDetails": "%SiemensSeq%_ep2d_bold",
  "ReceiveCoilActiveElements": "HC1-7;NC1",
  "ReceiveCoilName": "HeadNeck_64",
  "ReconMatrixPE": 100,
  "RepetitionTime": 2,
  "SAR": 0.0656515,
  "ScanOptions": "FS",
  "ScanningSequence": "EP",
  "SequenceName": "_epfid2d1_100",
  "SequenceVariant": "SK",
  "SeriesDescription": "bold_100x100_s3_2x2x2_232",
  "SeriesNumber": 3,
  "ShimSetting": [-5461, -11505, -1294, 372, 30, -156, -195, -23],
  "SliceThickness": 2,
  "SliceTiming": [1.485, 0, 0.99, 0.0825, 1.0725, 0.165, 1.155, 0.2475, 1.2375, 0.33, 1.32, 0.4125, 1.4025, 0.5775, 1.5675, 0.66, 1.65, 0.7425, 1.7325, 0.825, 1.815, 0.9075, 1.8975, 0.495, 1.485, 0, 0.99, 0.0825, 1.0725, 0.165, 1.155, 0.2475, 1.2375, 0.33, 1.32, 0.4125, 1.4025, 0.5775, 1.5675, 0.66, 1.65, 0.7425, 1.7325, 0.825, 1.815, 0.9075, 1.8975, 0.495, 1.485, 0, 0.99, 0.0825, 1.0725, 0.165, 1.155, 0.2475, 1.2375, 0.33, 1.32, 0.4125, 1.4025, 0.5775, 1.5675, 0.66, 1.65, 0.7425, 1.7325, 0.825, 1.815, 0.9075, 1.8975, 0.495],
  "SoftwareVersions": "syngo_MR_E11",
  "SpacingBetweenSlices": 2,
  "StationName": "AWP166078",
  "TaskName": "motor",
  "TotalReadoutTime": 0.0534586,
  "TxRefAmp": 208.475,
  "dcmmeta_affine": [
    [-1.9995564222335815, 3.7875378389173875e-09, 0.042121678590774536, 99.86634063720703],
    [-0.004694988951086998, 1.9875372648239136, -0.22287577390670776, -94.02369689941406],
    [0.04185920208692551, 0.22292523086071014, 1.9870963096618652, -77.60188293457031],
    [0.0, 0.0, 0.0, 1.0]
],
  "dcmmeta_reorient_transform": [
    [0.0, -1.0, 0.0, 99.0],
    [1.0, 0.0, 0.0, 0.0],
    [0.0, 0.0, 1.0, 0.0],
    [0.0, 0.0, 0.0, 1.0]
],
  "dcmmeta_shape": [100, 100, 72, 232],
  "dcmmeta_slice_dim": 2,
  "dcmmeta_version": 0.6,
  "global": {
    "const": {
      "AcquisitionMatrix": [100, 0, 0, 100],
      "AngioFlag": "N",
      "BitsAllocated": 16,
      "BitsStored": 12,
      "BodyPartExamined": "BRAIN",
      "Columns": 900,
      "EchoNumbers": 1,
      "EchoTime": 34.0,
      "EchoTrainLength": 100,
      "FlipAngle": 90.0,
      "HighBit": 11,
      "ImageOrientationPatient": [0.99977819592129, 0.00234749436589, 0.02092960177795, 1.893769e-09, 0.99376862771334, -0.1114626151351],
      "ImagePositionPatient": [-899.68890103105, -899.63538641245, 16.894125473547],
      "ImageType": [
        "ORIGINAL",
        "PRIMARY",
        "M",
        "ND",
        "MOSAIC"
],
      "ImagedNucleus": "1H",
      "ImagingFrequency": 123.257834,
      "InPlanePhaseEncodingDirection": "COL",
      "MRAcquisitionType": "2D",
      "MagneticFieldStrength": 3.0,
      "Manufacturer": "SIEMENS",
      "ManufacturerModelName": "Prisma",
      "Modality": "MR",
      "NumberOfAverages": 1.0,
      "NumberOfPhaseEncodingSteps": 100,
      "PercentPhaseFieldOfView": 100.0,
      "PercentSampling": 100.0,
      "PerformedProcedureStepStartTime": "135037.259000",
      "PhotometricInterpretation": "MONOCHROME2",
      "PixelBandwidth": 2380.0,
      "PixelRepresentation": 0,
      "PixelSpacing": [2.0, 2.0],
      "ProtocolName": "bold_100x100_s3_2x2x2_232",
      "RepetitionTime": 2000.0,
      "Rows": 900,
      "SAR": 0.06565146806243,
      "SamplesPerPixel": 1,
      "ScanOptions": "FS",
      "ScanningSequence": "EP",
      "SequenceName": "*epfid2d1_100",
      "SequenceVariant": "SK",
      "SeriesDescription": "bold_100x100_s3_2x2x2_232",
      "SeriesNumber": 3,
      "SeriesTime": "135349.310000",
      "SliceLocation": -64.520139715568,
      "SliceThickness": 2.0,
      "SmallestImagePixelValue": 0,
      "SoftwareVersions": "syngo MR E11",
      "SpacingBetweenSlices": 1.9999999170878,
      "SpecificCharacterSet": "ISO_IR 100",
      "StudyID": "1",
      "StudyTime": "135037.182000",
      "TransmitCoilName": "Body",
      "VariableFlipAngleFlag": "N",
      "WindowCenterWidthExplanation": "Algo1",
      "dBdt": 0.0},
    "slices": {}
  },
  "time": {
    "samples": {
      "AcquisitionNumber": [1, 2, 3, 4, 5, 6, 7, 8, 9, 10, 11, 12, 13, 14, 15, 16, 17, 18, 19, 20, 21, 22, 23, 24, 25, 26, 27, 28, 29, 30, 31, 32, 33, 34, 35, 36, 37, 38, 39, 40, 41, 42, 43, 44, 45, 46, 47, 48, 49, 50, 51, 52, 53, 54, 55, 56, 57, 58, 59, 60, 61, 62, 63, 64, 65, 66, 67, 68, 69, 70, 71, 72, 73, 74, 75, 76, 77, 78, 79, 80, 81, 82, 83, 84, 85, 86, 87, 88, 89, 90, 91, 92, 93, 94, 95, 96, 97, 98, 99, 100, 101, 102, 103, 104, 105, 106, 107, 108, 109, 110, 111, 112, 113, 114, 115, 116, 117, 118, 119, 120, 121, 122, 123, 124, 125, 126, 127, 128, 129, 130, 131, 132, 133, 134, 135, 136, 137, 138, 139, 140, 141, 142, 143, 144, 145, 146, 147, 148, 149, 150, 151, 152, 153, 154, 155, 156, 157, 158, 159, 160, 161, 162, 163, 164, 165, 166, 167, 168, 169, 170, 171, 172, 173, 174, 175, 176, 177, 178, 179, 180, 181, 182, 183, 184, 185, 186, 187, 188, 189, 190, 191, 192, 193, 194, 195, 196, 197, 198, 199, 200, 201, 202, 203, 204, 205, 206, 207, 208, 209, 210, 211, 212, 213, 214, 215, 216, 217, 218, 219, 220, 221, 222, 223, 224, 225, 226, 227, 228, 229, 230, 231, 232],
      "AcquisitionTime": ["135347.067500", "135349.067500", "135351.067500", "135353.067500", "135355.067500", "135357.067500", "135359.067500", "135401.067500", "135403.067500", "135405.067500", "135407.067500", "135409.067500", "135411.067500", "135413.067500", "135415.067500", "135417.067500", "135419.067500", "135421.067500", "135423.067500", "135425.067500", "135427.067500", "135429.067500", "135431.067500", "135433.067500", "135435.067500", "135437.067500", "135439.067500", "135441.067500", "135443.067500", "135445.067500", "135447.067500", "135449.067500", "135451.067500", "135453.067500", "135455.067500", "135457.067500", "135459.067500", "135501.067500", "135503.067500", "135505.067500", "135507.067500", "135509.067500", "135511.067500", "135513.067500", "135515.067500", "135517.067500", "135519.067500", "135521.067500", "135523.067500", "135525.067500", "135527.067500", "135529.067500", "135531.067500", "135533.067500", "135535.067500", "135537.067500", "135539.067500", "135541.067500", "135543.067500", "135545.067500", "135547.067500", "135549.067500", "135551.067500", "135553.067500", "135555.067500", "135557.067500", "135559.067500", "135601.067500", "135603.067500", "135605.067500", "135607.067500", "135609.067500", "135611.067500", "135613.067500", "135615.067500", "135617.067500", "135619.067500", "135621.067500", "135623.067500", "135625.067500", "135627.067500", "135629.067500", "135631.067500", "135633.067500", "135635.067500", "135637.067500", "135639.067500", "135641.067500", "135643.067500", "135645.067500", "135647.067500", "135649.067500", "135651.067500", "135653.067500", "135655.067500", "135657.067500", "135659.067500", "135701.067500", "135703.067500", "135705.067500", "135707.067500", "135709.067500", "135711.067500", "135713.067500", "135715.067500", "135717.067500", "135719.067500", "135721.067500", "135723.067500", "135725.067500", "135727.067500", "135729.067500", "135731.067500", "135733.067500", "135735.067500", "135737.067500", "135739.067500", "135741.067500", "135743.067500", "135745.067500", "135747.067500", "135749.067500", "135751.067500", "135753.067500", "135755.067500", "135757.067500", "135759.067500", "135801.067500", "135803.067500", "135805.067500", "135807.067500", "135809.067500", "135811.067500", "135813.067500", "135815.067500", "135817.067500", "135819.067500", "135821.067500", "135823.067500", "135825.067500", "135827.067500", "135829.067500", "135831.067500", "135833.067500", "135835.067500", "135837.067500", "135839.067500", "135841.067500", "135843.067500", "135845.067500", "135847.067500", "135849.067500", "135851.067500", "135853.067500", "135855.067500", "135857.067500", "135859.067500", "135901.067500", "135903.067500", "135905.067500", "135907.067500", "135909.067500", "135911.067500", "135913.067500", "135915.067500", "135917.067500", "135919.067500", "135921.067500", "135923.067500", "135925.067500", "135927.067500", "135929.067500", "135931.067500", "135933.067500", "135935.067500", "135937.067500", "135939.067500", "135941.067500", "135943.067500", "135945.067500", "135947.067500", "135949.067500", "135951.067500", "135953.067500", "135955.067500", "135957.067500", "135959.067500", "140001.067500", "140003.067500", "140005.067500", "140007.067500", "140009.067500", "140011.067500", "140013.067500", "140015.067500", "140017.067500", "140019.067500", "140021.067500", "140023.067500", "140025.067500", "140027.067500", "140029.067500", "140031.067500", "140033.067500", "140035.067500", "140037.067500", "140039.067500", "140041.067500", "140043.067500", "140045.067500", "140047.067500", "140049.067500", "140051.067500", "140053.067500", "140055.067500", "140057.067500", "140059.067500", "140101.067500", "140103.067500", "140105.067500", "140107.067500", "140109.067500", "140111.067500", "140113.067500", "140115.067500", "140117.067500", "140119.067500", "140121.067500", "140123.067500", "140125.067500", "140127.067500", "140129.067500"],
      "ContentTime": ["135349.313000", "135350.809000", "135352.809000", "135354.809000", "135356.808000", "135358.809000", "135400.808000", "135402.808000", "135404.808000", "135406.809000", "135408.809000", "135410.809000", "135412.808000", "135414.808000", "135416.808000", "135418.808000", "135420.808000", "135422.808000", "135424.809000", "135426.810000", "135428.810000", "135430.809000", "135432.809000", "135434.808000", "135436.809000", "135438.809000", "135440.809000", "135442.809000", "135444.809000", "135446.809000", "135448.808000", "135450.808000", "135452.808000", "135454.809000", "135456.808000", "135458.808000", "135500.809000", "135502.809000", "135504.809000", "135506.808000", "135508.808000", "135510.808000", "135512.809000", "135514.808000", "135516.809000", "135518.809000", "135520.809000", "135522.808000", "135524.809000", "135526.809000", "135528.809000", "135530.808000", "135532.809000", "135534.809000", "135536.809000", "135538.809000", "135540.809000", "135542.809000", "135544.809000", "135546.809000", "135548.809000", "135550.808000", "135552.809000", "135554.809000", "135556.809000", "135558.808000", "135600.809000", "135602.809000", "135604.808000", "135606.808000", "135608.808000", "135610.810000", "135612.810000", "135614.809000", "135616.809000", "135618.808000", "135620.808000", "135622.808000", "135624.809000", "135626.809000", "135628.809000", "135630.809000", "135632.809000", "135634.808000", "135636.809000", "135638.808000", "135640.808000", "135642.809000", "135644.809000", "135646.809000", "135648.809000", "135650.808000", "135652.809000", "135654.808000", "135656.808000", "135658.808000", "135700.808000", "135702.809000", "135704.809000", "135706.809000", "135708.809000", "135710.809000", "135712.809000", "135714.808000", "135716.808000", "135718.809000", "135720.809000", "135722.810000", "135724.809000", "135726.808000", "135728.808000", "135730.808000", "135732.808000", "135734.809000", "135736.809000", "135738.809000", "135740.809000", "135742.809000", "135744.809000", "135746.809000", "135748.808000", "135750.808000", "135752.808000", "135754.809000", "135756.810000", "135758.809000", "135800.809000", "135802.808000", "135804.809000", "135806.809000", "135808.808000", "135810.809000", "135812.810000", "135814.810000", "135816.809000", "135818.808000", "135820.808000", "135822.808000", "135824.808000", "135826.808000", "135828.808000", "135830.809000", "135832.809000", "135834.809000", "135836.809000", "135838.809000", "135840.808000", "135842.809000", "135844.808000", "135846.809000", "135848.809000", "135850.809000", "135852.808000", "135854.808000", "135856.808000", "135858.808000", "135900.809000", "135902.808000", "135904.809000", "135906.309000", "135908.809000", "135910.808000", "135912.808000", "135914.808000", "135916.808000", "135918.809000", "135920.808000", "135922.809000", "135924.809000", "135926.810000", "135928.809000", "135930.808000", "135932.809000", "135934.808000", "135936.809000", "135938.809000", "135940.809000", "135942.810000", "135944.810000", "135946.809000", "135948.809000", "135950.809000", "135952.808000", "135954.809000", "135956.809000", "135958.809000", "140000.810000", "140002.808000", "140004.808000", "140006.808000", "140008.808000", "140010.809000", "140012.808000", "140014.809000", "140016.809000", "140018.809000", "140020.808000", "140022.808000", "140024.809000", "140026.808000", "140028.809000", "140030.808000", "140032.809000", "140034.809000", "140036.809000", "140038.808000", "140040.809000", "140042.809000", "140044.808000", "140046.808000", "140048.808000", "140050.809000", "140052.809000", "140054.809000", "140056.808000", "140058.809000", "140100.808000", "140102.808000", "140104.808000", "140106.810000", "140108.810000", "140110.809000", "140112.808000", "140114.809000", "140116.808000", "140118.808000", "140120.808000", "140122.808000", "140124.810000", "140126.809000", "140128.810000", "140130.378000"],
      "InstanceCreationTime": ["135349.313000", "135350.809000", "135352.809000", "135354.809000", "135356.808000", "135358.809000", "135400.808000", "135402.808000", "135404.808000", "135406.809000", "135408.809000", "135410.809000", "135412.808000", "135414.808000", "135416.808000", "135418.808000", "135420.808000", "135422.808000", "135424.809000", "135426.810000", "135428.810000", "135430.809000", "135432.809000", "135434.808000", "135436.809000", "135438.809000", "135440.809000", "135442.809000", "135444.809000", "135446.809000", "135448.808000", "135450.808000", "135452.808000", "135454.809000", "135456.808000", "135458.808000", "135500.809000", "135502.809000", "135504.809000", "135506.808000", "135508.808000", "135510.808000", "135512.809000", "135514.808000", "135516.809000", "135518.809000", "135520.809000", "135522.808000", "135524.809000", "135526.809000", "135528.809000", "135530.808000", "135532.809000", "135534.809000", "135536.809000", "135538.809000", "135540.809000", "135542.809000", "135544.809000", "135546.809000", "135548.809000", "135550.808000", "135552.809000", "135554.809000", "135556.809000", "135558.808000", "135600.809000", "135602.809000", "135604.808000", "135606.808000", "135608.808000", "135610.810000", "135612.810000", "135614.809000", "135616.809000", "135618.808000", "135620.808000", "135622.808000", "135624.809000", "135626.809000", "135628.809000", "135630.809000", "135632.809000", "135634.808000", "135636.809000", "135638.808000", "135640.808000", "135642.809000", "135644.809000", "135646.809000", "135648.809000", "135650.808000", "135652.809000", "135654.808000", "135656.808000", "135658.808000", "135700.808000", "135702.809000", "135704.809000", "135706.809000", "135708.809000", "135710.809000", "135712.809000", "135714.808000", "135716.808000", "135718.809000", "135720.809000", "135722.810000", "135724.809000", "135726.808000", "135728.808000", "135730.808000", "135732.808000", "135734.809000", "135736.809000", "135738.809000", "135740.809000", "135742.809000", "135744.809000", "135746.809000", "135748.808000", "135750.808000", "135752.808000", "135754.809000", "135756.810000", "135758.809000", "135800.809000", "135802.808000", "135804.809000", "135806.809000", "135808.808000", "135810.809000", "135812.810000", "135814.810000", "135816.809000", "135818.808000", "135820.808000", "135822.808000", "135824.808000", "135826.808000", "135828.808000", "135830.809000", "135832.809000", "135834.809000", "135836.809000", "135838.809000", "135840.808000", "135842.809000", "135844.808000", "135846.809000", "135848.809000", "135850.809000", "135852.808000", "135854.808000", "135856.808000", "135858.808000", "135900.809000", "135902.808000", "135904.809000", "135906.309000", "135908.809000", "135910.808000", "135912.808000", "135914.808000", "135916.808000", "135918.809000", "135920.808000", "135922.809000", "135924.809000", "135926.810000", "135928.809000", "135930.808000", "135932.809000", "135934.808000", "135936.809000", "135938.809000", "135940.809000", "135942.810000", "135944.810000", "135946.809000", "135948.809000", "135950.809000", "135952.808000", "135954.809000", "135956.809000", "135958.809000", "140000.810000", "140002.808000", "140004.808000", "140006.808000", "140008.808000", "140010.809000", "140012.808000", "140014.809000", "140016.809000", "140018.809000", "140020.808000", "140022.808000", "140024.809000", "140026.808000", "140028.809000", "140030.808000", "140032.809000", "140034.809000", "140036.809000", "140038.808000", "140040.809000", "140042.809000", "140044.808000", "140046.808000", "140048.808000", "140050.809000", "140052.809000", "140054.809000", "140056.808000", "140058.809000", "140100.808000", "140102.808000", "140104.808000", "140106.810000", "140108.810000", "140110.809000", "140112.808000", "140114.809000", "140116.808000", "140118.808000", "140120.808000", "140122.808000", "140124.810000", "140126.809000", "140128.810000", "140130.378000"],
      "InstanceNumber": [1, 2, 3, 4, 5, 6, 7, 8, 9, 10, 11, 12, 13, 14, 15, 16, 17, 18, 19, 20, 21, 22, 23, 24, 25, 26, 27, 28, 29, 30, 31, 32, 33, 34, 35, 36, 37, 38, 39, 40, 41, 42, 43, 44, 45, 46, 47, 48, 49, 50, 51, 52, 53, 54, 55, 56, 57, 58, 59, 60, 61, 62, 63, 64, 65, 66, 67, 68, 69, 70, 71, 72, 73, 74, 75, 76, 77, 78, 79, 80, 81, 82, 83, 84, 85, 86, 87, 88, 89, 90, 91, 92, 93, 94, 95, 96, 97, 98, 99, 100, 101, 102, 103, 104, 105, 106, 107, 108, 109, 110, 111, 112, 113, 114, 115, 116, 117, 118, 119, 120, 121, 122, 123, 124, 125, 126, 127, 128, 129, 130, 131, 132, 133, 134, 135, 136, 137, 138, 139, 140, 141, 142, 143, 144, 145, 146, 147, 148, 149, 150, 151, 152, 153, 154, 155, 156, 157, 158, 159, 160, 161, 162, 163, 164, 165, 166, 167, 168, 169, 170, 171, 172, 173, 174, 175, 176, 177, 178, 179, 180, 181, 182, 183, 184, 185, 186, 187, 188, 189, 190, 191, 192, 193, 194, 195, 196, 197, 198, 199, 200, 201, 202, 203, 204, 205, 206, 207, 208, 209, 210, 211, 212, 213, 214, 215, 216, 217, 218, 219, 220, 221, 222, 223, 224, 225, 226, 227, 228, 229, 230, 231, 232],
      "LargestImagePixelValue": [3791, 3744, 4095, 3767, 3744, 3720, 3715, 3726, 3719, 3755, 3765, 3768, 3816, 3838, 3851, 3843, 3853, 3843, 3674, 3654, 3993, 3757, 3674, 4095, 3952, 3622, 3852, 3914, 3898, 3891, 4095, 3940, 3864, 3816, 3874, 3896, 3895, 3950, 3854, 3916, 3900, 3892, 3882, 3929, 3925, 3865, 3882, 3790, 3861, 3873, 3930, 4008, 3877, 3925, 3941, 3967, 4000, 4000, 3982, 4015, 3992, 4011, 4003, 3988, 4025, 4036, 4031, 4043, 4030, 4034, 4041, 4038, 4007, 4060, 4050, 4016, 4089, 4055, 4042, 4062, 4075, 3891, 3961, 3905, 3845, 3968, 4038, 3918, 3942, 4095, 4095, 4095, 4047, 4074, 4035, 4063, 4046, 4036, 4063, 4035, 4070, 4056, 4073, 4064, 3954, 3977, 4015, 4032, 4042, 3963, 4063, 3979, 3979, 3831, 3881, 4028, 3927, 4036, 3966, 3998, 3950, 4007, 3998, 4002, 4039, 3986, 4053, 3987, 4035, 4072, 3996, 4031, 3989, 4069, 4020, 4050, 4095, 4084, 4015, 3978, 3986, 4035, 4019, 4009, 3923, 3783, 3749, 3865, 3827, 3760, 3787, 3739, 4020, 3925, 3950, 3920, 3984, 3946, 3947, 3967, 3961, 3999, 3969, 4017, 3964, 3982, 3974, 3932, 3877, 3987, 3916, 3986, 3965, 4040, 3978, 3989, 3985, 3986, 4007, 3967, 3943, 3876, 3832, 3875, 3799, 3834, 3918, 3901, 3929, 3911, 3915, 3917, 3911, 3987, 4040, 3986, 4055, 4037, 4044, 4017, 3853, 3994, 3903, 3945, 3907, 3978, 3896, 3930, 4095, 4001, 4019, 4095, 3957, 3983, 3960, 3941, 4065, 4053, 4095, 4095, 4095, 4074, 4095, 4095, 4095, 4095, 4095, 4095, 4094, 4095, 4095, 4095],
      "WindowCenter": [763.0, 762.0, 764.0, 762.0, 762.0, 762.0, 763.0, 763.0, 763.0, 763.0, 763.0, 764.0, 764.0, 763.0, 763.0, 764.0, 764.0, 765.0, 763.0, 759.0, 769.0, 766.0, 765.0, 765.0, 766.0, 764.0, 766.0, 769.0, 770.0, 769.0, 768.0, 767.0, 766.0, 766.0, 767.0, 768.0, 768.0, 769.0, 769.0, 770.0, 768.0, 770.0, 770.0, 770.0, 768.0, 768.0, 768.0, 768.0, 768.0, 769.0, 769.0, 770.0, 766.0, 766.0, 765.0, 764.0, 764.0, 765.0, 766.0, 766.0, 765.0, 764.0, 763.0, 763.0, 764.0, 764.0, 764.0, 764.0, 763.0, 766.0, 767.0, 767.0, 765.0, 765.0, 766.0, 766.0, 766.0, 766.0, 766.0, 766.0, 767.0, 764.0, 769.0, 765.0, 766.0, 764.0, 765.0, 762.0, 766.0, 766.0, 767.0, 767.0, 766.0, 765.0, 763.0, 763.0, 763.0, 764.0, 765.0, 765.0, 765.0, 765.0, 765.0, 765.0, 764.0, 764.0, 766.0, 766.0, 766.0, 765.0, 765.0, 765.0, 766.0, 764.0, 765.0, 766.0, 764.0, 765.0, 764.0, 764.0, 763.0, 763.0, 764.0, 764.0, 762.0, 762.0, 763.0, 763.0, 763.0, 763.0, 765.0, 764.0, 763.0, 763.0, 763.0, 764.0, 765.0, 765.0, 765.0, 764.0, 763.0, 763.0, 762.0, 762.0, 762.0, 761.0, 766.0, 766.0, 770.0, 766.0, 766.0, 765.0, 765.0, 764.0, 766.0, 766.0, 766.0, 766.0, 766.0, 765.0, 764.0, 767.0, 769.0, 769.0, 766.0, 764.0, 764.0, 764.0, 764.0, 766.0, 766.0, 766.0, 765.0, 764.0, 764.0, 763.0, 764.0, 764.0, 764.0, 765.0, 763.0, 760.0, 759.0, 760.0, 760.0, 762.0, 762.0, 763.0, 763.0, 763.0, 763.0, 765.0, 765.0, 766.0, 768.0, 766.0, 765.0, 765.0, 765.0, 766.0, 765.0, 766.0, 767.0, 766.0, 765.0, 765.0, 764.0, 765.0, 764.0, 765.0, 766.0, 767.0, 766.0, 765.0, 764.0, 764.0, 764.0, 765.0, 766.0, 766.0, 766.0, 764.0, 765.0, 765.0, 765.0, 765.0, 766.0, 765.0, 765.0, 763.0, 764.0, 763.0],
      "WindowWidth": [1670.0, 1665.0, 1670.0, 1666.0, 1667.0, 1667.0, 1670.0, 1671.0, 1671.0, 1669.0, 1671.0, 1672.0, 1672.0, 1669.0, 1670.0, 1671.0, 1673.0, 1676.0, 1670.0, 1657.0, 1689.0, 1677.0, 1675.0, 1675.0, 1678.0, 1673.0, 1677.0, 1686.0, 1689.0, 1686.0, 1684.0, 1680.0, 1678.0, 1678.0, 1683.0, 1683.0, 1684.0, 1688.0, 1688.0, 1690.0, 1685.0, 1689.0, 1690.0, 1689.0, 1685.0, 1684.0, 1685.0, 1685.0, 1685.0, 1686.0, 1687.0, 1689.0, 1679.0, 1678.0, 1673.0, 1672.0, 1672.0, 1674.0, 1677.0, 1679.0, 1674.0, 1672.0, 1669.0, 1670.0, 1671.0, 1672.0, 1673.0, 1671.0, 1668.0, 1677.0, 1681.0, 1679.0, 1673.0, 1674.0, 1677.0, 1677.0, 1678.0, 1677.0, 1678.0, 1678.0, 1680.0, 1674.0, 1687.0, 1676.0, 1679.0, 1672.0, 1675.0, 1667.0, 1679.0, 1679.0, 1681.0, 1681.0, 1677.0, 1673.0, 1668.0, 1669.0, 1669.0, 1673.0, 1676.0, 1676.0, 1676.0, 1674.0, 1675.0, 1675.0, 1673.0, 1673.0, 1678.0, 1679.0, 1677.0, 1673.0, 1674.0, 1675.0, 1676.0, 1673.0, 1675.0, 1677.0, 1673.0, 1675.0, 1671.0, 1672.0, 1668.0, 1669.0, 1670.0, 1670.0, 1666.0, 1665.0, 1668.0, 1667.0, 1668.0, 1670.0, 1674.0, 1673.0, 1670.0, 1669.0, 1668.0, 1672.0, 1674.0, 1674.0, 1674.0, 1672.0, 1670.0, 1669.0, 1667.0, 1667.0, 1666.0, 1666.0, 1678.0, 1678.0, 1692.0, 1679.0, 1677.0, 1675.0, 1675.0, 1671.0, 1676.0, 1677.0, 1679.0, 1677.0, 1677.0, 1675.0, 1671.0, 1681.0, 1687.0, 1685.0, 1676.0, 1670.0, 1670.0, 1670.0, 1671.0, 1677.0, 1677.0, 1676.0, 1674.0, 1672.0, 1670.0, 1669.0, 1672.0, 1672.0, 1672.0, 1673.0, 1668.0, 1661.0, 1657.0, 1659.0, 1658.0, 1664.0, 1666.0, 1667.0, 1668.0, 1668.0, 1669.0, 1673.0, 1674.0, 1679.0, 1683.0, 1678.0, 1675.0, 1673.0, 1674.0, 1676.0, 1674.0, 1678.0, 1680.0, 1678.0, 1675.0, 1675.0, 1671.0, 1672.0, 1672.0, 1674.0, 1677.0, 1680.0, 1676.0, 1674.0, 1672.0, 1672.0, 1672.0, 1674.0, 1678.0, 1678.0, 1677.0, 1673.0, 1673.0, 1673.0, 1675.0, 1675.0, 1677.0, 1674.0, 1672.0, 1668.0, 1670.0, 1669.0]
    },
    "slices": {}
  }
}