{
  "AcquisitionMatrixPE": 100,
  "AcquisitionNumber": 1,
  "AcquisitionTime": "12:01:31.227500",
  "BandwidthPerPixelPhaseEncode": 18.519,
  "BaseResolution": 100,
  "BodyPartExamined": "BRAIN",
  "ConsistencyInfo": "N4_VE11C_LATEST_20160120",
  "ConversionSoftware": "dcm2niix",
  "ConversionSoftwareVersion": "v1.0.20180622 GCC4.9.2",
  "DerivedVendorReportedEchoSpacing": 0.000539986,
  "DeviceSerialNumber": "166078",
  "DwellTime": 2.1e-06,
  "EchoTime": 0.034,
  "EchoTrainLength": 100,
  "EffectiveEchoSpacing": 0.000539986,
  "FlipAngle": 90,
  "ImageOrientationPatientDICOM": [1, 0, 0, 0, 1, 0],
  "ImageType": [
    "ORIGINAL",
    "PRIMARY",
    "M",
    "ND",
    "MOSAIC"
],
  "InPlanePhaseEncodingDirectionDICOM": "COL",
  "InstitutionAddress": "Street_StreetNo_Bei_Jing_District_CN_ZIP",
  "InstitutionName": "BeiJing_Normal_University",
  "InstitutionalDepartmentName": "Department",
  "MRAcquisitionType": "2D",
  "MagneticFieldStrength": 3,
  "Manufacturer": "Siemens",
  "ManufacturersModelName": "Prisma",
  "Modality": "MR",
  "MultibandAccelerationFactor": 3,
  "PartialFourier": 1,
  "PatientPosition": "HFS",
  "PercentPhaseFOV": 100,
  "PhaseEncodingDirection": "j-",
  "PhaseEncodingSteps": 100,
  "PhaseResolution": 1,
  "PixelBandwidth": 2380,
  "ProcedureStepDescription": "BNU_P2018_64CH_Liu.Jia",
  "ProtocolName": "bold_100x100_s3_2x2x2_232",
  "PulseSequenceDetails": "%SiemensSeq%_ep2d_bold",
  "ReceiveCoilActiveElements": "HC1-7;NC1",
  "ReceiveCoilName": "HeadNeck_64",
  "ReconMatrixPE": 100,
  "RepetitionTime": 2,
  "SAR": 0.0633884,
  "ScanOptions": "FS",
  "ScanningSequence": "EP",
  "SequenceName": "_epfid2d1_100",
  "SequenceVariant": "SK",
  "SeriesDescription": "bold_100x100_s3_2x2x2_232",
  "SeriesNumber": 5,
  "ShimSetting": [-5478, -11529, -1243, 371, 0, -415, -93, 46],
  "SliceThickness": 2,
  "SliceTiming": [1.4825, 0, 0.9875, 0.0825, 1.07, 0.165, 1.1525, 0.2475, 1.235, 0.33, 1.3175, 0.4125, 1.4, 0.5775, 1.565, 0.66, 1.6475, 0.7425, 1.73, 0.825, 1.8125, 0.9075, 1.895, 0.495, 1.4825, 0, 0.9875, 0.0825, 1.07, 0.165, 1.1525, 0.2475, 1.235, 0.33, 1.3175, 0.4125, 1.4, 0.5775, 1.565, 0.66, 1.6475, 0.7425, 1.73, 0.825, 1.8125, 0.9075, 1.895, 0.495, 1.4825, 0, 0.9875, 0.0825, 1.07, 0.165, 1.1525, 0.2475, 1.235, 0.33, 1.3175, 0.4125, 1.4, 0.5775, 1.565, 0.66, 1.6475, 0.7425, 1.73, 0.825, 1.8125, 0.9075, 1.895, 0.495],
  "SoftwareVersions": "syngo_MR_E11",
  "SpacingBetweenSlices": 2,
  "StationName": "AWP166078",
  "TaskName": "motor",
  "TotalReadoutTime": 0.0534586,
  "TxRefAmp": 219.635,
  "dcmmeta_affine": [
    [-2.0, 0.0, 0.0, 100.0],
    [0.0, 2.0, 0.0, -96.63614654541016],
    [0.0, 0.0, 2.0, -51.2602424621582],
    [0.0, 0.0, 0.0, 1.0]
],
  "dcmmeta_reorient_transform": [
    [0.0, -1.0, 0.0, 99.0],
    [1.0, 0.0, 0.0, 0.0],
    [0.0, 0.0, 1.0, 0.0],
    [0.0, 0.0, 0.0, 1.0]
],
  "dcmmeta_shape": [100, 100, 72, 232],
  "dcmmeta_slice_dim": 2,
  "dcmmeta_version": 0.6,
  "global": {
    "const": {
      "AcquisitionMatrix": [100, 0, 0, 100],
      "AngioFlag": "N",
      "BitsAllocated": 16,
      "BitsStored": 12,
      "BodyPartExamined": "BRAIN",
      "Columns": 900,
      "EchoNumbers": 1,
      "EchoTime": 34.0,
      "EchoTrainLength": 100,
      "FlipAngle": 90.0,
      "HighBit": 11,
      "ImageOrientationPatient": [1.0, 0.0, 0.0, 0.0, 1.0, 0.0],
      "ImagePositionPatient": [-900.0, -901.36385548115, -51.260242462158],
      "ImageType": [
        "ORIGINAL",
        "PRIMARY",
        "M",
        "ND",
        "MOSAIC"
],
      "ImagedNucleus": "1H",
      "ImagingFrequency": 123.257803,
      "InPlanePhaseEncodingDirection": "COL",
      "MRAcquisitionType": "2D",
      "MagneticFieldStrength": 3.0,
      "Manufacturer": "SIEMENS",
      "ManufacturerModelName": "Prisma",
      "Modality": "MR",
      "NumberOfAverages": 1.0,
      "NumberOfPhaseEncodingSteps": 100,
      "PercentPhaseFieldOfView": 100.0,
      "PercentSampling": 100.0,
      "PerformedProcedureStepStartTime": "113925.915000",
      "PhotometricInterpretation": "MONOCHROME2",
      "PixelBandwidth": 2380.0,
      "PixelRepresentation": 0,
      "PixelSpacing": [2.0, 2.0],
      "ProtocolName": "bold_100x100_s3_2x2x2_232",
      "RepetitionTime": 2000.0,
      "Rows": 900,
      "SAR": 0.06338837791192,
      "SamplesPerPixel": 1,
      "ScanOptions": "FS",
      "ScanningSequence": "EP",
      "SequenceName": "*epfid2d1_100",
      "SequenceVariant": "SK",
      "SeriesDescription": "bold_100x100_s3_2x2x2_232",
      "SeriesNumber": 5,
      "SeriesTime": "120133.707000",
      "SliceLocation": -51.260242462158,
      "SliceThickness": 2.0,
      "SmallestImagePixelValue": 0,
      "SoftwareVersions": "syngo MR E11",
      "SpacingBetweenSlices": 2.0000000537281,
      "SpecificCharacterSet": "ISO_IR 100",
      "StudyID": "1",
      "StudyTime": "113925.799000",
      "TransmitCoilName": "Body",
      "VariableFlipAngleFlag": "N",
      "WindowCenterWidthExplanation": "Algo1",
      "dBdt": 0.0},
    "slices": {}
  },
  "time": {
    "samples": {
      "AcquisitionNumber": [1, 2, 3, 4, 5, 6, 7, 8, 9, 10, 11, 12, 13, 14, 15, 16, 17, 18, 19, 20, 21, 22, 23, 24, 25, 26, 27, 28, 29, 30, 31, 32, 33, 34, 35, 36, 37, 38, 39, 40, 41, 42, 43, 44, 45, 46, 47, 48, 49, 50, 51, 52, 53, 54, 55, 56, 57, 58, 59, 60, 61, 62, 63, 64, 65, 66, 67, 68, 69, 70, 71, 72, 73, 74, 75, 76, 77, 78, 79, 80, 81, 82, 83, 84, 85, 86, 87, 88, 89, 90, 91, 92, 93, 94, 95, 96, 97, 98, 99, 100, 101, 102, 103, 104, 105, 106, 107, 108, 109, 110, 111, 112, 113, 114, 115, 116, 117, 118, 119, 120, 121, 122, 123, 124, 125, 126, 127, 128, 129, 130, 131, 132, 133, 134, 135, 136, 137, 138, 139, 140, 141, 142, 143, 144, 145, 146, 147, 148, 149, 150, 151, 152, 153, 154, 155, 156, 157, 158, 159, 160, 161, 162, 163, 164, 165, 166, 167, 168, 169, 170, 171, 172, 173, 174, 175, 176, 177, 178, 179, 180, 181, 182, 183, 184, 185, 186, 187, 188, 189, 190, 191, 192, 193, 194, 195, 196, 197, 198, 199, 200, 201, 202, 203, 204, 205, 206, 207, 208, 209, 210, 211, 212, 213, 214, 215, 216, 217, 218, 219, 220, 221, 222, 223, 224, 225, 226, 227, 228, 229, 230, 231, 232],
      "AcquisitionTime": ["120131.227500", "120133.227500", "120135.227500", "120137.227500", "120139.227500", "120141.227500", "120143.227500", "120145.227500", "120147.227500", "120149.227500", "120151.227500", "120153.227500", "120155.227500", "120157.227500", "120159.227500", "120201.227500", "120203.227500", "120205.227500", "120207.227500", "120209.227500", "120211.227500", "120213.227500", "120215.227500", "120217.227500", "120219.227500", "120221.227500", "120223.227500", "120225.227500", "120227.227500", "120229.227500", "120231.227500", "120233.227500", "120235.227500", "120237.227500", "120239.227500", "120241.227500", "120243.227500", "120245.227500", "120247.227500", "120249.227500", "120251.227500", "120253.227500", "120255.227500", "120257.227500", "120259.227500", "120301.227500", "120303.227500", "120305.227500", "120307.227500", "120309.227500", "120311.227500", "120313.227500", "120315.227500", "120317.227500", "120319.227500", "120321.227500", "120323.227500", "120325.227500", "120327.227500", "120329.227500", "120331.227500", "120333.227500", "120335.227500", "120337.227500", "120339.227500", "120341.227500", "120343.227500", "120345.227500", "120347.227500", "120349.227500", "120351.227500", "120353.227500", "120355.227500", "120357.227500", "120359.227500", "120401.227500", "120403.227500", "120405.227500", "120407.227500", "120409.227500", "120411.227500", "120413.227500", "120415.227500", "120417.227500", "120419.227500", "120421.227500", "120423.227500", "120425.227500", "120427.227500", "120429.227500", "120431.227500", "120433.227500", "120435.227500", "120437.227500", "120439.227500", "120441.227500", "120443.227500", "120445.227500", "120447.227500", "120449.227500", "120451.227500", "120453.227500", "120455.227500", "120457.227500", "120459.227500", "120501.227500", "120503.227500", "120505.227500", "120507.227500", "120509.227500", "120511.227500", "120513.227500", "120515.227500", "120517.227500", "120519.227500", "120521.227500", "120523.227500", "120525.227500", "120527.227500", "120529.227500", "120531.227500", "120533.227500", "120535.227500", "120537.227500", "120539.227500", "120541.227500", "120543.227500", "120545.227500", "120547.227500", "120549.227500", "120551.227500", "120553.227500", "120555.227500", "120557.227500", "120559.227500", "120601.227500", "120603.227500", "120605.227500", "120607.227500", "120609.227500", "120611.227500", "120613.227500", "120615.227500", "120617.227500", "120619.227500", "120621.227500", "120623.227500", "120625.227500", "120627.227500", "120629.227500", "120631.227500", "120633.227500", "120635.227500", "120637.227500", "120639.227500", "120641.227500", "120643.227500", "120645.227500", "120647.227500", "120649.227500", "120651.227500", "120653.227500", "120655.227500", "120657.227500", "120659.227500", "120701.227500", "120703.227500", "120705.227500", "120707.227500", "120709.227500", "120711.227500", "120713.227500", "120715.227500", "120717.227500", "120719.227500", "120721.227500", "120723.227500", "120725.227500", "120727.227500", "120729.227500", "120731.227500", "120733.227500", "120735.227500", "120737.227500", "120739.227500", "120741.227500", "120743.227500", "120745.227500", "120747.227500", "120749.227500", "120751.227500", "120753.227500", "120755.227500", "120757.227500", "120759.227500", "120801.227500", "120803.227500", "120805.227500", "120807.227500", "120809.227500", "120811.227500", "120813.227500", "120815.227500", "120817.227500", "120819.227500", "120821.227500", "120823.227500", "120825.227500", "120827.227500", "120829.227500", "120831.227500", "120833.227500", "120835.227500", "120837.227500", "120839.227500", "120841.227500", "120843.227500", "120845.227500", "120847.227500", "120849.227500", "120851.227500", "120853.227500", "120855.227500", "120857.227500", "120859.227500", "120901.227500", "120903.227500", "120905.227500", "120907.227500", "120909.227500", "120911.227500", "120913.227500"],
      "ContentTime": ["120133.711000", "120135.206000", "120137.207000", "120139.206000", "120141.206000", "120143.207000", "120145.208000", "120147.207000", "120149.207000", "120151.206000", "120153.206000", "120155.206000", "120157.206000", "120159.207000", "120201.208000", "120203.207000", "120205.207000", "120207.208000", "120209.206000", "120211.207000", "120213.206000", "120215.206000", "120217.206000", "120219.207000", "120221.207000", "120223.207000", "120225.208000", "120227.206000", "120229.207000", "120231.206000", "120233.206000", "120235.206000", "120237.207000", "120239.207000", "120241.207000", "120243.206000", "120245.206000", "120247.207000", "120249.207000", "120251.206000", "120253.208000", "120255.207000", "120257.208000", "120259.207000", "120301.207000", "120303.207000", "120305.207000", "120307.207000", "120309.207000", "120311.207000", "120313.207000", "120315.207000", "120317.208000", "120319.207000", "120321.207000", "120323.207000", "120325.207000", "120327.206000", "120329.207000", "120331.208000", "120333.207000", "120335.208000", "120337.207000", "120339.207000", "120341.206000", "120343.206000", "120345.206000", "120347.208000", "120349.208000", "120351.207000", "120353.207000", "120355.206000", "120357.206000", "120359.206000", "120401.207000", "120403.207000", "120405.207000", "120407.207000", "120409.207000", "120411.206000", "120413.206000", "120415.206000", "120417.206000", "120419.207000", "120421.207000", "120423.207000", "120425.208000", "120427.208000", "120429.206000", "120431.206000", "120433.206000", "120435.206000", "120437.206000", "120439.208000", "120441.207000", "120443.207000", "120445.208000", "120447.206000", "120449.206000", "120451.206000", "120453.207000", "120455.208000", "120457.208000", "120459.207000", "120501.207000", "120503.207000", "120505.207000", "120507.207000", "120509.207000", "120511.207000", "120513.207000", "120515.207000", "120517.207000", "120519.207000", "120521.206000", "120523.206000", "120525.206000", "120527.207000", "120529.207000", "120531.207000", "120533.207000", "120535.224000", "120537.207000", "120539.206000", "120541.207000", "120543.206000", "120545.206000", "120547.207000", "120549.208000", "120551.208000", "120553.207000", "120555.207000", "120557.206000", "120559.206000", "120601.206000", "120603.207000", "120605.207000", "120607.207000", "120609.207000", "120611.208000", "120613.206000", "120615.207000", "120617.207000", "120619.207000", "120621.207000", "120623.208000", "120625.208000", "120627.207000", "120629.207000", "120631.206000", "120633.207000", "120635.207000", "120637.206000", "120639.206000", "120641.207000", "120643.208000", "120645.207000", "120647.208000", "120649.206000", "120651.207000", "120653.207000", "120655.207000", "120657.206000", "120659.207000", "120701.207000", "120703.208000", "120705.208000", "120707.207000", "120709.206000", "120711.206000", "120713.207000", "120715.207000", "120717.208000", "120719.207000", "120721.207000", "120723.207000", "120725.207000", "120727.207000", "120729.207000", "120731.207000", "120733.207000", "120735.207000", "120737.207000", "120739.207000", "120741.207000", "120743.206000", "120745.206000", "120747.206000", "120749.206000", "120751.208000", "120753.207000", "120755.207000", "120757.208000", "120759.207000", "120801.206000", "120803.206000", "120805.206000", "120807.207000", "120809.208000", "120811.207000", "120813.207000", "120815.208000", "120817.206000", "120819.206000", "120821.207000", "120823.207000", "120825.207000", "120827.207000", "120829.208000", "120831.207000", "120833.207000", "120835.207000", "120837.207000", "120839.207000", "120841.207000", "120843.208000", "120845.207000", "120847.207000", "120849.207000", "120851.206000", "120853.206000", "120855.207000", "120857.207000", "120859.207000", "120901.207000", "120903.208000", "120905.208000", "120907.207000", "120909.207000", "120911.206000", "120913.206000", "120914.901000"],
      "InstanceCreationTime": ["120133.711000", "120135.206000", "120137.207000", "120139.206000", "120141.206000", "120143.207000", "120145.208000", "120147.207000", "120149.207000", "120151.206000", "120153.206000", "120155.206000", "120157.206000", "120159.207000", "120201.208000", "120203.207000", "120205.207000", "120207.208000", "120209.206000", "120211.207000", "120213.206000", "120215.206000", "120217.206000", "120219.207000", "120221.207000", "120223.207000", "120225.208000", "120227.206000", "120229.207000", "120231.206000", "120233.206000", "120235.206000", "120237.207000", "120239.207000", "120241.207000", "120243.206000", "120245.206000", "120247.207000", "120249.207000", "120251.206000", "120253.208000", "120255.207000", "120257.208000", "120259.207000", "120301.207000", "120303.207000", "120305.207000", "120307.207000", "120309.207000", "120311.207000", "120313.207000", "120315.207000", "120317.208000", "120319.207000", "120321.207000", "120323.207000", "120325.207000", "120327.206000", "120329.207000", "120331.208000", "120333.207000", "120335.208000", "120337.207000", "120339.207000", "120341.206000", "120343.206000", "120345.206000", "120347.208000", "120349.208000", "120351.207000", "120353.207000", "120355.206000", "120357.206000", "120359.206000", "120401.207000", "120403.207000", "120405.207000", "120407.207000", "120409.207000", "120411.206000", "120413.206000", "120415.206000", "120417.206000", "120419.207000", "120421.207000", "120423.207000", "120425.208000", "120427.208000", "120429.206000", "120431.206000", "120433.206000", "120435.206000", "120437.206000", "120439.208000", "120441.207000", "120443.207000", "120445.208000", "120447.206000", "120449.206000", "120451.206000", "120453.207000", "120455.208000", "120457.208000", "120459.207000", "120501.207000", "120503.207000", "120505.207000", "120507.207000", "120509.207000", "120511.207000", "120513.207000", "120515.207000", "120517.207000", "120519.207000", "120521.206000", "120523.206000", "120525.206000", "120527.207000", "120529.207000", "120531.207000", "120533.207000", "120535.224000", "120537.207000", "120539.206000", "120541.207000", "120543.206000", "120545.206000", "120547.207000", "120549.208000", "120551.208000", "120553.207000", "120555.207000", "120557.206000", "120559.206000", "120601.206000", "120603.207000", "120605.207000", "120607.207000", "120609.207000", "120611.208000", "120613.206000", "120615.207000", "120617.207000", "120619.207000", "120621.207000", "120623.208000", "120625.208000", "120627.207000", "120629.207000", "120631.206000", "120633.207000", "120635.207000", "120637.206000", "120639.206000", "120641.207000", "120643.208000", "120645.207000", "120647.208000", "120649.206000", "120651.207000", "120653.207000", "120655.207000", "120657.206000", "120659.207000", "120701.207000", "120703.208000", "120705.208000", "120707.207000", "120709.206000", "120711.206000", "120713.207000", "120715.207000", "120717.208000", "120719.207000", "120721.207000", "120723.207000", "120725.207000", "120727.207000", "120729.207000", "120731.207000", "120733.207000", "120735.207000", "120737.207000", "120739.207000", "120741.207000", "120743.206000", "120745.206000", "120747.206000", "120749.206000", "120751.208000", "120753.207000", "120755.207000", "120757.208000", "120759.207000", "120801.206000", "120803.206000", "120805.206000", "120807.207000", "120809.208000", "120811.207000", "120813.207000", "120815.208000", "120817.206000", "120819.206000", "120821.207000", "120823.207000", "120825.207000", "120827.207000", "120829.208000", "120831.207000", "120833.207000", "120835.207000", "120837.207000", "120839.207000", "120841.207000", "120843.208000", "120845.207000", "120847.207000", "120849.207000", "120851.206000", "120853.206000", "120855.207000", "120857.207000", "120859.207000", "120901.207000", "120903.208000", "120905.208000", "120907.207000", "120909.207000", "120911.206000", "120913.206000", "120914.901000"],
      "InstanceNumber": [1, 2, 3, 4, 5, 6, 7, 8, 9, 10, 11, 12, 13, 14, 15, 16, 17, 18, 19, 20, 21, 22, 23, 24, 25, 26, 27, 28, 29, 30, 31, 32, 33, 34, 35, 36, 37, 38, 39, 40, 41, 42, 43, 44, 45, 46, 47, 48, 49, 50, 51, 52, 53, 54, 55, 56, 57, 58, 59, 60, 61, 62, 63, 64, 65, 66, 67, 68, 69, 70, 71, 72, 73, 74, 75, 76, 77, 78, 79, 80, 81, 82, 83, 84, 85, 86, 87, 88, 89, 90, 91, 92, 93, 94, 95, 96, 97, 98, 99, 100, 101, 102, 103, 104, 105, 106, 107, 108, 109, 110, 111, 112, 113, 114, 115, 116, 117, 118, 119, 120, 121, 122, 123, 124, 125, 126, 127, 128, 129, 130, 131, 132, 133, 134, 135, 136, 137, 138, 139, 140, 141, 142, 143, 144, 145, 146, 147, 148, 149, 150, 151, 152, 153, 154, 155, 156, 157, 158, 159, 160, 161, 162, 163, 164, 165, 166, 167, 168, 169, 170, 171, 172, 173, 174, 175, 176, 177, 178, 179, 180, 181, 182, 183, 184, 185, 186, 187, 188, 189, 190, 191, 192, 193, 194, 195, 196, 197, 198, 199, 200, 201, 202, 203, 204, 205, 206, 207, 208, 209, 210, 211, 212, 213, 214, 215, 216, 217, 218, 219, 220, 221, 222, 223, 224, 225, 226, 227, 228, 229, 230, 231, 232],
      "LargestImagePixelValue": [3955, 3981, 3921, 3884, 3899, 3822, 3874, 3837, 3840, 3841, 3906, 3874, 3902, 3914, 3914, 3903, 3900, 3882, 3912, 3889, 3879, 3911, 3902, 3888, 3899, 3832, 3943, 3958, 3889, 3910, 3867, 3906, 3876, 3807, 3904, 3906, 3664, 3847, 3890, 3924, 3855, 3771, 3896, 3893, 3859, 3928, 3943, 3921, 3903, 3957, 3909, 3861, 3860, 3928, 3880, 3887, 3965, 3906, 3909, 3948, 3930, 3881, 3901, 3891, 3697, 4093, 3902, 3880, 3871, 3866, 3838, 3884, 3929, 3950, 3906, 3920, 3942, 3905, 3877, 3910, 3933, 3889, 3893, 3915, 3864, 3888, 3911, 3920, 3900, 3951, 3862, 3905, 3863, 3881, 3872, 3922, 3913, 3857, 3650, 3962, 3810, 3744, 3800, 3914, 3803, 3793, 3638, 4095, 3804, 3683, 4095, 3976, 3756, 3933, 3914, 3926, 3909, 3922, 3930, 3884, 3913, 3746, 4061, 3910, 3507, 3905, 3854, 3509, 4095, 3880, 3802, 3762, 3833, 3831, 3772, 3752, 3817, 3940, 3888, 3917, 3925, 3884, 3939, 3890, 3847, 3872, 3874, 3869, 3925, 3885, 3920, 3915, 3920, 3889, 3940, 3889, 3865, 3867, 3907, 3889, 3860, 3912, 3843, 3852, 3846, 3871, 3863, 3850, 4011, 3914, 3953, 3857, 3840, 3847, 3928, 3882, 3921, 3906, 3868, 3896, 3877, 3876, 3851, 3864, 3899, 3827, 3901, 3861, 3877, 3879, 3896, 3900, 3914, 3987, 3835, 3894, 3831, 3575, 3432, 3889, 4095, 4095, 3875, 3914, 3855, 3837, 3921, 3779, 3940, 3902, 3881, 3900, 3907, 3889, 3920, 3915, 3884, 3908, 3943, 3895, 3947, 3868, 3852, 3844, 3903, 3871, 3858, 3906, 3871, 3909, 3930, 3916],
      "WindowCenter": [768.0, 766.0, 765.0, 765.0, 764.0, 762.0, 766.0, 768.0, 768.0, 766.0, 763.0, 761.0, 761.0, 764.0, 764.0, 764.0, 764.0, 766.0, 767.0, 766.0, 765.0, 766.0, 766.0, 766.0, 765.0, 764.0, 767.0, 768.0, 768.0, 767.0, 766.0, 766.0, 766.0, 763.0, 766.0, 763.0, 763.0, 762.0, 754.0, 753.0, 769.0, 766.0, 769.0, 769.0, 768.0, 768.0, 768.0, 768.0, 769.0, 769.0, 769.0, 768.0, 766.0, 765.0, 766.0, 767.0, 768.0, 767.0, 768.0, 768.0, 767.0, 767.0, 767.0, 767.0, 764.0, 770.0, 768.0, 768.0, 768.0, 766.0, 765.0, 764.0, 763.0, 766.0, 766.0, 768.0, 769.0, 769.0, 768.0, 768.0, 768.0, 768.0, 767.0, 767.0, 766.0, 767.0, 768.0, 768.0, 767.0, 767.0, 767.0, 767.0, 766.0, 765.0, 766.0, 767.0, 768.0, 768.0, 764.0, 766.0, 766.0, 763.0, 762.0, 763.0, 762.0, 765.0, 755.0, 763.0, 749.0, 757.0, 763.0, 753.0, 762.0, 764.0, 766.0, 768.0, 768.0, 769.0, 768.0, 767.0, 767.0, 763.0, 758.0, 758.0, 758.0, 747.0, 754.0, 748.0, 771.0, 768.0, 764.0, 762.0, 763.0, 763.0, 760.0, 762.0, 760.0, 763.0, 763.0, 762.0, 763.0, 765.0, 767.0, 768.0, 766.0, 766.0, 767.0, 767.0, 768.0, 769.0, 770.0, 770.0, 769.0, 767.0, 767.0, 767.0, 767.0, 767.0, 767.0, 766.0, 765.0, 767.0, 768.0, 768.0, 767.0, 767.0, 766.0, 766.0, 768.0, 768.0, 771.0, 770.0, 769.0, 764.0, 761.0, 759.0, 761.0, 764.0, 766.0, 768.0, 769.0, 769.0, 770.0, 770.0, 770.0, 768.0, 769.0, 768.0, 768.0, 768.0, 768.0, 768.0, 764.0, 772.0, 768.0, 766.0, 764.0, 756.0, 751.0, 755.0, 770.0, 766.0, 766.0, 768.0, 767.0, 765.0, 765.0, 765.0, 767.0, 767.0, 766.0, 767.0, 767.0, 768.0, 769.0, 769.0, 768.0, 767.0, 768.0, 769.0, 770.0, 770.0, 769.0, 768.0, 768.0, 768.0, 768.0, 767.0, 766.0, 766.0, 766.0, 766.0],
      "WindowWidth": [1676.0, 1672.0, 1670.0, 1669.0, 1665.0, 1660.0, 1669.0, 1676.0, 1676.0, 1669.0, 1661.0, 1654.0, 1657.0, 1664.0, 1666.0, 1664.0, 1665.0, 1671.0, 1672.0, 1669.0, 1668.0, 1670.0, 1670.0, 1670.0, 1667.0, 1665.0, 1674.0, 1677.0, 1674.0, 1672.0, 1670.0, 1670.0, 1671.0, 1662.0, 1672.0, 1662.0, 1662.0, 1659.0, 1637.0, 1635.0, 1680.0, 1671.0, 1677.0, 1678.0, 1677.0, 1678.0, 1676.0, 1676.0, 1678.0, 1680.0, 1679.0, 1675.0, 1670.0, 1668.0, 1669.0, 1672.0, 1675.0, 1674.0, 1675.0, 1675.0, 1673.0, 1672.0, 1674.0, 1674.0, 1665.0, 1681.0, 1677.0, 1676.0, 1675.0, 1671.0, 1668.0, 1663.0, 1662.0, 1668.0, 1670.0, 1675.0, 1679.0, 1678.0, 1677.0, 1676.0, 1676.0, 1675.0, 1673.0, 1673.0, 1671.0, 1674.0, 1677.0, 1677.0, 1674.0, 1673.0, 1673.0, 1672.0, 1669.0, 1667.0, 1669.0, 1671.0, 1675.0, 1675.0, 1664.0, 1671.0, 1670.0, 1662.0, 1658.0, 1662.0, 1657.0, 1666.0, 1640.0, 1660.0, 1623.0, 1646.0, 1662.0, 1633.0, 1657.0, 1664.0, 1670.0, 1675.0, 1676.0, 1677.0, 1675.0, 1672.0, 1673.0, 1664.0, 1649.0, 1649.0, 1646.0, 1618.0, 1637.0, 1621.0, 1687.0, 1676.0, 1665.0, 1658.0, 1661.0, 1662.0, 1651.0, 1657.0, 1653.0, 1661.0, 1659.0, 1656.0, 1660.0, 1665.0, 1673.0, 1675.0, 1670.0, 1670.0, 1671.0, 1673.0, 1675.0, 1677.0, 1683.0, 1682.0, 1679.0, 1673.0, 1673.0, 1673.0, 1672.0, 1672.0, 1671.0, 1671.0, 1667.0, 1673.0, 1674.0, 1675.0, 1673.0, 1672.0, 1672.0, 1672.0, 1675.0, 1676.0, 1683.0, 1681.0, 1677.0, 1664.0, 1654.0, 1649.0, 1654.0, 1663.0, 1669.0, 1674.0, 1678.0, 1679.0, 1681.0, 1682.0, 1681.0, 1676.0, 1677.0, 1675.0, 1675.0, 1675.0, 1676.0, 1676.0, 1666.0, 1688.0, 1677.0, 1670.0, 1664.0, 1642.0, 1628.0, 1641.0, 1682.0, 1671.0, 1670.0, 1675.0, 1671.0, 1666.0, 1666.0, 1665.0, 1672.0, 1672.0, 1671.0, 1671.0, 1674.0, 1674.0, 1678.0, 1678.0, 1675.0, 1673.0, 1675.0, 1679.0, 1682.0, 1681.0, 1677.0, 1676.0, 1675.0, 1674.0, 1675.0, 1672.0, 1669.0, 1670.0, 1670.0, 1670.0]
    },
    "slices": {}
  }
}