{
  "AcquisitionMatrixPE": 100,
  "AcquisitionNumber": 1,
  "AcquisitionTime": "12:13:24.077500",
  "BandwidthPerPixelPhaseEncode": 18.519,
  "BaseResolution": 100,
  "BodyPartExamined": "BRAIN",
  "ConsistencyInfo": "N4_VE11C_LATEST_20160120",
  "ConversionSoftware": "dcm2niix",
  "ConversionSoftwareVersion": "v1.0.20180622 GCC4.9.2",
  "DerivedVendorReportedEchoSpacing": 0.000539986,
  "DeviceSerialNumber": "166078",
  "DwellTime": 2.1e-06,
  "EchoTime": 0.034,
  "EchoTrainLength": 100,
  "EffectiveEchoSpacing": 0.000539986,
  "FlipAngle": 90,
  "ImageOrientationPatientDICOM": [1, 0, 0, 0, 1, 0],
  "ImageType": [
    "ORIGINAL",
    "PRIMARY",
    "M",
    "ND",
    "MOSAIC"
],
  "InPlanePhaseEncodingDirectionDICOM": "COL",
  "InstitutionAddress": "Street_StreetNo_Bei_Jing_District_CN_ZIP",
  "InstitutionName": "BeiJing_Normal_University",
  "InstitutionalDepartmentName": "Department",
  "MRAcquisitionType": "2D",
  "MagneticFieldStrength": 3,
  "Manufacturer": "Siemens",
  "ManufacturersModelName": "Prisma",
  "Modality": "MR",
  "MultibandAccelerationFactor": 3,
  "PartialFourier": 1,
  "PatientPosition": "HFS",
  "PercentPhaseFOV": 100,
  "PhaseEncodingDirection": "j-",
  "PhaseEncodingSteps": 100,
  "PhaseResolution": 1,
  "PixelBandwidth": 2380,
  "ProcedureStepDescription": "BNU_P2018_64CH_Liu.Jia",
  "ProtocolName": "bold_100x100_s3_2x2x2_232",
  "PulseSequenceDetails": "%SiemensSeq%_ep2d_bold",
  "ReceiveCoilActiveElements": "HC1-7;NC1",
  "ReceiveCoilName": "HeadNeck_64",
  "ReconMatrixPE": 100,
  "RepetitionTime": 2,
  "SAR": 0.0633884,
  "ScanOptions": "FS",
  "ScanningSequence": "EP",
  "SequenceName": "_epfid2d1_100",
  "SequenceVariant": "SK",
  "SeriesDescription": "bold_100x100_s3_2x2x2_232",
  "SeriesNumber": 8,
  "ShimSetting": [-5478, -11529, -1243, 371, 0, -415, -93, 46],
  "SliceThickness": 2,
  "SliceTiming": [1.485, 0, 0.99, 0.0825, 1.0725, 0.165, 1.155, 0.2475, 1.2375, 0.33, 1.32, 0.4125, 1.4025, 0.5775, 1.5675, 0.66, 1.65, 0.7425, 1.7325, 0.825, 1.815, 0.9075, 1.895, 0.495, 1.485, 0, 0.99, 0.0825, 1.0725, 0.165, 1.155, 0.2475, 1.2375, 0.33, 1.32, 0.4125, 1.4025, 0.5775, 1.5675, 0.66, 1.65, 0.7425, 1.7325, 0.825, 1.815, 0.9075, 1.895, 0.495, 1.485, 0, 0.99, 0.0825, 1.0725, 0.165, 1.155, 0.2475, 1.2375, 0.33, 1.32, 0.4125, 1.4025, 0.5775, 1.5675, 0.66, 1.65, 0.7425, 1.7325, 0.825, 1.815, 0.9075, 1.895, 0.495],
  "SoftwareVersions": "syngo_MR_E11",
  "SpacingBetweenSlices": 2,
  "StationName": "AWP166078",
  "TaskName": "motor",
  "TotalReadoutTime": 0.0534586,
  "TxRefAmp": 219.635,
  "dcmmeta_affine": [
    [-2.0, 0.0, 0.0, 100.0],
    [0.0, 2.0, 0.0, -96.63614654541016],
    [0.0, 0.0, 2.0, -51.2602424621582],
    [0.0, 0.0, 0.0, 1.0]
],
  "dcmmeta_reorient_transform": [
    [0.0, -1.0, 0.0, 99.0],
    [1.0, 0.0, 0.0, 0.0],
    [0.0, 0.0, 1.0, 0.0],
    [0.0, 0.0, 0.0, 1.0]
],
  "dcmmeta_shape": [100, 100, 72, 232],
  "dcmmeta_slice_dim": 2,
  "dcmmeta_version": 0.6,
  "global": {
    "const": {
      "AcquisitionMatrix": [100, 0, 0, 100],
      "AngioFlag": "N",
      "BitsAllocated": 16,
      "BitsStored": 12,
      "BodyPartExamined": "BRAIN",
      "Columns": 900,
      "EchoNumbers": 1,
      "EchoTime": 34.0,
      "EchoTrainLength": 100,
      "FlipAngle": 90.0,
      "HighBit": 11,
      "ImageOrientationPatient": [1.0, 0.0, 0.0, 0.0, 1.0, 0.0],
      "ImagePositionPatient": [-900.0, -901.36385548115, -51.260242462158],
      "ImageType": [
        "ORIGINAL",
        "PRIMARY",
        "M",
        "ND",
        "MOSAIC"
],
      "ImagedNucleus": "1H",
      "ImagingFrequency": 123.257801,
      "InPlanePhaseEncodingDirection": "COL",
      "MRAcquisitionType": "2D",
      "MagneticFieldStrength": 3.0,
      "Manufacturer": "SIEMENS",
      "ManufacturerModelName": "Prisma",
      "Modality": "MR",
      "NumberOfAverages": 1.0,
      "NumberOfPhaseEncodingSteps": 100,
      "PercentPhaseFieldOfView": 100.0,
      "PercentSampling": 100.0,
      "PerformedProcedureStepStartTime": "113925.915000",
      "PhotometricInterpretation": "MONOCHROME2",
      "PixelBandwidth": 2380.0,
      "PixelRepresentation": 0,
      "PixelSpacing": [2.0, 2.0],
      "ProtocolName": "bold_100x100_s3_2x2x2_232",
      "RepetitionTime": 2000.0,
      "Rows": 900,
      "SAR": 0.06338837791192,
      "SamplesPerPixel": 1,
      "ScanOptions": "FS",
      "ScanningSequence": "EP",
      "SequenceName": "*epfid2d1_100",
      "SequenceVariant": "SK",
      "SeriesDescription": "bold_100x100_s3_2x2x2_232",
      "SeriesNumber": 8,
      "SeriesTime": "121326.586000",
      "SliceLocation": -51.260242462158,
      "SliceThickness": 2.0,
      "SmallestImagePixelValue": 0,
      "SoftwareVersions": "syngo MR E11",
      "SpacingBetweenSlices": 2.0000000537281,
      "SpecificCharacterSet": "ISO_IR 100",
      "StudyID": "1",
      "StudyTime": "113925.799000",
      "TransmitCoilName": "Body",
      "VariableFlipAngleFlag": "N",
      "WindowCenterWidthExplanation": "Algo1",
      "dBdt": 0.0},
    "slices": {}
  },
  "time": {
    "samples": {
      "AcquisitionNumber": [1, 2, 3, 4, 5, 6, 7, 8, 9, 10, 11, 12, 13, 14, 15, 16, 17, 18, 19, 20, 21, 22, 23, 24, 25, 26, 27, 28, 29, 30, 31, 32, 33, 34, 35, 36, 37, 38, 39, 40, 41, 42, 43, 44, 45, 46, 47, 48, 49, 50, 51, 52, 53, 54, 55, 56, 57, 58, 59, 60, 61, 62, 63, 64, 65, 66, 67, 68, 69, 70, 71, 72, 73, 74, 75, 76, 77, 78, 79, 80, 81, 82, 83, 84, 85, 86, 87, 88, 89, 90, 91, 92, 93, 94, 95, 96, 97, 98, 99, 100, 101, 102, 103, 104, 105, 106, 107, 108, 109, 110, 111, 112, 113, 114, 115, 116, 117, 118, 119, 120, 121, 122, 123, 124, 125, 126, 127, 128, 129, 130, 131, 132, 133, 134, 135, 136, 137, 138, 139, 140, 141, 142, 143, 144, 145, 146, 147, 148, 149, 150, 151, 152, 153, 154, 155, 156, 157, 158, 159, 160, 161, 162, 163, 164, 165, 166, 167, 168, 169, 170, 171, 172, 173, 174, 175, 176, 177, 178, 179, 180, 181, 182, 183, 184, 185, 186, 187, 188, 189, 190, 191, 192, 193, 194, 195, 196, 197, 198, 199, 200, 201, 202, 203, 204, 205, 206, 207, 208, 209, 210, 211, 212, 213, 214, 215, 216, 217, 218, 219, 220, 221, 222, 223, 224, 225, 226, 227, 228, 229, 230, 231, 232],
      "AcquisitionTime": ["121324.077500", "121326.077500", "121328.077500", "121330.077500", "121332.077500", "121334.077500", "121336.077500", "121338.077500", "121340.077500", "121342.077500", "121344.077500", "121346.077500", "121348.077500", "121350.077500", "121352.077500", "121354.077500", "121356.077500", "121358.077500", "121400.077500", "121402.077500", "121404.077500", "121406.077500", "121408.077500", "121410.077500", "121412.077500", "121414.077500", "121416.077500", "121418.077500", "121420.077500", "121422.077500", "121424.077500", "121426.077500", "121428.077500", "121430.077500", "121432.077500", "121434.077500", "121436.077500", "121438.077500", "121440.077500", "121442.077500", "121444.077500", "121446.077500", "121448.077500", "121450.077500", "121452.077500", "121454.077500", "121456.077500", "121458.077500", "121500.077500", "121502.077500", "121504.077500", "121506.077500", "121508.077500", "121510.077500", "121512.077500", "121514.077500", "121516.077500", "121518.077500", "121520.077500", "121522.077500", "121524.077500", "121526.077500", "121528.077500", "121530.077500", "121532.077500", "121534.077500", "121536.077500", "121538.077500", "121540.077500", "121542.077500", "121544.077500", "121546.077500", "121548.077500", "121550.077500", "121552.077500", "121554.077500", "121556.077500", "121558.077500", "121600.077500", "121602.077500", "121604.077500", "121606.077500", "121608.077500", "121610.077500", "121612.077500", "121614.077500", "121616.077500", "121618.077500", "121620.077500", "121622.077500", "121624.077500", "121626.077500", "121628.077500", "121630.077500", "121632.077500", "121634.077500", "121636.077500", "121638.077500", "121640.077500", "121642.077500", "121644.077500", "121646.077500", "121648.077500", "121650.077500", "121652.077500", "121654.077500", "121656.077500", "121658.077500", "121700.077500", "121702.077500", "121704.077500", "121706.077500", "121708.077500", "121710.077500", "121712.077500", "121714.077500", "121716.077500", "121718.077500", "121720.077500", "121722.077500", "121724.077500", "121726.077500", "121728.077500", "121730.077500", "121732.077500", "121734.077500", "121736.077500", "121738.077500", "121740.077500", "121742.077500", "121744.077500", "121746.077500", "121748.077500", "121750.077500", "121752.077500", "121754.077500", "121756.077500", "121758.077500", "121800.077500", "121802.077500", "121804.077500", "121806.077500", "121808.077500", "121810.077500", "121812.077500", "121814.077500", "121816.077500", "121818.077500", "121820.077500", "121822.077500", "121824.077500", "121826.077500", "121828.077500", "121830.077500", "121832.077500", "121834.077500", "121836.077500", "121838.077500", "121840.077500", "121842.077500", "121844.077500", "121846.077500", "121848.077500", "121850.077500", "121852.077500", "121854.077500", "121856.077500", "121858.077500", "121900.077500", "121902.077500", "121904.077500", "121906.077500", "121908.077500", "121910.077500", "121912.077500", "121914.077500", "121916.077500", "121918.077500", "121920.077500", "121922.077500", "121924.077500", "121926.077500", "121928.077500", "121930.077500", "121932.077500", "121934.077500", "121936.077500", "121938.077500", "121940.077500", "121942.077500", "121944.077500", "121946.077500", "121948.077500", "121950.077500", "121952.077500", "121954.077500", "121956.077500", "121958.077500", "122000.077500", "122002.077500", "122004.077500", "122006.077500", "122008.077500", "122010.077500", "122012.077500", "122014.077500", "122016.077500", "122018.077500", "122020.077500", "122022.077500", "122024.077500", "122026.077500", "122028.077500", "122030.077500", "122032.077500", "122034.077500", "122036.077500", "122038.077500", "122040.077500", "122042.077500", "122044.077500", "122046.077500", "122048.077500", "122050.077500", "122052.077500", "122054.077500", "122056.077500", "122058.077500", "122100.077500", "122102.077500", "122104.077500", "122106.077500"],
      "ContentTime": ["121326.590000", "121328.586000", "121330.585000", "121332.585000", "121334.585000", "121336.584000", "121338.585000", "121340.585000", "121342.586000", "121344.585000", "121346.585000", "121348.586000", "121350.585000", "121352.085000", "121354.584000", "121356.084000", "121358.585000", "121400.585000", "121402.585000", "121404.585000", "121406.586000", "121408.585000", "121410.586000", "121412.584000", "121414.584000", "121416.086000", "121418.586000", "121420.585000", "121422.586000", "121424.586000", "121426.585000", "121428.585000", "121430.585000", "121432.585000", "121434.586000", "121436.586000", "121438.085000", "121440.585000", "121442.585000", "121444.585000", "121446.585000", "121448.584000", "121450.585000", "121452.585000", "121454.585000", "121456.586000", "121458.586000", "121500.585000", "121502.585000", "121504.584000", "121506.084000", "121508.085000", "121510.085000", "121512.085000", "121514.585000", "121516.086000", "121518.585000", "121520.586000", "121522.585000", "121524.586000", "121526.586000", "121528.585000", "121530.085000", "121532.085000", "121534.586000", "121536.585000", "121538.584000", "121540.585000", "121542.585000", "121544.585000", "121546.086000", "121548.586000", "121550.585000", "121552.585000", "121554.586000", "121556.584000", "121558.084000", "121600.085000", "121602.585000", "121604.585000", "121606.085000", "121608.585000", "121610.586000", "121612.585000", "121614.584000", "121616.584000", "121618.585000", "121620.585000", "121622.085000", "121624.586000", "121626.585000", "121628.585000", "121630.586000", "121632.584000", "121634.585000", "121636.585000", "121638.586000", "121640.586000", "121642.086000", "121644.586000", "121646.085000", "121648.584000", "121650.584000", "121652.585000", "121654.086000", "121656.586000", "121658.586000", "121700.586000", "121702.585000", "121704.086000", "121706.584000", "121708.585000", "121710.586000", "121712.585000", "121714.585000", "121716.586000", "121718.085000", "121720.585000", "121722.585000", "121724.085000", "121726.585000", "121728.085000", "121730.586000", "121732.585000", "121734.585000", "121736.085000", "121738.585000", "121740.586000", "121742.585000", "121744.585000", "121746.086000", "121748.585000", "121750.585000", "121752.586000", "121754.586000", "121756.085000", "121758.086000", "121800.084000", "121802.085000", "121804.585000", "121806.085000", "121808.086000", "121810.585000", "121812.585000", "121814.585000", "121816.585000", "121818.584000", "121820.585000", "121822.586000", "121824.586000", "121826.585000", "121828.586000", "121830.585000", "121832.586000", "121834.584000", "121836.584000", "121838.085000", "121840.585000", "121842.085000", "121844.085000", "121846.585000", "121848.585000", "121850.085000", "121852.084000", "121854.585000", "121856.586000", "121858.085000", "121900.586000", "121902.585000", "121904.586000", "121906.585000", "121908.585000", "121910.085000", "121912.085000", "121914.586000", "121916.585000", "121918.585000", "121920.085000", "121922.585000", "121924.585000", "121926.584000", "121928.085000", "121930.585000", "121932.085000", "121934.586000", "121936.586000", "121938.585000", "121940.586000", "121942.585000", "121944.585000", "121946.084000", "121948.086000", "121950.585000", "121952.586000", "121954.085000", "121956.086000", "121958.585000", "122000.585000", "122002.584000", "122004.586000", "122006.586000", "122008.085000", "122010.585000", "122012.585000", "122014.585000", "122016.586000", "122018.584000", "122020.584000", "122022.585000", "122024.586000", "122026.086000", "122028.585000", "122030.586000", "122032.085000", "122034.585000", "122036.084000", "122038.585000", "122040.585000", "122042.086000", "122044.585000", "122046.585000", "122048.586000", "122050.586000", "122052.585000", "122054.585000", "122056.084000", "122058.585000", "122100.585000", "122102.585000", "122104.585000", "122106.586000", "122108.117000"],
      "InstanceCreationTime": ["121326.590000", "121328.586000", "121330.585000", "121332.585000", "121334.585000", "121336.584000", "121338.585000", "121340.585000", "121342.586000", "121344.585000", "121346.585000", "121348.586000", "121350.585000", "121352.085000", "121354.584000", "121356.084000", "121358.585000", "121400.585000", "121402.585000", "121404.585000", "121406.586000", "121408.585000", "121410.586000", "121412.584000", "121414.584000", "121416.086000", "121418.586000", "121420.585000", "121422.586000", "121424.586000", "121426.585000", "121428.585000", "121430.585000", "121432.585000", "121434.586000", "121436.586000", "121438.085000", "121440.585000", "121442.585000", "121444.585000", "121446.585000", "121448.584000", "121450.585000", "121452.585000", "121454.585000", "121456.586000", "121458.586000", "121500.585000", "121502.585000", "121504.584000", "121506.084000", "121508.085000", "121510.085000", "121512.085000", "121514.585000", "121516.086000", "121518.585000", "121520.586000", "121522.585000", "121524.586000", "121526.586000", "121528.585000", "121530.085000", "121532.085000", "121534.586000", "121536.585000", "121538.584000", "121540.585000", "121542.585000", "121544.585000", "121546.086000", "121548.586000", "121550.585000", "121552.585000", "121554.586000", "121556.584000", "121558.084000", "121600.085000", "121602.585000", "121604.585000", "121606.085000", "121608.585000", "121610.586000", "121612.585000", "121614.584000", "121616.584000", "121618.585000", "121620.585000", "121622.085000", "121624.586000", "121626.585000", "121628.585000", "121630.586000", "121632.584000", "121634.585000", "121636.585000", "121638.586000", "121640.586000", "121642.086000", "121644.586000", "121646.085000", "121648.584000", "121650.584000", "121652.585000", "121654.086000", "121656.586000", "121658.586000", "121700.586000", "121702.585000", "121704.086000", "121706.584000", "121708.585000", "121710.586000", "121712.585000", "121714.585000", "121716.586000", "121718.085000", "121720.585000", "121722.585000", "121724.085000", "121726.585000", "121728.085000", "121730.586000", "121732.585000", "121734.585000", "121736.085000", "121738.585000", "121740.586000", "121742.585000", "121744.585000", "121746.086000", "121748.585000", "121750.585000", "121752.586000", "121754.586000", "121756.085000", "121758.086000", "121800.084000", "121802.085000", "121804.585000", "121806.085000", "121808.086000", "121810.585000", "121812.585000", "121814.585000", "121816.585000", "121818.584000", "121820.585000", "121822.586000", "121824.586000", "121826.585000", "121828.586000", "121830.585000", "121832.586000", "121834.584000", "121836.584000", "121838.085000", "121840.585000", "121842.085000", "121844.085000", "121846.585000", "121848.585000", "121850.085000", "121852.084000", "121854.585000", "121856.586000", "121858.085000", "121900.586000", "121902.585000", "121904.586000", "121906.585000", "121908.585000", "121910.085000", "121912.085000", "121914.586000", "121916.585000", "121918.585000", "121920.085000", "121922.585000", "121924.585000", "121926.584000", "121928.085000", "121930.585000", "121932.085000", "121934.586000", "121936.586000", "121938.585000", "121940.586000", "121942.585000", "121944.585000", "121946.084000", "121948.086000", "121950.585000", "121952.586000", "121954.085000", "121956.086000", "121958.585000", "122000.585000", "122002.584000", "122004.586000", "122006.586000", "122008.085000", "122010.585000", "122012.585000", "122014.585000", "122016.586000", "122018.584000", "122020.584000", "122022.585000", "122024.586000", "122026.086000", "122028.585000", "122030.586000", "122032.085000", "122034.585000", "122036.084000", "122038.585000", "122040.585000", "122042.086000", "122044.585000", "122046.585000", "122048.586000", "122050.586000", "122052.585000", "122054.585000", "122056.084000", "122058.585000", "122100.585000", "122102.585000", "122104.585000", "122106.586000", "122108.117000"],
      "InstanceNumber": [1, 2, 3, 4, 5, 6, 7, 8, 9, 10, 11, 12, 13, 14, 15, 16, 17, 18, 19, 20, 21, 22, 23, 24, 25, 26, 27, 28, 29, 30, 31, 32, 33, 34, 35, 36, 37, 38, 39, 40, 41, 42, 43, 44, 45, 46, 47, 48, 49, 50, 51, 52, 53, 54, 55, 56, 57, 58, 59, 60, 61, 62, 63, 64, 65, 66, 67, 68, 69, 70, 71, 72, 73, 74, 75, 76, 77, 78, 79, 80, 81, 82, 83, 84, 85, 86, 87, 88, 89, 90, 91, 92, 93, 94, 95, 96, 97, 98, 99, 100, 101, 102, 103, 104, 105, 106, 107, 108, 109, 110, 111, 112, 113, 114, 115, 116, 117, 118, 119, 120, 121, 122, 123, 124, 125, 126, 127, 128, 129, 130, 131, 132, 133, 134, 135, 136, 137, 138, 139, 140, 141, 142, 143, 144, 145, 146, 147, 148, 149, 150, 151, 152, 153, 154, 155, 156, 157, 158, 159, 160, 161, 162, 163, 164, 165, 166, 167, 168, 169, 170, 171, 172, 173, 174, 175, 176, 177, 178, 179, 180, 181, 182, 183, 184, 185, 186, 187, 188, 189, 190, 191, 192, 193, 194, 195, 196, 197, 198, 199, 200, 201, 202, 203, 204, 205, 206, 207, 208, 209, 210, 211, 212, 213, 214, 215, 216, 217, 218, 219, 220, 221, 222, 223, 224, 225, 226, 227, 228, 229, 230, 231, 232],
      "LargestImagePixelValue": [3927, 3889, 3913, 3902, 3900, 3887, 3899, 3907, 3893, 3899, 3906, 3907, 3873, 3876, 3879, 3861, 3893, 3911, 3919, 3877, 3935, 3890, 3812, 3853, 3837, 3861, 3863, 3849, 3876, 3859, 3862, 3875, 3912, 3690, 3985, 3652, 3418, 3562, 3963, 3985, 3866, 3899, 3855, 3882, 3865, 3855, 3910, 3927, 3761, 3756, 3788, 3772, 3824, 3844, 3957, 3728, 3846, 3819, 4084, 3828, 3798, 3870, 3856, 3914, 3904, 3876, 3941, 3871, 3909, 3915, 3961, 3946, 3951, 3957, 3907, 3999, 3964, 3934, 3977, 3959, 3795, 3856, 3893, 3816, 3858, 3812, 3805, 3767, 3718, 3878, 3896, 3854, 3865, 3875, 3846, 3863, 3883, 3640, 4095, 3844, 3691, 3891, 3947, 3879, 3730, 3751, 3791, 3795, 3822, 3821, 3786, 3808, 3800, 3839, 3835, 3758, 3882, 3962, 3749, 3846, 3865, 3825, 3915, 3928, 3931, 3919, 3942, 3940, 3907, 3695, 4095, 3565, 3917, 3738, 3953, 3738, 3856, 3899, 3911, 3957, 3898, 3913, 3915, 3897, 3902, 3927, 3751, 3737, 3723, 3803, 3758, 3610, 3731, 3902, 3889, 3927, 3935, 3953, 3942, 3949, 3856, 4014, 3990, 3698, 3867, 3894, 3938, 3954, 3671, 3765, 3786, 3897, 3893, 3940, 3964, 3925, 3945, 3789, 3886, 3864, 3923, 3911, 3917, 3895, 3805, 4095, 3785, 3892, 3896, 3926, 3989, 3992, 3981, 4003, 3664, 3828, 3896, 4095, 3495, 3710, 3611, 3800, 3818, 3916, 3928, 3903, 3930, 3882, 3905, 3867, 3941, 3894, 3911, 3914, 3896, 3937, 3932, 3874, 3911, 3925, 3886, 3917, 3843, 3935, 3945, 3931, 3953, 4020, 3890, 4004, 3937, 3966],
      "WindowCenter": [770.0, 769.0, 769.0, 770.0, 771.0, 772.0, 772.0, 771.0, 773.0, 773.0, 771.0, 769.0, 768.0, 766.0, 767.0, 769.0, 771.0, 770.0, 769.0, 768.0, 768.0, 767.0, 767.0, 768.0, 767.0, 765.0, 765.0, 766.0, 767.0, 770.0, 772.0, 771.0, 770.0, 756.0, 770.0, 758.0, 750.0, 755.0, 757.0, 769.0, 766.0, 767.0, 768.0, 769.0, 770.0, 771.0, 771.0, 770.0, 763.0, 767.0, 767.0, 766.0, 767.0, 766.0, 767.0, 764.0, 767.0, 768.0, 764.0, 763.0, 765.0, 765.0, 765.0, 766.0, 765.0, 767.0, 768.0, 767.0, 768.0, 768.0, 768.0, 769.0, 768.0, 771.0, 770.0, 771.0, 771.0, 770.0, 769.0, 769.0, 765.0, 770.0, 771.0, 770.0, 769.0, 768.0, 765.0, 764.0, 761.0, 766.0, 766.0, 764.0, 764.0, 765.0, 766.0, 769.0, 771.0, 755.0, 763.0, 762.0, 760.0, 762.0, 755.0, 760.0, 759.0, 764.0, 764.0, 765.0, 766.0, 767.0, 766.0, 767.0, 768.0, 769.0, 770.0, 770.0, 771.0, 771.0, 771.0, 767.0, 766.0, 764.0, 764.0, 764.0, 765.0, 765.0, 765.0, 767.0, 769.0, 765.0, 760.0, 758.0, 766.0, 755.0, 772.0, 768.0, 769.0, 769.0, 768.0, 768.0, 768.0, 769.0, 770.0, 770.0, 770.0, 769.0, 767.0, 766.0, 765.0, 765.0, 762.0, 762.0, 758.0, 773.0, 770.0, 768.0, 768.0, 769.0, 770.0, 770.0, 768.0, 770.0, 769.0, 769.0, 772.0, 771.0, 769.0, 767.0, 762.0, 761.0, 766.0, 767.0, 767.0, 766.0, 765.0, 766.0, 768.0, 767.0, 770.0, 770.0, 770.0, 769.0, 769.0, 768.0, 761.0, 771.0, 772.0, 772.0, 768.0, 765.0, 763.0, 764.0, 766.0, 767.0, 754.0, 754.0, 746.0, 772.0, 758.0, 763.0, 759.0, 771.0, 767.0, 768.0, 767.0, 767.0, 768.0, 767.0, 768.0, 770.0, 770.0, 769.0, 768.0, 767.0, 767.0, 767.0, 767.0, 768.0, 769.0, 769.0, 769.0, 771.0, 772.0, 772.0, 771.0, 768.0, 766.0, 768.0, 768.0, 770.0, 769.0, 770.0],
      "WindowWidth": [1680.0, 1675.0, 1676.0, 1678.0, 1681.0, 1686.0, 1684.0, 1684.0, 1688.0, 1687.0, 1683.0, 1675.0, 1673.0, 1669.0, 1671.0, 1678.0, 1682.0, 1680.0, 1676.0, 1673.0, 1673.0, 1672.0, 1670.0, 1673.0, 1670.0, 1667.0, 1666.0, 1668.0, 1670.0, 1679.0, 1685.0, 1684.0, 1679.0, 1641.0, 1680.0, 1646.0, 1624.0, 1638.0, 1643.0, 1677.0, 1667.0, 1670.0, 1673.0, 1676.0, 1680.0, 1681.0, 1682.0, 1680.0, 1661.0, 1670.0, 1670.0, 1668.0, 1670.0, 1668.0, 1670.0, 1661.0, 1671.0, 1673.0, 1663.0, 1660.0, 1665.0, 1663.0, 1664.0, 1667.0, 1667.0, 1672.0, 1675.0, 1672.0, 1674.0, 1674.0, 1676.0, 1677.0, 1674.0, 1683.0, 1680.0, 1682.0, 1683.0, 1680.0, 1678.0, 1678.0, 1667.0, 1681.0, 1683.0, 1678.0, 1678.0, 1674.0, 1666.0, 1661.0, 1653.0, 1669.0, 1667.0, 1661.0, 1661.0, 1665.0, 1668.0, 1677.0, 1683.0, 1642.0, 1667.0, 1659.0, 1653.0, 1660.0, 1640.0, 1653.0, 1653.0, 1662.0, 1663.0, 1666.0, 1669.0, 1671.0, 1669.0, 1672.0, 1673.0, 1676.0, 1681.0, 1679.0, 1683.0, 1683.0, 1682.0, 1671.0, 1668.0, 1663.0, 1662.0, 1662.0, 1665.0, 1665.0, 1664.0, 1670.0, 1676.0, 1667.0, 1653.0, 1645.0, 1667.0, 1638.0, 1686.0, 1673.0, 1675.0, 1678.0, 1674.0, 1674.0, 1675.0, 1678.0, 1681.0, 1681.0, 1681.0, 1678.0, 1672.0, 1668.0, 1665.0, 1664.0, 1658.0, 1657.0, 1647.0, 1687.0, 1678.0, 1674.0, 1673.0, 1676.0, 1678.0, 1679.0, 1673.0, 1679.0, 1677.0, 1677.0, 1686.0, 1681.0, 1678.0, 1672.0, 1658.0, 1654.0, 1668.0, 1670.0, 1671.0, 1667.0, 1666.0, 1668.0, 1674.0, 1671.0, 1679.0, 1680.0, 1679.0, 1675.0, 1675.0, 1674.0, 1655.0, 1682.0, 1683.0, 1686.0, 1672.0, 1664.0, 1660.0, 1661.0, 1668.0, 1669.0, 1633.0, 1635.0, 1615.0, 1689.0, 1646.0, 1660.0, 1647.0, 1681.0, 1671.0, 1672.0, 1671.0, 1671.0, 1674.0, 1670.0, 1674.0, 1678.0, 1679.0, 1677.0, 1675.0, 1670.0, 1671.0, 1671.0, 1671.0, 1674.0, 1678.0, 1676.0, 1676.0, 1682.0, 1685.0, 1685.0, 1682.0, 1674.0, 1668.0, 1672.0, 1674.0, 1680.0, 1677.0, 1679.0]
    },
    "slices": {}
  }
}