{
  "AcquisitionMatrixPE": 100,
  "AcquisitionNumber": 1,
  "AcquisitionTime": "11:52:55.207500",
  "BandwidthPerPixelPhaseEncode": 18.519,
  "BaseResolution": 100,
  "BodyPartExamined": "BRAIN",
  "ConsistencyInfo": "N4_VE11C_LATEST_20160120",
  "ConversionSoftware": "dcm2niix",
  "ConversionSoftwareVersion": "v1.0.20180622 GCC4.9.2",
  "DerivedVendorReportedEchoSpacing": 0.000539986,
  "DeviceSerialNumber": "166078",
  "DwellTime": 2.1e-06,
  "EchoTime": 0.034,
  "EchoTrainLength": 100,
  "EffectiveEchoSpacing": 0.000539986,
  "FlipAngle": 90,
  "ImageOrientationPatientDICOM": [1, 0, 0, 0, 1, 0],
  "ImageType": [
    "ORIGINAL",
    "PRIMARY",
    "M",
    "ND",
    "MOSAIC"
],
  "InPlanePhaseEncodingDirectionDICOM": "COL",
  "InstitutionAddress": "Street_StreetNo_Bei_Jing_District_CN_ZIP",
  "InstitutionName": "BeiJing_Normal_University",
  "InstitutionalDepartmentName": "Department",
  "MRAcquisitionType": "2D",
  "MagneticFieldStrength": 3,
  "Manufacturer": "Siemens",
  "ManufacturersModelName": "Prisma",
  "Modality": "MR",
  "MultibandAccelerationFactor": 3,
  "PartialFourier": 1,
  "PatientPosition": "HFS",
  "PercentPhaseFOV": 100,
  "PhaseEncodingDirection": "j-",
  "PhaseEncodingSteps": 100,
  "PhaseResolution": 1,
  "PixelBandwidth": 2380,
  "ProcedureStepDescription": "BNU_P2018_64CH_Liu.Jia",
  "ProtocolName": "bold_100x100_s3_2x2x2_232",
  "PulseSequenceDetails": "%SiemensSeq%_ep2d_bold",
  "ReceiveCoilActiveElements": "HC1-7;NC1",
  "ReceiveCoilName": "HeadNeck_64",
  "ReconMatrixPE": 100,
  "RepetitionTime": 2,
  "SAR": 0.0633884,
  "ScanOptions": "FS",
  "ScanningSequence": "EP",
  "SequenceName": "_epfid2d1_100",
  "SequenceVariant": "SK",
  "SeriesDescription": "bold_100x100_s3_2x2x2_232",
  "SeriesNumber": 4,
  "ShimSetting": [-5478, -11529, -1243, 371, 0, -415, -93, 46],
  "SliceThickness": 2,
  "SliceTiming": [1.485, 0, 0.99, 0.0825, 1.0725, 0.165, 1.155, 0.2475, 1.2375, 0.33, 1.32, 0.4125, 1.4025, 0.5775, 1.5675, 0.66, 1.65, 0.7425, 1.7325, 0.825, 1.815, 0.9075, 1.8975, 0.495, 1.485, 0, 0.99, 0.0825, 1.0725, 0.165, 1.155, 0.2475, 1.2375, 0.33, 1.32, 0.4125, 1.4025, 0.5775, 1.5675, 0.66, 1.65, 0.7425, 1.7325, 0.825, 1.815, 0.9075, 1.8975, 0.495, 1.485, 0, 0.99, 0.0825, 1.0725, 0.165, 1.155, 0.2475, 1.2375, 0.33, 1.32, 0.4125, 1.4025, 0.5775, 1.5675, 0.66, 1.65, 0.7425, 1.7325, 0.825, 1.815, 0.9075, 1.8975, 0.495],
  "SoftwareVersions": "syngo_MR_E11",
  "SpacingBetweenSlices": 2,
  "StationName": "AWP166078",
  "TaskName": "motor",
  "TotalReadoutTime": 0.0534586,
  "TxRefAmp": 219.635,
  "dcmmeta_affine": [
    [-2.0, 0.0, 0.0, 100.0],
    [0.0, 2.0, 0.0, -96.63614654541016],
    [0.0, 0.0, 2.0, -51.2602424621582],
    [0.0, 0.0, 0.0, 1.0]
],
  "dcmmeta_reorient_transform": [
    [0.0, -1.0, 0.0, 99.0],
    [1.0, 0.0, 0.0, 0.0],
    [0.0, 0.0, 1.0, 0.0],
    [0.0, 0.0, 0.0, 1.0]
],
  "dcmmeta_shape": [100, 100, 72, 232],
  "dcmmeta_slice_dim": 2,
  "dcmmeta_version": 0.6,
  "global": {
    "const": {
      "AcquisitionMatrix": [100, 0, 0, 100],
      "AngioFlag": "N",
      "BitsAllocated": 16,
      "BitsStored": 12,
      "BodyPartExamined": "BRAIN",
      "Columns": 900,
      "EchoNumbers": 1,
      "EchoTime": 34.0,
      "EchoTrainLength": 100,
      "FlipAngle": 90.0,
      "HighBit": 11,
      "ImageOrientationPatient": [1.0, 0.0, 0.0, 0.0, 1.0, 0.0],
      "ImagePositionPatient": [-900.0, -901.36385548115, -51.260242462158],
      "ImageType": [
        "ORIGINAL",
        "PRIMARY",
        "M",
        "ND",
        "MOSAIC"
],
      "ImagedNucleus": "1H",
      "ImagingFrequency": 123.257799,
      "InPlanePhaseEncodingDirection": "COL",
      "MRAcquisitionType": "2D",
      "MagneticFieldStrength": 3.0,
      "Manufacturer": "SIEMENS",
      "ManufacturerModelName": "Prisma",
      "Modality": "MR",
      "NumberOfAverages": 1.0,
      "NumberOfPhaseEncodingSteps": 100,
      "PercentPhaseFieldOfView": 100.0,
      "PercentSampling": 100.0,
      "PerformedProcedureStepStartTime": "113925.915000",
      "PhotometricInterpretation": "MONOCHROME2",
      "PixelBandwidth": 2380.0,
      "PixelRepresentation": 0,
      "PixelSpacing": [2.0, 2.0],
      "ProtocolName": "bold_100x100_s3_2x2x2_232",
      "RepetitionTime": 2000.0,
      "Rows": 900,
      "SAR": 0.06338837791192,
      "SamplesPerPixel": 1,
      "ScanOptions": "FS",
      "ScanningSequence": "EP",
      "SequenceName": "*epfid2d1_100",
      "SequenceVariant": "SK",
      "SeriesDescription": "bold_100x100_s3_2x2x2_232",
      "SeriesNumber": 4,
      "SeriesTime": "115257.368000",
      "SliceLocation": -51.260242462158,
      "SliceThickness": 2.0,
      "SmallestImagePixelValue": 0,
      "SoftwareVersions": "syngo MR E11",
      "SpacingBetweenSlices": 2.0000000537281,
      "SpecificCharacterSet": "ISO_IR 100",
      "StudyID": "1",
      "StudyTime": "113925.799000",
      "TransmitCoilName": "Body",
      "VariableFlipAngleFlag": "N",
      "WindowCenterWidthExplanation": "Algo1",
      "dBdt": 0.0},
    "slices": {}
  },
  "time": {
    "samples": {
      "AcquisitionNumber": [1, 2, 3, 4, 5, 6, 7, 8, 9, 10, 11, 12, 13, 14, 15, 16, 17, 18, 19, 20, 21, 22, 23, 24, 25, 26, 27, 28, 29, 30, 31, 32, 33, 34, 35, 36, 37, 38, 39, 40, 41, 42, 43, 44, 45, 46, 47, 48, 49, 50, 51, 52, 53, 54, 55, 56, 57, 58, 59, 60, 61, 62, 63, 64, 65, 66, 67, 68, 69, 70, 71, 72, 73, 74, 75, 76, 77, 78, 79, 80, 81, 82, 83, 84, 85, 86, 87, 88, 89, 90, 91, 92, 93, 94, 95, 96, 97, 98, 99, 100, 101, 102, 103, 104, 105, 106, 107, 108, 109, 110, 111, 112, 113, 114, 115, 116, 117, 118, 119, 120, 121, 122, 123, 124, 125, 126, 127, 128, 129, 130, 131, 132, 133, 134, 135, 136, 137, 138, 139, 140, 141, 142, 143, 144, 145, 146, 147, 148, 149, 150, 151, 152, 153, 154, 155, 156, 157, 158, 159, 160, 161, 162, 163, 164, 165, 166, 167, 168, 169, 170, 171, 172, 173, 174, 175, 176, 177, 178, 179, 180, 181, 182, 183, 184, 185, 186, 187, 188, 189, 190, 191, 192, 193, 194, 195, 196, 197, 198, 199, 200, 201, 202, 203, 204, 205, 206, 207, 208, 209, 210, 211, 212, 213, 214, 215, 216, 217, 218, 219, 220, 221, 222, 223, 224, 225, 226, 227, 228, 229, 230, 231, 232],
      "AcquisitionTime": ["115255.207500", "115257.207500", "115259.207500", "115301.207500", "115303.207500", "115305.207500", "115307.207500", "115309.207500", "115311.207500", "115313.207500", "115315.207500", "115317.207500", "115319.207500", "115321.207500", "115323.207500", "115325.207500", "115327.207500", "115329.207500", "115331.207500", "115333.207500", "115335.207500", "115337.207500", "115339.207500", "115341.207500", "115343.207500", "115345.207500", "115347.207500", "115349.207500", "115351.207500", "115353.207500", "115355.207500", "115357.207500", "115359.207500", "115401.207500", "115403.207500", "115405.207500", "115407.207500", "115409.207500", "115411.207500", "115413.207500", "115415.207500", "115417.207500", "115419.207500", "115421.207500", "115423.207500", "115425.207500", "115427.207500", "115429.207500", "115431.207500", "115433.207500", "115435.207500", "115437.207500", "115439.207500", "115441.207500", "115443.207500", "115445.207500", "115447.207500", "115449.207500", "115451.207500", "115453.207500", "115455.207500", "115457.207500", "115459.207500", "115501.207500", "115503.207500", "115505.207500", "115507.207500", "115509.207500", "115511.207500", "115513.207500", "115515.207500", "115517.207500", "115519.207500", "115521.207500", "115523.207500", "115525.207500", "115527.207500", "115529.207500", "115531.207500", "115533.207500", "115535.207500", "115537.207500", "115539.207500", "115541.207500", "115543.207500", "115545.207500", "115547.207500", "115549.207500", "115551.207500", "115553.207500", "115555.207500", "115557.207500", "115559.207500", "115601.207500", "115603.207500", "115605.207500", "115607.207500", "115609.207500", "115611.207500", "115613.207500", "115615.207500", "115617.207500", "115619.207500", "115621.207500", "115623.207500", "115625.207500", "115627.207500", "115629.207500", "115631.207500", "115633.207500", "115635.207500", "115637.207500", "115639.207500", "115641.207500", "115643.207500", "115645.207500", "115647.207500", "115649.207500", "115651.207500", "115653.207500", "115655.207500", "115657.207500", "115659.207500", "115701.207500", "115703.207500", "115705.207500", "115707.207500", "115709.207500", "115711.207500", "115713.207500", "115715.207500", "115717.207500", "115719.207500", "115721.207500", "115723.207500", "115725.207500", "115727.207500", "115729.207500", "115731.207500", "115733.207500", "115735.207500", "115737.207500", "115739.207500", "115741.207500", "115743.207500", "115745.207500", "115747.207500", "115749.207500", "115751.207500", "115753.207500", "115755.207500", "115757.207500", "115759.207500", "115801.207500", "115803.207500", "115805.207500", "115807.207500", "115809.207500", "115811.207500", "115813.207500", "115815.207500", "115817.207500", "115819.207500", "115821.207500", "115823.207500", "115825.207500", "115827.207500", "115829.207500", "115831.207500", "115833.207500", "115835.207500", "115837.207500", "115839.207500", "115841.207500", "115843.207500", "115845.207500", "115847.207500", "115849.207500", "115851.207500", "115853.207500", "115855.207500", "115857.207500", "115859.207500", "115901.207500", "115903.207500", "115905.207500", "115907.207500", "115909.207500", "115911.207500", "115913.207500", "115915.207500", "115917.207500", "115919.207500", "115921.207500", "115923.207500", "115925.207500", "115927.207500", "115929.207500", "115931.207500", "115933.207500", "115935.207500", "115937.207500", "115939.207500", "115941.207500", "115943.207500", "115945.207500", "115947.207500", "115949.207500", "115951.207500", "115953.207500", "115955.207500", "115957.207500", "115959.207500", "120001.207500", "120003.207500", "120005.207500", "120007.207500", "120009.207500", "120011.207500", "120013.207500", "120015.207500", "120017.207500", "120019.207500", "120021.207500", "120023.207500", "120025.207500", "120027.207500", "120029.207500", "120031.207500", "120033.207500", "120035.207500", "120037.207500"],
      "ContentTime": ["115257.372000", "115258.868000", "115300.868000", "115302.868000", "115304.868000", "115306.868000", "115308.868000", "115310.868000", "115312.868000", "115314.868000", "115316.868000", "115318.868000", "115320.869000", "115322.868000", "115324.868000", "115326.868000", "115328.869000", "115330.868000", "115332.868000", "115334.869000", "115336.868000", "115338.868000", "115340.868000", "115342.868000", "115344.868000", "115346.868000", "115348.867000", "115350.868000", "115352.869000", "115354.868000", "115356.868000", "115358.868000", "115400.868000", "115402.868000", "115404.868000", "115406.867000", "115408.869000", "115410.868000", "115412.868000", "115414.868000", "115416.868000", "115418.868000", "115420.868000", "115422.868000", "115424.868000", "115426.868000", "115428.869000", "115430.868000", "115432.868000", "115434.868000", "115436.868000", "115438.868000", "115440.867000", "115442.868000", "115444.868000", "115446.868000", "115448.868000", "115450.869000", "115452.868000", "115454.869000", "115456.868000", "115458.867000", "115500.869000", "115502.868000", "115504.869000", "115506.869000", "115508.868000", "115510.868000", "115512.868000", "115514.868000", "115516.867000", "115518.869000", "115520.868000", "115522.869000", "115524.869000", "115526.868000", "115528.868000", "115530.868000", "115532.867000", "115534.867000", "115536.868000", "115538.868000", "115540.868000", "115542.868000", "115544.868000", "115546.868000", "115548.869000", "115550.868000", "115552.868000", "115554.868000", "115556.868000", "115558.868000", "115600.868000", "115602.868000", "115604.868000", "115606.868000", "115608.867000", "115610.869000", "115612.869000", "115614.868000", "115616.869000", "115618.868000", "115620.868000", "115622.869000", "115624.868000", "115626.867000", "115628.868000", "115630.869000", "115632.869000", "115634.869000", "115636.868000", "115638.868000", "115640.869000", "115642.867000", "115644.868000", "115646.868000", "115648.869000", "115650.869000", "115652.869000", "115654.869000", "115656.869000", "115658.869000", "115700.867000", "115702.867000", "115704.868000", "115706.869000", "115708.868000", "115710.868000", "115712.869000", "115714.868000", "115716.868000", "115718.867000", "115720.868000", "115722.869000", "115724.868000", "115726.869000", "115728.868000", "115730.868000", "115732.868000", "115734.867000", "115736.868000", "115738.869000", "115740.869000", "115742.869000", "115744.869000", "115746.869000", "115748.869000", "115750.869000", "115752.867000", "115754.867000", "115756.869000", "115758.868000", "115800.868000", "115802.868000", "115804.868000", "115806.869000", "115808.869000", "115810.868000", "115812.868000", "115814.869000", "115816.868000", "115818.869000", "115820.869000", "115822.868000", "115824.868000", "115826.868000", "115828.868000", "115830.869000", "115832.868000", "115834.868000", "115836.868000", "115838.869000", "115840.868000", "115842.869000", "115844.867000", "115846.867000", "115848.868000", "115850.869000", "115852.868000", "115854.868000", "115856.869000", "115858.868000", "115900.869000", "115902.867000", "115904.867000", "115906.868000", "115908.868000", "115910.868000", "115912.869000", "115914.868000", "115916.869000", "115918.868000", "115920.867000", "115922.867000", "115924.868000", "115926.869000", "115928.868000", "115930.868000", "115932.869000", "115934.868000", "115936.868000", "115938.867000", "115940.869000", "115942.868000", "115944.868000", "115946.869000", "115948.868000", "115950.868000", "115952.869000", "115954.867000", "115956.867000", "115958.869000", "120000.868000", "120002.869000", "120004.869000", "120006.869000", "120008.868000", "120010.868000", "120012.867000", "120014.868000", "120016.869000", "120018.869000", "120020.868000", "120022.869000", "120024.868000", "120026.869000", "120028.869000", "120030.867000", "120032.868000", "120034.869000", "120036.869000", "120038.508000"],
      "InstanceCreationTime": ["115257.372000", "115258.868000", "115300.868000", "115302.868000", "115304.868000", "115306.868000", "115308.868000", "115310.868000", "115312.868000", "115314.868000", "115316.868000", "115318.868000", "115320.869000", "115322.868000", "115324.868000", "115326.868000", "115328.869000", "115330.868000", "115332.868000", "115334.869000", "115336.868000", "115338.868000", "115340.868000", "115342.868000", "115344.868000", "115346.868000", "115348.867000", "115350.868000", "115352.869000", "115354.868000", "115356.868000", "115358.868000", "115400.868000", "115402.868000", "115404.868000", "115406.867000", "115408.869000", "115410.868000", "115412.868000", "115414.868000", "115416.868000", "115418.868000", "115420.868000", "115422.868000", "115424.868000", "115426.868000", "115428.869000", "115430.868000", "115432.868000", "115434.868000", "115436.868000", "115438.868000", "115440.867000", "115442.868000", "115444.868000", "115446.868000", "115448.868000", "115450.869000", "115452.868000", "115454.869000", "115456.868000", "115458.867000", "115500.869000", "115502.868000", "115504.869000", "115506.869000", "115508.868000", "115510.868000", "115512.868000", "115514.868000", "115516.867000", "115518.869000", "115520.868000", "115522.869000", "115524.869000", "115526.868000", "115528.868000", "115530.868000", "115532.867000", "115534.867000", "115536.868000", "115538.868000", "115540.868000", "115542.868000", "115544.868000", "115546.868000", "115548.869000", "115550.868000", "115552.868000", "115554.868000", "115556.868000", "115558.868000", "115600.868000", "115602.868000", "115604.868000", "115606.868000", "115608.867000", "115610.869000", "115612.869000", "115614.868000", "115616.869000", "115618.868000", "115620.868000", "115622.869000", "115624.868000", "115626.867000", "115628.868000", "115630.869000", "115632.869000", "115634.869000", "115636.868000", "115638.868000", "115640.869000", "115642.867000", "115644.868000", "115646.868000", "115648.869000", "115650.869000", "115652.869000", "115654.869000", "115656.869000", "115658.869000", "115700.867000", "115702.867000", "115704.868000", "115706.869000", "115708.868000", "115710.868000", "115712.869000", "115714.868000", "115716.868000", "115718.867000", "115720.868000", "115722.869000", "115724.868000", "115726.869000", "115728.868000", "115730.868000", "115732.868000", "115734.867000", "115736.868000", "115738.869000", "115740.869000", "115742.869000", "115744.869000", "115746.869000", "115748.869000", "115750.869000", "115752.867000", "115754.867000", "115756.869000", "115758.868000", "115800.868000", "115802.868000", "115804.868000", "115806.869000", "115808.869000", "115810.868000", "115812.868000", "115814.869000", "115816.868000", "115818.869000", "115820.869000", "115822.868000", "115824.868000", "115826.868000", "115828.868000", "115830.869000", "115832.868000", "115834.868000", "115836.868000", "115838.869000", "115840.868000", "115842.869000", "115844.867000", "115846.867000", "115848.868000", "115850.869000", "115852.868000", "115854.868000", "115856.869000", "115858.868000", "115900.869000", "115902.867000", "115904.867000", "115906.868000", "115908.868000", "115910.868000", "115912.869000", "115914.868000", "115916.869000", "115918.868000", "115920.867000", "115922.867000", "115924.868000", "115926.869000", "115928.868000", "115930.868000", "115932.869000", "115934.868000", "115936.868000", "115938.867000", "115940.869000", "115942.868000", "115944.868000", "115946.869000", "115948.868000", "115950.868000", "115952.869000", "115954.867000", "115956.867000", "115958.869000", "120000.868000", "120002.869000", "120004.869000", "120006.869000", "120008.868000", "120010.868000", "120012.867000", "120014.868000", "120016.869000", "120018.869000", "120020.868000", "120022.869000", "120024.868000", "120026.869000", "120028.869000", "120030.867000", "120032.868000", "120034.869000", "120036.869000", "120038.508000"],
      "InstanceNumber": [1, 2, 3, 4, 5, 6, 7, 8, 9, 10, 11, 12, 13, 14, 15, 16, 17, 18, 19, 20, 21, 22, 23, 24, 25, 26, 27, 28, 29, 30, 31, 32, 33, 34, 35, 36, 37, 38, 39, 40, 41, 42, 43, 44, 45, 46, 47, 48, 49, 50, 51, 52, 53, 54, 55, 56, 57, 58, 59, 60, 61, 62, 63, 64, 65, 66, 67, 68, 69, 70, 71, 72, 73, 74, 75, 76, 77, 78, 79, 80, 81, 82, 83, 84, 85, 86, 87, 88, 89, 90, 91, 92, 93, 94, 95, 96, 97, 98, 99, 100, 101, 102, 103, 104, 105, 106, 107, 108, 109, 110, 111, 112, 113, 114, 115, 116, 117, 118, 119, 120, 121, 122, 123, 124, 125, 126, 127, 128, 129, 130, 131, 132, 133, 134, 135, 136, 137, 138, 139, 140, 141, 142, 143, 144, 145, 146, 147, 148, 149, 150, 151, 152, 153, 154, 155, 156, 157, 158, 159, 160, 161, 162, 163, 164, 165, 166, 167, 168, 169, 170, 171, 172, 173, 174, 175, 176, 177, 178, 179, 180, 181, 182, 183, 184, 185, 186, 187, 188, 189, 190, 191, 192, 193, 194, 195, 196, 197, 198, 199, 200, 201, 202, 203, 204, 205, 206, 207, 208, 209, 210, 211, 212, 213, 214, 215, 216, 217, 218, 219, 220, 221, 222, 223, 224, 225, 226, 227, 228, 229, 230, 231, 232],
      "LargestImagePixelValue": [3864, 3845, 3833, 3873, 3819, 3834, 3842, 3856, 3884, 3896, 3899, 3838, 3805, 3828, 3798, 3852, 3839, 3973, 3894, 3780, 3773, 3997, 3704, 3780, 3794, 3650, 3779, 3795, 3867, 3856, 3831, 3873, 3862, 3900, 3926, 3930, 3921, 3924, 3943, 3925, 3934, 3952, 3754, 3779, 3789, 3799, 3794, 3816, 3991, 3887, 3889, 3947, 3934, 3915, 3910, 3870, 3863, 3889, 3892, 3926, 3904, 3888, 3908, 3916, 3902, 3949, 3909, 3897, 3917, 3938, 3920, 3958, 3919, 3922, 3935, 3899, 3876, 3903, 3914, 3900, 3927, 3911, 3926, 3890, 3943, 3941, 3920, 3945, 3957, 3897, 3883, 3869, 3900, 3907, 3887, 3849, 3888, 3850, 3986, 3743, 3966, 3542, 4095, 3793, 3669, 3854, 3872, 3808, 3886, 3865, 3869, 3892, 3839, 3880, 3892, 3889, 3905, 3894, 3911, 3916, 3917, 3925, 3924, 3948, 3947, 3934, 3933, 3958, 3925, 4063, 3958, 3947, 3951, 3608, 3673, 4058, 3888, 3733, 3659, 3707, 3672, 3645, 3681, 3877, 4000, 3907, 3908, 3914, 3929, 3944, 3928, 3939, 3923, 3930, 3867, 3902, 3919, 3938, 3924, 3929, 3965, 3923, 3919, 3963, 3927, 3915, 3931, 3932, 3950, 3949, 3895, 3901, 3917, 3918, 3938, 3905, 3848, 3963, 3908, 3901, 3916, 3924, 3927, 3928, 3932, 3969, 3940, 3950, 3927, 3935, 3912, 3865, 3848, 3910, 3918, 3886, 3963, 3956, 3965, 3934, 3925, 3905, 3917, 3842, 3867, 3868, 3841, 3797, 3902, 3920, 3676, 4095, 3879, 3618, 4078, 3703, 3857, 3849, 3900, 3937, 3940, 3909, 3909, 3874, 3910, 3998, 3942, 3862, 3955, 3907, 3946, 3905],
      "WindowCenter": [766.0, 764.0, 763.0, 764.0, 763.0, 763.0, 762.0, 763.0, 764.0, 765.0, 766.0, 765.0, 764.0, 763.0, 763.0, 764.0, 764.0, 766.0, 762.0, 763.0, 758.0, 763.0, 757.0, 764.0, 762.0, 762.0, 762.0, 763.0, 762.0, 764.0, 763.0, 763.0, 762.0, 763.0, 764.0, 765.0, 764.0, 762.0, 762.0, 764.0, 764.0, 768.0, 767.0, 766.0, 765.0, 766.0, 766.0, 766.0, 765.0, 763.0, 764.0, 765.0, 766.0, 766.0, 766.0, 766.0, 767.0, 768.0, 768.0, 770.0, 769.0, 767.0, 765.0, 764.0, 763.0, 763.0, 762.0, 762.0, 763.0, 764.0, 765.0, 765.0, 765.0, 765.0, 766.0, 766.0, 765.0, 765.0, 765.0, 765.0, 766.0, 766.0, 765.0, 764.0, 764.0, 765.0, 765.0, 765.0, 765.0, 765.0, 765.0, 766.0, 765.0, 765.0, 764.0, 764.0, 764.0, 764.0, 765.0, 760.0, 762.0, 760.0, 761.0, 761.0, 760.0, 762.0, 764.0, 764.0, 764.0, 763.0, 763.0, 764.0, 763.0, 765.0, 766.0, 766.0, 765.0, 764.0, 764.0, 765.0, 765.0, 765.0, 764.0, 764.0, 765.0, 765.0, 766.0, 766.0, 764.0, 762.0, 764.0, 760.0, 759.0, 758.0, 758.0, 758.0, 768.0, 761.0, 762.0, 764.0, 763.0, 762.0, 762.0, 762.0, 765.0, 764.0, 764.0, 764.0, 762.0, 762.0, 763.0, 765.0, 766.0, 766.0, 765.0, 766.0, 766.0, 766.0, 766.0, 765.0, 765.0, 764.0, 764.0, 765.0, 765.0, 765.0, 765.0, 765.0, 766.0, 766.0, 765.0, 765.0, 765.0, 766.0, 767.0, 765.0, 764.0, 765.0, 765.0, 764.0, 763.0, 760.0, 758.0, 760.0, 763.0, 765.0, 766.0, 766.0, 767.0, 767.0, 767.0, 765.0, 765.0, 766.0, 767.0, 766.0, 766.0, 766.0, 766.0, 766.0, 767.0, 767.0, 767.0, 766.0, 766.0, 765.0, 766.0, 765.0, 764.0, 759.0, 751.0, 756.0, 760.0, 758.0, 759.0, 756.0, 767.0, 766.0, 766.0, 766.0, 765.0, 766.0, 766.0, 765.0, 764.0, 764.0, 766.0, 765.0, 766.0, 767.0, 768.0, 767.0],
      "WindowWidth": [1672.0, 1666.0, 1663.0, 1665.0, 1663.0, 1662.0, 1660.0, 1662.0, 1664.0, 1667.0, 1670.0, 1669.0, 1665.0, 1663.0, 1663.0, 1665.0, 1666.0, 1673.0, 1660.0, 1662.0, 1650.0, 1663.0, 1645.0, 1666.0, 1660.0, 1658.0, 1660.0, 1663.0, 1661.0, 1665.0, 1663.0, 1661.0, 1659.0, 1661.0, 1666.0, 1666.0, 1664.0, 1658.0, 1658.0, 1664.0, 1666.0, 1676.0, 1672.0, 1670.0, 1667.0, 1670.0, 1671.0, 1671.0, 1667.0, 1663.0, 1664.0, 1667.0, 1670.0, 1671.0, 1670.0, 1671.0, 1674.0, 1675.0, 1678.0, 1681.0, 1679.0, 1673.0, 1667.0, 1665.0, 1662.0, 1661.0, 1660.0, 1659.0, 1662.0, 1664.0, 1666.0, 1667.0, 1667.0, 1668.0, 1669.0, 1669.0, 1667.0, 1667.0, 1667.0, 1669.0, 1671.0, 1672.0, 1669.0, 1665.0, 1665.0, 1668.0, 1668.0, 1668.0, 1669.0, 1667.0, 1669.0, 1669.0, 1669.0, 1666.0, 1664.0, 1663.0, 1666.0, 1665.0, 1669.0, 1655.0, 1659.0, 1653.0, 1657.0, 1657.0, 1652.0, 1659.0, 1663.0, 1663.0, 1664.0, 1660.0, 1662.0, 1665.0, 1662.0, 1669.0, 1670.0, 1669.0, 1669.0, 1666.0, 1665.0, 1668.0, 1667.0, 1666.0, 1665.0, 1664.0, 1667.0, 1668.0, 1669.0, 1669.0, 1664.0, 1660.0, 1666.0, 1654.0, 1651.0, 1649.0, 1647.0, 1651.0, 1676.0, 1656.0, 1659.0, 1663.0, 1662.0, 1659.0, 1658.0, 1658.0, 1667.0, 1665.0, 1666.0, 1663.0, 1660.0, 1659.0, 1662.0, 1666.0, 1669.0, 1670.0, 1667.0, 1669.0, 1670.0, 1670.0, 1669.0, 1666.0, 1668.0, 1666.0, 1666.0, 1667.0, 1667.0, 1666.0, 1668.0, 1668.0, 1669.0, 1670.0, 1667.0, 1668.0, 1666.0, 1670.0, 1672.0, 1668.0, 1663.0, 1668.0, 1667.0, 1664.0, 1661.0, 1651.0, 1648.0, 1652.0, 1660.0, 1667.0, 1670.0, 1671.0, 1672.0, 1674.0, 1673.0, 1667.0, 1667.0, 1669.0, 1671.0, 1668.0, 1669.0, 1670.0, 1670.0, 1671.0, 1672.0, 1672.0, 1672.0, 1670.0, 1670.0, 1669.0, 1669.0, 1667.0, 1665.0, 1651.0, 1630.0, 1648.0, 1653.0, 1648.0, 1651.0, 1643.0, 1671.0, 1668.0, 1670.0, 1670.0, 1668.0, 1669.0, 1669.0, 1666.0, 1665.0, 1667.0, 1670.0, 1669.0, 1671.0, 1672.0, 1675.0, 1672.0]
    },
    "slices": {}
  }
}