{
  "AcquisitionMatrixPE": 100,
  "AcquisitionNumber": 1,
  "AcquisitionTime": "12:22:45.507500",
  "BandwidthPerPixelPhaseEncode": 18.519,
  "BaseResolution": 100,
  "BodyPartExamined": "BRAIN",
  "ConsistencyInfo": "N4_VE11C_LATEST_20160120",
  "ConversionSoftware": "dcm2niix",
  "ConversionSoftwareVersion": "v1.0.20180622 GCC4.9.2",
  "DerivedVendorReportedEchoSpacing": 0.000539986,
  "DeviceSerialNumber": "166078",
  "DwellTime": 2.1e-06,
  "EchoTime": 0.034,
  "EchoTrainLength": 100,
  "EffectiveEchoSpacing": 0.000539986,
  "FlipAngle": 90,
  "ImageOrientationPatientDICOM": [1, 0, 0, 0, 1, 0],
  "ImageType": [
    "ORIGINAL",
    "PRIMARY",
    "M",
    "ND",
    "MOSAIC"
],
  "InPlanePhaseEncodingDirectionDICOM": "COL",
  "InstitutionAddress": "Street_StreetNo_Bei_Jing_District_CN_ZIP",
  "InstitutionName": "BeiJing_Normal_University",
  "InstitutionalDepartmentName": "Department",
  "MRAcquisitionType": "2D",
  "MagneticFieldStrength": 3,
  "Manufacturer": "Siemens",
  "ManufacturersModelName": "Prisma",
  "Modality": "MR",
  "MultibandAccelerationFactor": 3,
  "PartialFourier": 1,
  "PatientPosition": "HFS",
  "PercentPhaseFOV": 100,
  "PhaseEncodingDirection": "j-",
  "PhaseEncodingSteps": 100,
  "PhaseResolution": 1,
  "PixelBandwidth": 2380,
  "ProcedureStepDescription": "BNU_P2018_64CH_Liu.Jia",
  "ProtocolName": "bold_100x100_s3_2x2x2_232",
  "PulseSequenceDetails": "%SiemensSeq%_ep2d_bold",
  "ReceiveCoilActiveElements": "HC1-7;NC1",
  "ReceiveCoilName": "HeadNeck_64",
  "ReconMatrixPE": 100,
  "RepetitionTime": 2,
  "SAR": 0.0633884,
  "ScanOptions": "FS",
  "ScanningSequence": "EP",
  "SequenceName": "_epfid2d1_100",
  "SequenceVariant": "SK",
  "SeriesDescription": "bold_100x100_s3_2x2x2_232",
  "SeriesNumber": 9,
  "ShimSetting": [-5478, -11529, -1243, 371, 0, -415, -93, 46],
  "SliceThickness": 2,
  "SliceTiming": [1.485, 0, 0.99, 0.0825, 1.0725, 0.165, 1.155, 0.2475, 1.2375, 0.33, 1.32, 0.4125, 1.4025, 0.5775, 1.5675, 0.66, 1.65, 0.7425, 1.7325, 0.825, 1.815, 0.9075, 1.8975, 0.495, 1.485, 0, 0.99, 0.0825, 1.0725, 0.165, 1.155, 0.2475, 1.2375, 0.33, 1.32, 0.4125, 1.4025, 0.5775, 1.5675, 0.66, 1.65, 0.7425, 1.7325, 0.825, 1.815, 0.9075, 1.8975, 0.495, 1.485, 0, 0.99, 0.0825, 1.0725, 0.165, 1.155, 0.2475, 1.2375, 0.33, 1.32, 0.4125, 1.4025, 0.5775, 1.5675, 0.66, 1.65, 0.7425, 1.7325, 0.825, 1.815, 0.9075, 1.8975, 0.495],
  "SoftwareVersions": "syngo_MR_E11",
  "SpacingBetweenSlices": 2,
  "StationName": "AWP166078",
  "TaskName": "motor",
  "TotalReadoutTime": 0.0534586,
  "TxRefAmp": 219.635,
  "dcmmeta_affine": [
    [-2.0, 0.0, 0.0, 100.0],
    [0.0, 2.0, 0.0, -96.63614654541016],
    [0.0, 0.0, 2.0, -51.2602424621582],
    [0.0, 0.0, 0.0, 1.0]
],
  "dcmmeta_reorient_transform": [
    [0.0, -1.0, 0.0, 99.0],
    [1.0, 0.0, 0.0, 0.0],
    [0.0, 0.0, 1.0, 0.0],
    [0.0, 0.0, 0.0, 1.0]
],
  "dcmmeta_shape": [100, 100, 72, 232],
  "dcmmeta_slice_dim": 2,
  "dcmmeta_version": 0.6,
  "global": {
    "const": {
      "AcquisitionMatrix": [100, 0, 0, 100],
      "AngioFlag": "N",
      "BitsAllocated": 16,
      "BitsStored": 12,
      "BodyPartExamined": "BRAIN",
      "Columns": 900,
      "EchoNumbers": 1,
      "EchoTime": 34.0,
      "EchoTrainLength": 100,
      "FlipAngle": 90.0,
      "HighBit": 11,
      "ImageOrientationPatient": [1.0, 0.0, 0.0, 0.0, 1.0, 0.0],
      "ImagePositionPatient": [-900.0, -901.36385548115, -51.260242462158],
      "ImageType": [
        "ORIGINAL",
        "PRIMARY",
        "M",
        "ND",
        "MOSAIC"
],
      "ImagedNucleus": "1H",
      "ImagingFrequency": 123.257806,
      "InPlanePhaseEncodingDirection": "COL",
      "MRAcquisitionType": "2D",
      "MagneticFieldStrength": 3.0,
      "Manufacturer": "SIEMENS",
      "ManufacturerModelName": "Prisma",
      "Modality": "MR",
      "NumberOfAverages": 1.0,
      "NumberOfPhaseEncodingSteps": 100,
      "PercentPhaseFieldOfView": 100.0,
      "PercentSampling": 100.0,
      "PerformedProcedureStepStartTime": "113925.915000",
      "PhotometricInterpretation": "MONOCHROME2",
      "PixelBandwidth": 2380.0,
      "PixelRepresentation": 0,
      "PixelSpacing": [2.0, 2.0],
      "ProtocolName": "bold_100x100_s3_2x2x2_232",
      "RepetitionTime": 2000.0,
      "Rows": 900,
      "SAR": 0.06338837791192,
      "SamplesPerPixel": 1,
      "ScanOptions": "FS",
      "ScanningSequence": "EP",
      "SequenceName": "*epfid2d1_100",
      "SequenceVariant": "SK",
      "SeriesDescription": "bold_100x100_s3_2x2x2_232",
      "SeriesNumber": 9,
      "SeriesTime": "122248.310000",
      "SliceLocation": -51.260242462158,
      "SliceThickness": 2.0,
      "SmallestImagePixelValue": 0,
      "SoftwareVersions": "syngo MR E11",
      "SpacingBetweenSlices": 2.0000000537281,
      "SpecificCharacterSet": "ISO_IR 100",
      "StudyID": "1",
      "StudyTime": "113925.799000",
      "TransmitCoilName": "Body",
      "VariableFlipAngleFlag": "N",
      "WindowCenterWidthExplanation": "Algo1",
      "dBdt": 0.0},
    "slices": {}
  },
  "time": {
    "samples": {
      "AcquisitionNumber": [1, 2, 3, 4, 5, 6, 7, 8, 9, 10, 11, 12, 13, 14, 15, 16, 17, 18, 19, 20, 21, 22, 23, 24, 25, 26, 27, 28, 29, 30, 31, 32, 33, 34, 35, 36, 37, 38, 39, 40, 41, 42, 43, 44, 45, 46, 47, 48, 49, 50, 51, 52, 53, 54, 55, 56, 57, 58, 59, 60, 61, 62, 63, 64, 65, 66, 67, 68, 69, 70, 71, 72, 73, 74, 75, 76, 77, 78, 79, 80, 81, 82, 83, 84, 85, 86, 87, 88, 89, 90, 91, 92, 93, 94, 95, 96, 97, 98, 99, 100, 101, 102, 103, 104, 105, 106, 107, 108, 109, 110, 111, 112, 113, 114, 115, 116, 117, 118, 119, 120, 121, 122, 123, 124, 125, 126, 127, 128, 129, 130, 131, 132, 133, 134, 135, 136, 137, 138, 139, 140, 141, 142, 143, 144, 145, 146, 147, 148, 149, 150, 151, 152, 153, 154, 155, 156, 157, 158, 159, 160, 161, 162, 163, 164, 165, 166, 167, 168, 169, 170, 171, 172, 173, 174, 175, 176, 177, 178, 179, 180, 181, 182, 183, 184, 185, 186, 187, 188, 189, 190, 191, 192, 193, 194, 195, 196, 197, 198, 199, 200, 201, 202, 203, 204, 205, 206, 207, 208, 209, 210, 211, 212, 213, 214, 215, 216, 217, 218, 219, 220, 221, 222, 223, 224, 225, 226, 227, 228, 229, 230, 231, 232],
      "AcquisitionTime": ["122245.507500", "122247.507500", "122249.507500", "122251.507500", "122253.507500", "122255.507500", "122257.507500", "122259.507500", "122301.507500", "122303.507500", "122305.507500", "122307.507500", "122309.507500", "122311.507500", "122313.507500", "122315.507500", "122317.507500", "122319.507500", "122321.507500", "122323.507500", "122325.507500", "122327.507500", "122329.507500", "122331.507500", "122333.507500", "122335.507500", "122337.507500", "122339.507500", "122341.507500", "122343.507500", "122345.507500", "122347.507500", "122349.507500", "122351.507500", "122353.507500", "122355.507500", "122357.507500", "122359.507500", "122401.507500", "122403.507500", "122405.507500", "122407.507500", "122409.507500", "122411.507500", "122413.507500", "122415.507500", "122417.507500", "122419.507500", "122421.507500", "122423.507500", "122425.507500", "122427.507500", "122429.507500", "122431.507500", "122433.507500", "122435.507500", "122437.507500", "122439.507500", "122441.507500", "122443.507500", "122445.507500", "122447.507500", "122449.507500", "122451.507500", "122453.507500", "122455.507500", "122457.507500", "122459.507500", "122501.507500", "122503.507500", "122505.507500", "122507.507500", "122509.507500", "122511.507500", "122513.507500", "122515.507500", "122517.507500", "122519.507500", "122521.507500", "122523.507500", "122525.507500", "122527.507500", "122529.507500", "122531.507500", "122533.507500", "122535.507500", "122537.507500", "122539.507500", "122541.507500", "122543.507500", "122545.507500", "122547.507500", "122549.507500", "122551.507500", "122553.507500", "122555.507500", "122557.507500", "122559.507500", "122601.507500", "122603.507500", "122605.507500", "122607.507500", "122609.507500", "122611.507500", "122613.507500", "122615.507500", "122617.507500", "122619.507500", "122621.507500", "122623.507500", "122625.507500", "122627.507500", "122629.507500", "122631.507500", "122633.507500", "122635.507500", "122637.507500", "122639.507500", "122641.507500", "122643.507500", "122645.507500", "122647.507500", "122649.507500", "122651.507500", "122653.507500", "122655.507500", "122657.507500", "122659.507500", "122701.507500", "122703.507500", "122705.507500", "122707.507500", "122709.507500", "122711.507500", "122713.507500", "122715.507500", "122717.507500", "122719.507500", "122721.507500", "122723.507500", "122725.507500", "122727.507500", "122729.507500", "122731.507500", "122733.507500", "122735.507500", "122737.507500", "122739.507500", "122741.507500", "122743.507500", "122745.507500", "122747.507500", "122749.507500", "122751.507500", "122753.507500", "122755.507500", "122757.507500", "122759.507500", "122801.507500", "122803.507500", "122805.507500", "122807.507500", "122809.507500", "122811.507500", "122813.507500", "122815.507500", "122817.507500", "122819.507500", "122821.507500", "122823.507500", "122825.507500", "122827.507500", "122829.507500", "122831.507500", "122833.507500", "122835.507500", "122837.507500", "122839.507500", "122841.507500", "122843.507500", "122845.507500", "122847.507500", "122849.507500", "122851.507500", "122853.507500", "122855.507500", "122857.507500", "122859.507500", "122901.507500", "122903.507500", "122905.507500", "122907.507500", "122909.507500", "122911.507500", "122913.507500", "122915.507500", "122917.507500", "122919.507500", "122921.507500", "122923.507500", "122925.507500", "122927.507500", "122929.507500", "122931.507500", "122933.507500", "122935.507500", "122937.507500", "122939.507500", "122941.507500", "122943.507500", "122945.507500", "122947.507500", "122949.507500", "122951.507500", "122953.507500", "122955.507500", "122957.507500", "122959.507500", "123001.507500", "123003.507500", "123005.507500", "123007.507500", "123009.507500", "123011.507500", "123013.507500", "123015.507500", "123017.507500", "123019.507500", "123021.507500", "123023.507500", "123025.507500", "123027.507500"],
      "ContentTime": ["122248.314000", "122249.809000", "122252.309000", "122254.308000", "122256.308000", "122258.308000", "122259.809000", "122302.310000", "122303.809000", "122305.809000", "122307.809000", "122310.309000", "122311.808000", "122313.808000", "122316.308000", "122318.310000", "122320.309000", "122322.310000", "122324.309000", "122326.310000", "122328.310000", "122330.308000", "122331.808000", "122333.808000", "122335.809000", "122338.309000", "122340.310000", "122341.809000", "122343.809000", "122346.309000", "122348.309000", "122350.309000", "122351.809000", "122354.309000", "122355.809000", "122357.809000", "122400.309000", "122401.809000", "122404.309000", "122405.808000", "122408.309000", "122409.809000", "122412.310000", "122413.809000", "122416.309000", "122418.310000", "122419.809000", "122422.309000", "122424.309000", "122426.309000", "122427.809000", "122429.809000", "122432.309000", "122433.809000", "122436.309000", "122438.310000", "122439.808000", "122441.808000", "122444.309000", "122446.310000", "122447.810000", "122449.810000", "122452.310000", "122453.809000", "122456.309000", "122457.808000", "122459.808000", "122502.309000", "122504.309000", "122506.309000", "122508.310000", "122509.809000", "122512.309000", "122514.309000", "122516.308000", "122518.309000", "122519.809000", "122522.309000", "122524.310000", "122525.810000", "122527.809000", "122530.309000", "122531.809000", "122534.308000", "122536.308000", "122538.309000", "122539.809000", "122542.310000", "122544.310000", "122546.309000", "122547.809000", "122549.808000", "122551.808000", "122553.809000", "122556.309000", "122557.810000", "122600.309000", "122602.309000", "122604.310000", "122605.809000", "122608.309000", "122610.308000", "122611.809000", "122613.809000", "122616.309000", "122618.309000", "122620.309000", "122622.310000", "122624.308000", "122625.809000", "122627.808000", "122629.809000", "122632.309000", "122633.809000", "122636.309000", "122638.309000", "122640.310000", "122641.808000", "122644.308000", "122646.308000", "122647.809000", "122650.309000", "122652.310000", "122654.309000", "122655.810000", "122658.310000", "122700.309000", "122702.309000", "122703.808000", "122705.809000", "122708.310000", "122710.309000", "122711.810000", "122714.310000", "122716.310000", "122718.309000", "122720.308000", "122721.829000", "122724.310000", "122726.311000", "122728.312000", "122729.809000", "122732.309000", "122734.309000", "122735.809000", "122738.309000", "122739.809000", "122742.310000", "122743.809000", "122746.309000", "122748.310000", "122750.309000", "122752.309000", "122753.808000", "122755.808000", "122757.809000", "122800.309000", "122802.310000", "122804.310000", "122806.310000", "122808.309000", "122809.829000", "122811.808000", "122814.309000", "122816.309000", "122818.310000", "122820.310000", "122822.310000", "122823.809000", "122826.309000", "122828.308000", "122829.809000", "122831.809000", "122834.309000", "122836.309000", "122837.810000", "122840.309000", "122842.310000", "122843.810000", "122845.808000", "122847.809000", "122849.809000", "122851.810000", "122854.309000", "122855.809000", "122858.309000", "122859.809000", "122901.808000", "122903.808000", "122905.809000", "122908.310000", "122910.310000", "122912.309000", "122914.310000", "122916.309000", "122918.310000", "122920.309000", "122921.809000", "122924.310000", "122926.310000", "122927.809000", "122929.810000", "122931.809000", "122934.309000", "122936.309000", "122937.809000", "122940.308000", "122941.810000", "122943.809000", "122945.810000", "122948.309000", "122950.309000", "122951.809000", "122953.810000", "122955.809000", "122957.808000", "122959.809000", "123002.309000", "123004.310000", "123006.310000", "123008.309000", "123009.810000", "123011.808000", "123014.309000", "123016.309000", "123017.809000", "123020.309000", "123022.309000", "123024.310000", "123026.310000", "123028.310000", "123029.797000"],
      "InstanceCreationTime": ["122248.314000", "122249.809000", "122252.309000", "122254.308000", "122256.308000", "122258.308000", "122259.809000", "122302.310000", "122303.809000", "122305.809000", "122307.809000", "122310.309000", "122311.808000", "122313.808000", "122316.308000", "122318.310000", "122320.309000", "122322.310000", "122324.309000", "122326.310000", "122328.310000", "122330.308000", "122331.808000", "122333.808000", "122335.809000", "122338.309000", "122340.310000", "122341.809000", "122343.809000", "122346.309000", "122348.309000", "122350.309000", "122351.809000", "122354.309000", "122355.809000", "122357.809000", "122400.309000", "122401.809000", "122404.309000", "122405.808000", "122408.309000", "122409.809000", "122412.310000", "122413.809000", "122416.309000", "122418.310000", "122419.809000", "122422.309000", "122424.309000", "122426.309000", "122427.809000", "122429.809000", "122432.309000", "122433.809000", "122436.309000", "122438.310000", "122439.808000", "122441.808000", "122444.309000", "122446.310000", "122447.810000", "122449.810000", "122452.310000", "122453.809000", "122456.309000", "122457.808000", "122459.808000", "122502.309000", "122504.309000", "122506.309000", "122508.310000", "122509.809000", "122512.309000", "122514.309000", "122516.308000", "122518.309000", "122519.809000", "122522.309000", "122524.310000", "122525.810000", "122527.809000", "122530.309000", "122531.809000", "122534.308000", "122536.308000", "122538.309000", "122539.809000", "122542.310000", "122544.310000", "122546.309000", "122547.809000", "122549.808000", "122551.808000", "122553.809000", "122556.309000", "122557.810000", "122600.309000", "122602.309000", "122604.310000", "122605.809000", "122608.309000", "122610.308000", "122611.809000", "122613.809000", "122616.309000", "122618.309000", "122620.309000", "122622.310000", "122624.308000", "122625.809000", "122627.808000", "122629.809000", "122632.309000", "122633.809000", "122636.309000", "122638.309000", "122640.310000", "122641.808000", "122644.308000", "122646.308000", "122647.809000", "122650.309000", "122652.310000", "122654.309000", "122655.810000", "122658.310000", "122700.309000", "122702.309000", "122703.808000", "122705.809000", "122708.310000", "122710.309000", "122711.810000", "122714.310000", "122716.310000", "122718.309000", "122720.308000", "122721.829000", "122724.310000", "122726.311000", "122728.312000", "122729.809000", "122732.309000", "122734.309000", "122735.809000", "122738.309000", "122739.809000", "122742.310000", "122743.809000", "122746.309000", "122748.310000", "122750.309000", "122752.309000", "122753.808000", "122755.808000", "122757.809000", "122800.309000", "122802.310000", "122804.310000", "122806.310000", "122808.309000", "122809.829000", "122811.808000", "122814.309000", "122816.309000", "122818.310000", "122820.310000", "122822.310000", "122823.809000", "122826.309000", "122828.308000", "122829.809000", "122831.809000", "122834.309000", "122836.309000", "122837.810000", "122840.309000", "122842.310000", "122843.810000", "122845.808000", "122847.809000", "122849.809000", "122851.810000", "122854.309000", "122855.809000", "122858.309000", "122859.809000", "122901.808000", "122903.808000", "122905.809000", "122908.310000", "122910.310000", "122912.309000", "122914.310000", "122916.309000", "122918.310000", "122920.309000", "122921.809000", "122924.310000", "122926.310000", "122927.809000", "122929.810000", "122931.809000", "122934.309000", "122936.309000", "122937.809000", "122940.308000", "122941.810000", "122943.809000", "122945.810000", "122948.309000", "122950.309000", "122951.809000", "122953.810000", "122955.809000", "122957.808000", "122959.809000", "123002.309000", "123004.310000", "123006.310000", "123008.309000", "123009.810000", "123011.808000", "123014.309000", "123016.309000", "123017.809000", "123020.309000", "123022.309000", "123024.310000", "123026.310000", "123028.310000", "123029.797000"],
      "InstanceNumber": [1, 2, 3, 4, 5, 6, 7, 8, 9, 10, 11, 12, 13, 14, 15, 16, 17, 18, 19, 20, 21, 22, 23, 24, 25, 26, 27, 28, 29, 30, 31, 32, 33, 34, 35, 36, 37, 38, 39, 40, 41, 42, 43, 44, 45, 46, 47, 48, 49, 50, 51, 52, 53, 54, 55, 56, 57, 58, 59, 60, 61, 62, 63, 64, 65, 66, 67, 68, 69, 70, 71, 72, 73, 74, 75, 76, 77, 78, 79, 80, 81, 82, 83, 84, 85, 86, 87, 88, 89, 90, 91, 92, 93, 94, 95, 96, 97, 98, 99, 100, 101, 102, 103, 104, 105, 106, 107, 108, 109, 110, 111, 112, 113, 114, 115, 116, 117, 118, 119, 120, 121, 122, 123, 124, 125, 126, 127, 128, 129, 130, 131, 132, 133, 134, 135, 136, 137, 138, 139, 140, 141, 142, 143, 144, 145, 146, 147, 148, 149, 150, 151, 152, 153, 154, 155, 156, 157, 158, 159, 160, 161, 162, 163, 164, 165, 166, 167, 168, 169, 170, 171, 172, 173, 174, 175, 176, 177, 178, 179, 180, 181, 182, 183, 184, 185, 186, 187, 188, 189, 190, 191, 192, 193, 194, 195, 196, 197, 198, 199, 200, 201, 202, 203, 204, 205, 206, 207, 208, 209, 210, 211, 212, 213, 214, 215, 216, 217, 218, 219, 220, 221, 222, 223, 224, 225, 226, 227, 228, 229, 230, 231, 232],
      "LargestImagePixelValue": [3833, 3753, 3738, 3764, 3709, 3732, 3745, 3732, 3841, 3735, 3679, 3961, 3618, 3637, 3899, 3725, 3974, 3744, 3835, 3823, 3831, 3824, 3842, 3808, 3748, 3666, 3715, 3725, 3685, 3737, 3730, 3736, 3754, 3768, 3744, 3763, 3720, 3758, 3740, 3742, 3747, 3803, 3804, 3716, 3795, 3755, 3763, 3775, 3810, 3812, 3786, 3788, 3803, 3802, 3798, 3792, 3779, 3780, 3743, 3786, 3767, 3765, 4049, 3809, 3782, 3714, 3744, 3798, 3785, 3794, 3814, 3759, 3790, 3799, 3771, 3826, 3846, 3793, 3771, 3538, 3738, 3726, 3890, 3812, 3860, 3835, 3794, 3801, 3813, 3825, 3826, 3729, 3799, 3793, 3772, 3794, 3809, 3875, 3708, 3804, 3875, 3794, 3834, 3904, 3835, 3726, 3582, 3980, 3465, 3658, 4036, 3864, 3592, 4072, 3792, 3793, 3792, 3786, 3775, 3830, 3793, 3740, 3961, 3774, 3648, 3860, 3857, 3566, 3852, 3892, 3917, 3831, 3831, 3854, 3855, 3831, 3845, 3836, 3774, 3820, 3791, 3874, 3813, 3844, 3795, 3836, 3880, 3796, 3860, 3769, 3762, 3821, 3809, 3925, 3863, 3811, 3788, 3839, 3817, 3857, 3722, 3772, 3737, 3749, 3768, 3797, 3818, 3758, 3864, 3717, 3823, 3742, 3911, 3797, 3742, 3814, 3911, 3938, 3836, 3861, 3816, 3863, 3789, 3791, 3815, 3800, 3857, 3831, 3824, 3853, 3884, 3838, 3871, 3831, 3834, 3867, 3878, 3868, 3863, 3851, 3835, 3822, 3862, 3808, 3822, 3819, 3852, 3813, 3815, 3851, 3861, 3828, 3821, 3859, 3840, 3765, 3851, 3768, 4031, 3750, 3740, 3662, 4095, 4095, 3802, 3825, 3840, 3892, 3840, 3813, 3818, 3802],
      "WindowCenter": [771.0, 770.0, 769.0, 769.0, 768.0, 769.0, 770.0, 770.0, 770.0, 768.0, 753.0, 758.0, 763.0, 755.0, 756.0, 754.0, 772.0, 767.0, 768.0, 769.0, 770.0, 768.0, 768.0, 768.0, 769.0, 768.0, 769.0, 767.0, 766.0, 766.0, 767.0, 768.0, 769.0, 769.0, 769.0, 770.0, 769.0, 768.0, 768.0, 769.0, 770.0, 769.0, 769.0, 768.0, 769.0, 770.0, 771.0, 771.0, 769.0, 770.0, 769.0, 768.0, 768.0, 769.0, 769.0, 771.0, 771.0, 769.0, 767.0, 767.0, 767.0, 766.0, 767.0, 762.0, 771.0, 769.0, 768.0, 765.0, 761.0, 760.0, 762.0, 764.0, 767.0, 769.0, 767.0, 768.0, 766.0, 767.0, 764.0, 760.0, 766.0, 766.0, 766.0, 766.0, 766.0, 768.0, 769.0, 770.0, 770.0, 771.0, 770.0, 769.0, 770.0, 772.0, 771.0, 768.0, 767.0, 768.0, 769.0, 772.0, 772.0, 770.0, 773.0, 775.0, 771.0, 769.0, 751.0, 759.0, 753.0, 753.0, 769.0, 766.0, 759.0, 773.0, 769.0, 769.0, 767.0, 767.0, 767.0, 768.0, 768.0, 765.0, 767.0, 765.0, 765.0, 766.0, 762.0, 760.0, 761.0, 771.0, 773.0, 772.0, 771.0, 771.0, 772.0, 772.0, 768.0, 771.0, 770.0, 771.0, 770.0, 771.0, 771.0, 771.0, 769.0, 769.0, 770.0, 770.0, 767.0, 766.0, 765.0, 763.0, 763.0, 767.0, 766.0, 767.0, 767.0, 766.0, 765.0, 763.0, 761.0, 764.0, 766.0, 765.0, 765.0, 766.0, 767.0, 768.0, 765.0, 760.0, 769.0, 766.0, 772.0, 766.0, 760.0, 761.0, 762.0, 765.0, 768.0, 770.0, 771.0, 772.0, 771.0, 771.0, 772.0, 772.0, 773.0, 772.0, 772.0, 772.0, 773.0, 773.0, 773.0, 772.0, 774.0, 775.0, 774.0, 772.0, 771.0, 771.0, 771.0, 771.0, 771.0, 770.0, 769.0, 771.0, 772.0, 771.0, 770.0, 769.0, 770.0, 771.0, 771.0, 771.0, 769.0, 767.0, 770.0, 766.0, 770.0, 762.0, 764.0, 766.0, 759.0, 769.0, 768.0, 769.0, 771.0, 774.0, 772.0, 769.0, 768.0, 769.0],
      "WindowWidth": [1684.0, 1679.0, 1677.0, 1675.0, 1674.0, 1676.0, 1678.0, 1678.0, 1679.0, 1674.0, 1632.0, 1645.0, 1659.0, 1638.0, 1640.0, 1635.0, 1687.0, 1671.0, 1674.0, 1677.0, 1678.0, 1675.0, 1674.0, 1674.0, 1675.0, 1674.0, 1676.0, 1671.0, 1668.0, 1668.0, 1671.0, 1674.0, 1676.0, 1676.0, 1677.0, 1679.0, 1675.0, 1673.0, 1674.0, 1675.0, 1678.0, 1677.0, 1677.0, 1673.0, 1677.0, 1679.0, 1681.0, 1681.0, 1677.0, 1678.0, 1676.0, 1674.0, 1675.0, 1675.0, 1677.0, 1682.0, 1681.0, 1678.0, 1671.0, 1670.0, 1671.0, 1667.0, 1672.0, 1656.0, 1683.0, 1677.0, 1672.0, 1664.0, 1653.0, 1652.0, 1656.0, 1663.0, 1672.0, 1677.0, 1672.0, 1674.0, 1670.0, 1670.0, 1663.0, 1651.0, 1668.0, 1669.0, 1670.0, 1668.0, 1668.0, 1674.0, 1677.0, 1681.0, 1681.0, 1682.0, 1680.0, 1676.0, 1681.0, 1685.0, 1682.0, 1675.0, 1670.0, 1675.0, 1678.0, 1684.0, 1684.0, 1681.0, 1687.0, 1693.0, 1684.0, 1677.0, 1629.0, 1652.0, 1636.0, 1635.0, 1680.0, 1669.0, 1650.0, 1690.0, 1679.0, 1677.0, 1672.0, 1672.0, 1672.0, 1674.0, 1674.0, 1669.0, 1672.0, 1666.0, 1665.0, 1667.0, 1658.0, 1653.0, 1655.0, 1682.0, 1687.0, 1685.0, 1683.0, 1683.0, 1684.0, 1686.0, 1676.0, 1682.0, 1681.0, 1682.0, 1680.0, 1682.0, 1684.0, 1683.0, 1677.0, 1678.0, 1680.0, 1680.0, 1670.0, 1668.0, 1665.0, 1659.0, 1660.0, 1670.0, 1669.0, 1672.0, 1671.0, 1670.0, 1666.0, 1660.0, 1653.0, 1663.0, 1668.0, 1666.0, 1665.0, 1666.0, 1671.0, 1673.0, 1667.0, 1650.0, 1678.0, 1668.0, 1685.0, 1670.0, 1654.0, 1654.0, 1659.0, 1668.0, 1673.0, 1679.0, 1684.0, 1686.0, 1682.0, 1683.0, 1685.0, 1684.0, 1687.0, 1686.0, 1686.0, 1686.0, 1687.0, 1689.0, 1688.0, 1687.0, 1690.0, 1693.0, 1691.0, 1686.0, 1683.0, 1683.0, 1682.0, 1683.0, 1682.0, 1679.0, 1678.0, 1682.0, 1686.0, 1683.0, 1679.0, 1678.0, 1680.0, 1684.0, 1684.0, 1682.0, 1678.0, 1673.0, 1679.0, 1670.0, 1682.0, 1657.0, 1664.0, 1670.0, 1652.0, 1680.0, 1674.0, 1676.0, 1682.0, 1692.0, 1686.0, 1677.0, 1674.0, 1676.0]
    },
    "slices": {}
  }
}