{
  "AcquisitionMatrixPE": 100,
  "AcquisitionNumber": 1,
  "AcquisitionTime": "10:38:54.877500",
  "BandwidthPerPixelPhaseEncode": 18.519,
  "BaseResolution": 100,
  "BodyPartExamined": "BRAIN",
  "ConsistencyInfo": "N4_VE11C_LATEST_20160120",
  "ConversionSoftware": "dcm2niix",
  "ConversionSoftwareVersion": "v1.0.20180622 GCC4.9.2",
  "DerivedVendorReportedEchoSpacing": 0.000539986,
  "DeviceSerialNumber": "166078",
  "DwellTime": 2.1e-06,
  "EchoTime": 0.034,
  "EchoTrainLength": 100,
  "EffectiveEchoSpacing": 0.000539986,
  "FlipAngle": 90,
  "ImageOrientationPatientDICOM": [1, -1.63768e-05, -0.000447376, -2.65271e-08, 0.999328, -0.036641],
  "ImageType": [
    "ORIGINAL",
    "PRIMARY",
    "M",
    "ND",
    "MOSAIC"
],
  "InPlanePhaseEncodingDirectionDICOM": "COL",
  "InstitutionAddress": "Street_StreetNo_Bei_Jing_District_CN_ZIP",
  "InstitutionName": "BeiJing_Normal_University",
  "InstitutionalDepartmentName": "Department",
  "MRAcquisitionType": "2D",
  "MagneticFieldStrength": 3,
  "Manufacturer": "Siemens",
  "ManufacturersModelName": "Prisma",
  "Modality": "MR",
  "MultibandAccelerationFactor": 3,
  "PartialFourier": 1,
  "PatientPosition": "HFS",
  "PercentPhaseFOV": 100,
  "PhaseEncodingDirection": "j-",
  "PhaseEncodingSteps": 100,
  "PhaseResolution": 1,
  "PixelBandwidth": 2380,
  "ProcedureStepDescription": "BNU_P2018_64CH_Liu.Jia",
  "ProtocolName": "bold_100x100_s3_2x2x2_232",
  "PulseSequenceDetails": "%SiemensSeq%_ep2d_bold",
  "ReceiveCoilActiveElements": "HC1-7;NC1",
  "ReceiveCoilName": "HeadNeck_64",
  "ReconMatrixPE": 100,
  "RepetitionTime": 2,
  "SAR": 0.0625936,
  "ScanOptions": "FS",
  "ScanningSequence": "EP",
  "SequenceName": "_epfid2d1_100",
  "SequenceVariant": "SK",
  "SeriesDescription": "bold_100x100_s3_2x2x2_232",
  "SeriesNumber": 4,
  "ShimSetting": [-5475, -11526, -1249, 500, 11, -218, -140, 38],
  "SliceThickness": 2,
  "SliceTiming": [1.485, 0, 0.99, 0.0825, 1.0725, 0.165, 1.155, 0.2475, 1.2375, 0.33, 1.32, 0.4125, 1.4025, 0.5775, 1.5675, 0.66, 1.65, 0.7425, 1.7325, 0.825, 1.815, 0.9075, 1.8975, 0.495, 1.485, 0, 0.99, 0.0825, 1.0725, 0.165, 1.155, 0.2475, 1.2375, 0.33, 1.32, 0.4125, 1.4025, 0.5775, 1.5675, 0.66, 1.65, 0.7425, 1.7325, 0.825, 1.815, 0.9075, 1.8975, 0.495, 1.485, 0, 0.99, 0.0825, 1.0725, 0.165, 1.155, 0.2475, 1.2375, 0.33, 1.32, 0.4125, 1.4025, 0.5775, 1.5675, 0.66, 1.65, 0.7425, 1.7325, 0.825, 1.815, 0.9075, 1.8975, 0.495],
  "SoftwareVersions": "syngo_MR_E11",
  "SpacingBetweenSlices": 2,
  "StationName": "AWP166078",
  "TaskName": "motor",
  "TotalReadoutTime": 0.0534586,
  "TxRefAmp": 208.322,
  "dcmmeta_affine": [
    [-1.999999761581421, -5.3054108661854116e-08, -0.0008953509968705475, 102.65521240234375],
    [3.275351627962664e-05, 1.998656988143921, -0.07328194379806519, -91.50253295898438],
    [-0.0008947516907937825, 0.07328195124864578, 1.9986567497253418, -62.16103744506836],
    [0.0, 0.0, 0.0, 1.0]
],
  "dcmmeta_reorient_transform": [
    [0.0, -1.0, 0.0, 99.0],
    [1.0, 0.0, 0.0, 0.0],
    [0.0, 0.0, 1.0, 0.0],
    [0.0, 0.0, 0.0, 1.0]
],
  "dcmmeta_shape": [100, 100, 72, 232],
  "dcmmeta_slice_dim": 2,
  "dcmmeta_version": 0.6,
  "global": {
    "const": {
      "AcquisitionMatrix": [100, 0, 0, 100],
      "AngioFlag": "N",
      "BitsAllocated": 16,
      "BitsStored": 12,
      "BodyPartExamined": "BRAIN",
      "Columns": 900,
      "EchoNumbers": 1,
      "EchoTime": 34.0,
      "EchoTrainLength": 100,
      "FlipAngle": 90.0,
      "HighBit": 11,
      "ImageOrientationPatient": [0.99999989979332, -1.63767579e-05, -0.0004473758543, -2.6527055e-08, 0.99932849398494, -0.0366409758302],
      "ImagePositionPatient": [-902.65510334877, -905.81420027743, -25.235443200723],
      "ImageType": [
        "ORIGINAL",
        "PRIMARY",
        "M",
        "ND",
        "MOSAIC"
],
      "ImagedNucleus": "1H",
      "ImagingFrequency": 123.257828,
      "InPlanePhaseEncodingDirection": "COL",
      "MRAcquisitionType": "2D",
      "MagneticFieldStrength": 3.0,
      "Manufacturer": "SIEMENS",
      "ManufacturerModelName": "Prisma",
      "Modality": "MR",
      "NumberOfAverages": 1.0,
      "NumberOfPhaseEncodingSteps": 100,
      "PercentPhaseFieldOfView": 100.0,
      "PercentSampling": 100.0,
      "PerformedProcedureStepStartTime": "102710.486000",
      "PhotometricInterpretation": "MONOCHROME2",
      "PixelBandwidth": 2380.0,
      "PixelRepresentation": 0,
      "PixelSpacing": [2.0, 2.0],
      "ProtocolName": "bold_100x100_s3_2x2x2_232",
      "RepetitionTime": 2000.0,
      "Rows": 900,
      "SAR": 0.06259359086091,
      "SamplesPerPixel": 1,
      "ScanOptions": "FS",
      "ScanningSequence": "EP",
      "SequenceName": "*epfid2d1_100",
      "SequenceVariant": "SK",
      "SeriesDescription": "bold_100x100_s3_2x2x2_232",
      "SeriesNumber": 4,
      "SeriesTime": "103856.968000",
      "SliceLocation": -58.812504399607,
      "SliceThickness": 2.0,
      "SmallestImagePixelValue": 0,
      "SoftwareVersions": "syngo MR E11",
      "SpacingBetweenSlices": 2.0000000092372,
      "SpecificCharacterSet": "ISO_IR 100",
      "StudyID": "1",
      "StudyTime": "102710.424000",
      "TransmitCoilName": "Body",
      "VariableFlipAngleFlag": "N",
      "WindowCenterWidthExplanation": "Algo1",
      "dBdt": 0.0},
    "slices": {}
  },
  "time": {
    "samples": {
      "AcquisitionNumber": [1, 2, 3, 4, 5, 6, 7, 8, 9, 10, 11, 12, 13, 14, 15, 16, 17, 18, 19, 20, 21, 22, 23, 24, 25, 26, 27, 28, 29, 30, 31, 32, 33, 34, 35, 36, 37, 38, 39, 40, 41, 42, 43, 44, 45, 46, 47, 48, 49, 50, 51, 52, 53, 54, 55, 56, 57, 58, 59, 60, 61, 62, 63, 64, 65, 66, 67, 68, 69, 70, 71, 72, 73, 74, 75, 76, 77, 78, 79, 80, 81, 82, 83, 84, 85, 86, 87, 88, 89, 90, 91, 92, 93, 94, 95, 96, 97, 98, 99, 100, 101, 102, 103, 104, 105, 106, 107, 108, 109, 110, 111, 112, 113, 114, 115, 116, 117, 118, 119, 120, 121, 122, 123, 124, 125, 126, 127, 128, 129, 130, 131, 132, 133, 134, 135, 136, 137, 138, 139, 140, 141, 142, 143, 144, 145, 146, 147, 148, 149, 150, 151, 152, 153, 154, 155, 156, 157, 158, 159, 160, 161, 162, 163, 164, 165, 166, 167, 168, 169, 170, 171, 172, 173, 174, 175, 176, 177, 178, 179, 180, 181, 182, 183, 184, 185, 186, 187, 188, 189, 190, 191, 192, 193, 194, 195, 196, 197, 198, 199, 200, 201, 202, 203, 204, 205, 206, 207, 208, 209, 210, 211, 212, 213, 214, 215, 216, 217, 218, 219, 220, 221, 222, 223, 224, 225, 226, 227, 228, 229, 230, 231, 232],
      "AcquisitionTime": ["103854.877500", "103856.877500", "103858.877500", "103900.877500", "103902.877500", "103904.877500", "103906.877500", "103908.877500", "103910.877500", "103912.877500", "103914.877500", "103916.877500", "103918.877500", "103920.877500", "103922.877500", "103924.877500", "103926.877500", "103928.877500", "103930.877500", "103932.877500", "103934.877500", "103936.877500", "103938.877500", "103940.877500", "103942.877500", "103944.877500", "103946.877500", "103948.877500", "103950.877500", "103952.877500", "103954.877500", "103956.877500", "103958.877500", "104000.877500", "104002.877500", "104004.877500", "104006.877500", "104008.877500", "104010.877500", "104012.877500", "104014.877500", "104016.877500", "104018.877500", "104020.877500", "104022.877500", "104024.877500", "104026.877500", "104028.877500", "104030.877500", "104032.877500", "104034.877500", "104036.877500", "104038.877500", "104040.877500", "104042.877500", "104044.877500", "104046.877500", "104048.877500", "104050.877500", "104052.877500", "104054.877500", "104056.877500", "104058.877500", "104100.877500", "104102.877500", "104104.877500", "104106.877500", "104108.877500", "104110.877500", "104112.877500", "104114.877500", "104116.877500", "104118.877500", "104120.877500", "104122.877500", "104124.877500", "104126.877500", "104128.877500", "104130.877500", "104132.877500", "104134.877500", "104136.877500", "104138.877500", "104140.877500", "104142.877500", "104144.877500", "104146.877500", "104148.877500", "104150.877500", "104152.877500", "104154.877500", "104156.877500", "104158.877500", "104200.877500", "104202.877500", "104204.877500", "104206.877500", "104208.877500", "104210.877500", "104212.877500", "104214.877500", "104216.877500", "104218.877500", "104220.877500", "104222.877500", "104224.877500", "104226.877500", "104228.877500", "104230.877500", "104232.877500", "104234.877500", "104236.877500", "104238.877500", "104240.877500", "104242.877500", "104244.877500", "104246.877500", "104248.877500", "104250.877500", "104252.877500", "104254.877500", "104256.877500", "104258.877500", "104300.877500", "104302.877500", "104304.877500", "104306.877500", "104308.877500", "104310.877500", "104312.877500", "104314.877500", "104316.877500", "104318.877500", "104320.877500", "104322.877500", "104324.877500", "104326.877500", "104328.877500", "104330.877500", "104332.877500", "104334.877500", "104336.877500", "104338.877500", "104340.877500", "104342.877500", "104344.877500", "104346.877500", "104348.877500", "104350.877500", "104352.877500", "104354.877500", "104356.877500", "104358.877500", "104400.877500", "104402.877500", "104404.877500", "104406.877500", "104408.877500", "104410.877500", "104412.877500", "104414.877500", "104416.877500", "104418.877500", "104420.877500", "104422.877500", "104424.877500", "104426.877500", "104428.877500", "104430.877500", "104432.877500", "104434.877500", "104436.877500", "104438.877500", "104440.877500", "104442.877500", "104444.877500", "104446.877500", "104448.877500", "104450.877500", "104452.877500", "104454.877500", "104456.877500", "104458.877500", "104500.877500", "104502.877500", "104504.877500", "104506.877500", "104508.877500", "104510.877500", "104512.877500", "104514.877500", "104516.877500", "104518.877500", "104520.877500", "104522.877500", "104524.877500", "104526.877500", "104528.877500", "104530.877500", "104532.877500", "104534.877500", "104536.877500", "104538.877500", "104540.877500", "104542.877500", "104544.877500", "104546.877500", "104548.877500", "104550.877500", "104552.877500", "104554.877500", "104556.877500", "104558.877500", "104600.877500", "104602.877500", "104604.877500", "104606.877500", "104608.877500", "104610.877500", "104612.877500", "104614.877500", "104616.877500", "104618.877500", "104620.877500", "104622.877500", "104624.877500", "104626.877500", "104628.877500", "104630.877500", "104632.877500", "104634.877500", "104636.877500"],
      "ContentTime": ["103856.972000", "103858.467000", "103900.468000", "103902.468000", "103904.468000", "103906.468000", "103908.468000", "103910.468000", "103912.467000", "103914.467000", "103916.468000", "103918.469000", "103920.468000", "103922.468000", "103924.468000", "103926.468000", "103928.467000", "103930.467000", "103932.467000", "103934.468000", "103936.468000", "103938.469000", "103940.468000", "103942.469000", "103944.468000", "103946.467000", "103948.467000", "103950.467000", "103952.469000", "103954.468000", "103956.468000", "103958.468000", "104000.468000", "104002.468000", "104004.467000", "104006.467000", "104008.467000", "104010.470000", "104012.468000", "104014.468000", "104016.468000", "104018.468000", "104020.467000", "104022.467000", "104024.468000", "104026.468000", "104028.468000", "104030.469000", "104032.468000", "104034.468000", "104036.469000", "104038.467000", "104040.467000", "104042.467000", "104044.468000", "104046.468000", "104048.468000", "104050.468000", "104052.469000", "104054.468000", "104056.467000", "104058.467000", "104100.467000", "104102.468000", "104104.468000", "104106.469000", "104108.468000", "104110.468000", "104112.467000", "104114.468000", "104116.467000", "104118.467000", "104120.468000", "104122.469000", "104124.468000", "104126.469000", "104128.468000", "104130.467000", "104132.467000", "104134.467000", "104136.468000", "104138.469000", "104140.469000", "104142.469000", "104144.469000", "104146.468000", "104148.467000", "104150.468000", "104152.467000", "104154.469000", "104156.468000", "104158.468000", "104200.468000", "104202.469000", "104204.468000", "104206.467000", "104208.468000", "104210.467000", "104212.468000", "104214.468000", "104216.468000", "104218.468000", "104220.468000", "104222.468000", "104224.467000", "104226.467000", "104228.468000", "104230.468000", "104232.468000", "104234.468000", "104236.468000", "104238.468000", "104240.468000", "104242.467000", "104244.467000", "104246.468000", "104248.468000", "104250.468000", "104252.468000", "104254.468000", "104256.468000", "104258.467000", "104300.467000", "104302.467000", "104304.468000", "104306.468000", "104308.469000", "104310.468000", "104312.468000", "104314.469000", "104316.467000", "104318.467000", "104320.468000", "104322.468000", "104324.468000", "104326.468000", "104328.469000", "104330.468000", "104332.467000", "104334.468000", "104336.467000", "104338.467000", "104340.468000", "104342.468000", "104344.468000", "104346.468000", "104348.468000", "104350.468000", "104352.467000", "104354.468000", "104356.468000", "104358.468000", "104400.468000", "104402.469000", "104404.468000", "104406.469000", "104408.468000", "104410.467000", "104412.468000", "104414.468000", "104416.469000", "104418.468000", "104420.468000", "104422.469000", "104424.468000", "104426.467000", "104428.468000", "104430.467000", "104432.469000", "104434.468000", "104436.468000", "104438.468000", "104440.968000", "104442.467000", "104444.467000", "104446.467000", "104448.467000", "104450.468000", "104452.469000", "104454.469000", "104456.468000", "104458.468000", "104500.467000", "104502.467000", "104504.467000", "104506.468000", "104508.468000", "104510.469000", "104512.469000", "104514.468000", "104516.468000", "104518.467000", "104520.468000", "104522.467000", "104524.469000", "104526.468000", "104528.468000", "104530.468000", "104532.468000", "104534.468000", "104536.467000", "104538.468000", "104540.468000", "104542.468000", "104544.468000", "104546.468000", "104548.469000", "104550.469000", "104552.967000", "104554.477000", "104556.467000", "104558.467000", "104600.468000", "104602.468000", "104604.468000", "104606.468000", "104608.468000", "104610.467000", "104612.468000", "104614.467000", "104616.468000", "104618.468000", "104620.468000", "104622.469000", "104624.468000", "104626.968000", "104628.467000", "104630.467000", "104632.468000", "104634.468000", "104636.469000", "104638.314000"],
      "InstanceCreationTime": ["103856.972000", "103858.467000", "103900.468000", "103902.468000", "103904.468000", "103906.468000", "103908.468000", "103910.468000", "103912.467000", "103914.467000", "103916.468000", "103918.469000", "103920.468000", "103922.468000", "103924.468000", "103926.468000", "103928.467000", "103930.467000", "103932.467000", "103934.468000", "103936.468000", "103938.469000", "103940.468000", "103942.469000", "103944.468000", "103946.467000", "103948.467000", "103950.467000", "103952.469000", "103954.468000", "103956.468000", "103958.468000", "104000.468000", "104002.468000", "104004.467000", "104006.467000", "104008.467000", "104010.470000", "104012.468000", "104014.468000", "104016.468000", "104018.468000", "104020.467000", "104022.467000", "104024.468000", "104026.468000", "104028.468000", "104030.469000", "104032.468000", "104034.468000", "104036.469000", "104038.467000", "104040.467000", "104042.467000", "104044.468000", "104046.468000", "104048.468000", "104050.468000", "104052.469000", "104054.468000", "104056.467000", "104058.467000", "104100.467000", "104102.468000", "104104.468000", "104106.469000", "104108.468000", "104110.468000", "104112.467000", "104114.468000", "104116.467000", "104118.467000", "104120.468000", "104122.469000", "104124.468000", "104126.469000", "104128.468000", "104130.467000", "104132.467000", "104134.467000", "104136.468000", "104138.469000", "104140.469000", "104142.469000", "104144.469000", "104146.468000", "104148.467000", "104150.468000", "104152.467000", "104154.469000", "104156.468000", "104158.468000", "104200.468000", "104202.469000", "104204.468000", "104206.467000", "104208.468000", "104210.467000", "104212.468000", "104214.468000", "104216.468000", "104218.468000", "104220.468000", "104222.468000", "104224.467000", "104226.467000", "104228.468000", "104230.468000", "104232.468000", "104234.468000", "104236.468000", "104238.468000", "104240.468000", "104242.467000", "104244.467000", "104246.468000", "104248.468000", "104250.468000", "104252.468000", "104254.468000", "104256.468000", "104258.467000", "104300.467000", "104302.467000", "104304.468000", "104306.468000", "104308.469000", "104310.468000", "104312.468000", "104314.469000", "104316.467000", "104318.467000", "104320.468000", "104322.468000", "104324.468000", "104326.468000", "104328.469000", "104330.468000", "104332.467000", "104334.468000", "104336.467000", "104338.467000", "104340.468000", "104342.468000", "104344.468000", "104346.468000", "104348.468000", "104350.468000", "104352.467000", "104354.468000", "104356.468000", "104358.468000", "104400.468000", "104402.469000", "104404.468000", "104406.469000", "104408.468000", "104410.467000", "104412.468000", "104414.468000", "104416.469000", "104418.468000", "104420.468000", "104422.469000", "104424.468000", "104426.467000", "104428.468000", "104430.467000", "104432.469000", "104434.468000", "104436.468000", "104438.468000", "104440.968000", "104442.467000", "104444.467000", "104446.467000", "104448.467000", "104450.468000", "104452.469000", "104454.469000", "104456.468000", "104458.468000", "104500.467000", "104502.467000", "104504.467000", "104506.468000", "104508.468000", "104510.469000", "104512.469000", "104514.468000", "104516.468000", "104518.467000", "104520.468000", "104522.467000", "104524.469000", "104526.468000", "104528.468000", "104530.468000", "104532.468000", "104534.468000", "104536.467000", "104538.468000", "104540.468000", "104542.468000", "104544.468000", "104546.468000", "104548.469000", "104550.469000", "104552.967000", "104554.477000", "104556.467000", "104558.467000", "104600.468000", "104602.468000", "104604.468000", "104606.468000", "104608.468000", "104610.467000", "104612.468000", "104614.467000", "104616.468000", "104618.468000", "104620.468000", "104622.469000", "104624.468000", "104626.968000", "104628.467000", "104630.467000", "104632.468000", "104634.468000", "104636.469000", "104638.314000"],
      "InstanceNumber": [1, 2, 3, 4, 5, 6, 7, 8, 9, 10, 11, 12, 13, 14, 15, 16, 17, 18, 19, 20, 21, 22, 23, 24, 25, 26, 27, 28, 29, 30, 31, 32, 33, 34, 35, 36, 37, 38, 39, 40, 41, 42, 43, 44, 45, 46, 47, 48, 49, 50, 51, 52, 53, 54, 55, 56, 57, 58, 59, 60, 61, 62, 63, 64, 65, 66, 67, 68, 69, 70, 71, 72, 73, 74, 75, 76, 77, 78, 79, 80, 81, 82, 83, 84, 85, 86, 87, 88, 89, 90, 91, 92, 93, 94, 95, 96, 97, 98, 99, 100, 101, 102, 103, 104, 105, 106, 107, 108, 109, 110, 111, 112, 113, 114, 115, 116, 117, 118, 119, 120, 121, 122, 123, 124, 125, 126, 127, 128, 129, 130, 131, 132, 133, 134, 135, 136, 137, 138, 139, 140, 141, 142, 143, 144, 145, 146, 147, 148, 149, 150, 151, 152, 153, 154, 155, 156, 157, 158, 159, 160, 161, 162, 163, 164, 165, 166, 167, 168, 169, 170, 171, 172, 173, 174, 175, 176, 177, 178, 179, 180, 181, 182, 183, 184, 185, 186, 187, 188, 189, 190, 191, 192, 193, 194, 195, 196, 197, 198, 199, 200, 201, 202, 203, 204, 205, 206, 207, 208, 209, 210, 211, 212, 213, 214, 215, 216, 217, 218, 219, 220, 221, 222, 223, 224, 225, 226, 227, 228, 229, 230, 231, 232],
      "LargestImagePixelValue": [3466, 3372, 3423, 3483, 3385, 3456, 3472, 3503, 3411, 3470, 3501, 3478, 3471, 3529, 3497, 3484, 3481, 3488, 3462, 3470, 3484, 3387, 3385, 3382, 3379, 3408, 3388, 3545, 3516, 3412, 3376, 3398, 3402, 3353, 3399, 3470, 3487, 3452, 3413, 3392, 3422, 3403, 3414, 3422, 3481, 3452, 3470, 3476, 3453, 3386, 3580, 3535, 3495, 3387, 3334, 3389, 3374, 3489, 3502, 3445, 3495, 3521, 3468, 3507, 3473, 3514, 3499, 3480, 3440, 3508, 3519, 3529, 3458, 3306, 3345, 3364, 3387, 3329, 3393, 3390, 3413, 3491, 3495, 3475, 3380, 3471, 3502, 3436, 3494, 3238, 3650, 3469, 3488, 3454, 3352, 3531, 3343, 3391, 3487, 3281, 3388, 3360, 3377, 3410, 3433, 3426, 3482, 3553, 3598, 3561, 3528, 3509, 3473, 3433, 3551, 3489, 3494, 3434, 3473, 3403, 3462, 3448, 3517, 3521, 3499, 3459, 3431, 3411, 3418, 3497, 3568, 3518, 3493, 3446, 3432, 3445, 3415, 3395, 3666, 3664, 3549, 3566, 3642, 3687, 3692, 3552, 3485, 3567, 3578, 3540, 3485, 3486, 3521, 3607, 3737, 3775, 3744, 3695, 3675, 3668, 3673, 3579, 3470, 3546, 3585, 3465, 3425, 3433, 3498, 3465, 3529, 3515, 3526, 3393, 3407, 3390, 3443, 3380, 3586, 3474, 3559, 3551, 3471, 3604, 3425, 3389, 3475, 3464, 3517, 3518, 3499, 3473, 3462, 3458, 3509, 3607, 3571, 3451, 3514, 3571, 3563, 3516, 3470, 3581, 3596, 3544, 3463, 3494, 3474, 3459, 3515, 3540, 3397, 3430, 3436, 3485, 3495, 3426, 3523, 3545, 3513, 3472, 3466, 3493, 3494, 3484, 3516, 3462, 3449, 3464, 3435, 3483],
      "WindowCenter": [759.0, 757.0, 758.0, 758.0, 757.0, 757.0, 758.0, 759.0, 759.0, 759.0, 760.0, 760.0, 759.0, 758.0, 758.0, 759.0, 760.0, 761.0, 762.0, 761.0, 761.0, 760.0, 761.0, 761.0, 761.0, 762.0, 763.0, 763.0, 761.0, 759.0, 758.0, 758.0, 758.0, 758.0, 759.0, 759.0, 758.0, 757.0, 758.0, 759.0, 759.0, 759.0, 760.0, 760.0, 760.0, 760.0, 761.0, 760.0, 760.0, 758.0, 766.0, 763.0, 762.0, 758.0, 756.0, 757.0, 759.0, 760.0, 761.0, 761.0, 760.0, 759.0, 759.0, 759.0, 760.0, 762.0, 763.0, 762.0, 759.0, 758.0, 759.0, 761.0, 761.0, 760.0, 763.0, 764.0, 763.0, 762.0, 762.0, 761.0, 760.0, 761.0, 762.0, 762.0, 760.0, 760.0, 759.0, 760.0, 762.0, 759.0, 767.0, 763.0, 761.0, 759.0, 758.0, 760.0, 759.0, 758.0, 761.0, 760.0, 760.0, 758.0, 758.0, 758.0, 759.0, 759.0, 761.0, 762.0, 762.0, 761.0, 761.0, 760.0, 759.0, 760.0, 761.0, 760.0, 760.0, 759.0, 758.0, 758.0, 759.0, 760.0, 761.0, 761.0, 760.0, 759.0, 759.0, 759.0, 761.0, 763.0, 763.0, 761.0, 759.0, 758.0, 758.0, 757.0, 756.0, 753.0, 761.0, 759.0, 757.0, 750.0, 758.0, 757.0, 757.0, 758.0, 758.0, 759.0, 759.0, 758.0, 758.0, 758.0, 760.0, 763.0, 765.0, 765.0, 763.0, 762.0, 762.0, 762.0, 759.0, 760.0, 760.0, 762.0, 760.0, 758.0, 758.0, 758.0, 759.0, 760.0, 761.0, 761.0, 760.0, 758.0, 758.0, 759.0, 758.0, 755.0, 759.0, 759.0, 760.0, 755.0, 754.0, 757.0, 757.0, 756.0, 758.0, 759.0, 760.0, 760.0, 760.0, 759.0, 759.0, 760.0, 762.0, 763.0, 760.0, 759.0, 759.0, 760.0, 759.0, 759.0, 760.0, 761.0, 760.0, 758.0, 758.0, 758.0, 758.0, 758.0, 759.0, 760.0, 758.0, 759.0, 760.0, 760.0, 760.0, 760.0, 761.0, 760.0, 759.0, 758.0, 758.0, 759.0, 759.0, 759.0, 759.0, 759.0, 758.0, 757.0, 757.0, 757.0],
      "WindowWidth": [1651.0, 1645.0, 1646.0, 1648.0, 1643.0, 1645.0, 1648.0, 1651.0, 1650.0, 1651.0, 1653.0, 1653.0, 1651.0, 1648.0, 1646.0, 1649.0, 1652.0, 1655.0, 1658.0, 1657.0, 1655.0, 1655.0, 1655.0, 1655.0, 1656.0, 1659.0, 1663.0, 1663.0, 1656.0, 1649.0, 1647.0, 1647.0, 1647.0, 1646.0, 1649.0, 1650.0, 1647.0, 1645.0, 1646.0, 1650.0, 1650.0, 1649.0, 1652.0, 1651.0, 1651.0, 1653.0, 1654.0, 1652.0, 1652.0, 1648.0, 1669.0, 1662.0, 1659.0, 1646.0, 1642.0, 1644.0, 1649.0, 1651.0, 1655.0, 1654.0, 1652.0, 1649.0, 1648.0, 1650.0, 1653.0, 1657.0, 1660.0, 1657.0, 1650.0, 1646.0, 1649.0, 1654.0, 1654.0, 1653.0, 1661.0, 1664.0, 1662.0, 1657.0, 1657.0, 1655.0, 1652.0, 1654.0, 1657.0, 1657.0, 1652.0, 1651.0, 1650.0, 1651.0, 1657.0, 1651.0, 1675.0, 1662.0, 1656.0, 1650.0, 1648.0, 1652.0, 1649.0, 1647.0, 1656.0, 1653.0, 1651.0, 1647.0, 1647.0, 1648.0, 1649.0, 1650.0, 1654.0, 1658.0, 1658.0, 1655.0, 1654.0, 1652.0, 1650.0, 1651.0, 1655.0, 1652.0, 1651.0, 1649.0, 1647.0, 1646.0, 1649.0, 1650.0, 1654.0, 1654.0, 1651.0, 1649.0, 1648.0, 1650.0, 1654.0, 1659.0, 1660.0, 1654.0, 1650.0, 1647.0, 1647.0, 1644.0, 1641.0, 1633.0, 1656.0, 1649.0, 1646.0, 1627.0, 1647.0, 1645.0, 1645.0, 1646.0, 1646.0, 1650.0, 1649.0, 1647.0, 1646.0, 1646.0, 1650.0, 1661.0, 1667.0, 1666.0, 1660.0, 1659.0, 1657.0, 1656.0, 1650.0, 1651.0, 1653.0, 1657.0, 1653.0, 1646.0, 1645.0, 1647.0, 1649.0, 1651.0, 1654.0, 1655.0, 1652.0, 1646.0, 1646.0, 1647.0, 1644.0, 1637.0, 1649.0, 1648.0, 1652.0, 1639.0, 1636.0, 1645.0, 1644.0, 1639.0, 1645.0, 1648.0, 1652.0, 1652.0, 1651.0, 1649.0, 1649.0, 1653.0, 1659.0, 1660.0, 1653.0, 1648.0, 1648.0, 1651.0, 1649.0, 1648.0, 1650.0, 1654.0, 1650.0, 1646.0, 1645.0, 1645.0, 1645.0, 1646.0, 1650.0, 1651.0, 1647.0, 1649.0, 1651.0, 1651.0, 1652.0, 1651.0, 1654.0, 1652.0, 1647.0, 1645.0, 1644.0, 1647.0, 1649.0, 1648.0, 1649.0, 1649.0, 1646.0, 1643.0, 1641.0, 1642.0]
    },
    "slices": {}
  }
}