{
  "AcquisitionMatrixPE": 100,
  "AcquisitionNumber": 1,
  "AcquisitionTime": "10:29:57.202500",
  "BandwidthPerPixelPhaseEncode": 18.519,
  "BaseResolution": 100,
  "BodyPartExamined": "BRAIN",
  "ConsistencyInfo": "N4_VE11C_LATEST_20160120",
  "ConversionSoftware": "dcm2niix",
  "ConversionSoftwareVersion": "v1.0.20180622 GCC4.9.2",
  "DerivedVendorReportedEchoSpacing": 0.000539986,
  "DeviceSerialNumber": "166078",
  "DwellTime": 2.1e-06,
  "EchoTime": 0.034,
  "EchoTrainLength": 100,
  "EffectiveEchoSpacing": 0.000539986,
  "FlipAngle": 90,
  "ImageOrientationPatientDICOM": [1, -1.63768e-05, -0.000447376, -2.65271e-08, 0.999328, -0.036641],
  "ImageType": [
    "ORIGINAL",
    "PRIMARY",
    "M",
    "ND",
    "MOSAIC"
],
  "InPlanePhaseEncodingDirectionDICOM": "COL",
  "InstitutionAddress": "Street_StreetNo_Bei_Jing_District_CN_ZIP",
  "InstitutionName": "BeiJing_Normal_University",
  "InstitutionalDepartmentName": "Department",
  "MRAcquisitionType": "2D",
  "MagneticFieldStrength": 3,
  "Manufacturer": "Siemens",
  "ManufacturersModelName": "Prisma",
  "Modality": "MR",
  "MultibandAccelerationFactor": 3,
  "PartialFourier": 1,
  "PatientPosition": "HFS",
  "PercentPhaseFOV": 100,
  "PhaseEncodingDirection": "j-",
  "PhaseEncodingSteps": 100,
  "PhaseResolution": 1,
  "PixelBandwidth": 2380,
  "ProcedureStepDescription": "BNU_P2018_64CH_Liu.Jia",
  "ProtocolName": "bold_100x100_s3_2x2x2_232",
  "PulseSequenceDetails": "%SiemensSeq%_ep2d_bold",
  "ReceiveCoilActiveElements": "HC1-7;NC1",
  "ReceiveCoilName": "HeadNeck_64",
  "ReconMatrixPE": 100,
  "RepetitionTime": 2,
  "SAR": 0.0625936,
  "ScanOptions": "FS",
  "ScanningSequence": "EP",
  "SequenceName": "_epfid2d1_100",
  "SequenceVariant": "SK",
  "SeriesDescription": "bold_100x100_s3_2x2x2_232",
  "SeriesNumber": 3,
  "ShimSetting": [-5475, -11526, -1249, 500, 11, -218, -140, 38],
  "SliceThickness": 2,
  "SliceTiming": [1.485, 0, 0.99, 0.0825, 1.0725, 0.165, 1.155, 0.2475, 1.2375, 0.33, 1.32, 0.4125, 1.4025, 0.5775, 1.5675, 0.66, 1.65, 0.7425, 1.7325, 0.825, 1.815, 0.9075, 1.8975, 0.495, 1.485, 0, 0.99, 0.0825, 1.0725, 0.165, 1.155, 0.2475, 1.2375, 0.33, 1.32, 0.4125, 1.4025, 0.5775, 1.5675, 0.66, 1.65, 0.7425, 1.7325, 0.825, 1.815, 0.9075, 1.8975, 0.495, 1.485, 0, 0.99, 0.0825, 1.0725, 0.165, 1.155, 0.2475, 1.2375, 0.33, 1.32, 0.4125, 1.4025, 0.5775, 1.5675, 0.66, 1.65, 0.7425, 1.7325, 0.825, 1.815, 0.9075, 1.8975, 0.495],
  "SoftwareVersions": "syngo_MR_E11",
  "SpacingBetweenSlices": 2,
  "StationName": "AWP166078",
  "TaskName": "motor",
  "TotalReadoutTime": 0.0534586,
  "TxRefAmp": 208.322,
  "dcmmeta_affine": [
    [-1.999999761581421, -5.3054108661854116e-08, -0.0008953509968705475, 102.65521240234375],
    [3.275351627962664e-05, 1.998656988143921, -0.07328194379806519, -91.50253295898438],
    [-0.0008947516907937825, 0.07328195124864578, 1.9986567497253418, -62.16103744506836],
    [0.0, 0.0, 0.0, 1.0]
],
  "dcmmeta_reorient_transform": [
    [0.0, -1.0, 0.0, 99.0],
    [1.0, 0.0, 0.0, 0.0],
    [0.0, 0.0, 1.0, 0.0],
    [0.0, 0.0, 0.0, 1.0]
],
  "dcmmeta_shape": [100, 100, 72, 232],
  "dcmmeta_slice_dim": 2,
  "dcmmeta_version": 0.6,
  "global": {
    "const": {
      "AcquisitionMatrix": [100, 0, 0, 100],
      "AngioFlag": "N",
      "BitsAllocated": 16,
      "BitsStored": 12,
      "BodyPartExamined": "BRAIN",
      "Columns": 900,
      "EchoNumbers": 1,
      "EchoTime": 34.0,
      "EchoTrainLength": 100,
      "FlipAngle": 90.0,
      "HighBit": 11,
      "ImageOrientationPatient": [0.99999989979332, -1.63767579e-05, -0.0004473758543, -2.6527055e-08, 0.99932849398494, -0.0366409758302],
      "ImagePositionPatient": [-902.65510334877, -905.81420027743, -25.235443200723],
      "ImageType": [
        "ORIGINAL",
        "PRIMARY",
        "M",
        "ND",
        "MOSAIC"
],
      "ImagedNucleus": "1H",
      "ImagingFrequency": 123.257822,
      "InPlanePhaseEncodingDirection": "COL",
      "MRAcquisitionType": "2D",
      "MagneticFieldStrength": 3.0,
      "Manufacturer": "SIEMENS",
      "ManufacturerModelName": "Prisma",
      "Modality": "MR",
      "NumberOfAverages": 1.0,
      "NumberOfPhaseEncodingSteps": 100,
      "PercentPhaseFieldOfView": 100.0,
      "PercentSampling": 100.0,
      "PerformedProcedureStepStartTime": "102710.486000",
      "PhotometricInterpretation": "MONOCHROME2",
      "PixelBandwidth": 2380.0,
      "PixelRepresentation": 0,
      "PixelSpacing": [2.0, 2.0],
      "ProtocolName": "bold_100x100_s3_2x2x2_232",
      "RepetitionTime": 2000.0,
      "Rows": 900,
      "SAR": 0.06259359086091,
      "SamplesPerPixel": 1,
      "ScanOptions": "FS",
      "ScanningSequence": "EP",
      "SequenceName": "*epfid2d1_100",
      "SequenceVariant": "SK",
      "SeriesDescription": "bold_100x100_s3_2x2x2_232",
      "SeriesNumber": 3,
      "SeriesTime": "103000.161000",
      "SliceLocation": -58.812504399607,
      "SliceThickness": 2.0,
      "SmallestImagePixelValue": 0,
      "SoftwareVersions": "syngo MR E11",
      "SpacingBetweenSlices": 2.0000000092372,
      "SpecificCharacterSet": "ISO_IR 100",
      "StudyID": "1",
      "StudyTime": "102710.424000",
      "TransmitCoilName": "Body",
      "VariableFlipAngleFlag": "N",
      "WindowCenterWidthExplanation": "Algo1",
      "dBdt": 0.0},
    "slices": {}
  },
  "time": {
    "samples": {
      "AcquisitionNumber": [1, 2, 3, 4, 5, 6, 7, 8, 9, 10, 11, 12, 13, 14, 15, 16, 17, 18, 19, 20, 21, 22, 23, 24, 25, 26, 27, 28, 29, 30, 31, 32, 33, 34, 35, 36, 37, 38, 39, 40, 41, 42, 43, 44, 45, 46, 47, 48, 49, 50, 51, 52, 53, 54, 55, 56, 57, 58, 59, 60, 61, 62, 63, 64, 65, 66, 67, 68, 69, 70, 71, 72, 73, 74, 75, 76, 77, 78, 79, 80, 81, 82, 83, 84, 85, 86, 87, 88, 89, 90, 91, 92, 93, 94, 95, 96, 97, 98, 99, 100, 101, 102, 103, 104, 105, 106, 107, 108, 109, 110, 111, 112, 113, 114, 115, 116, 117, 118, 119, 120, 121, 122, 123, 124, 125, 126, 127, 128, 129, 130, 131, 132, 133, 134, 135, 136, 137, 138, 139, 140, 141, 142, 143, 144, 145, 146, 147, 148, 149, 150, 151, 152, 153, 154, 155, 156, 157, 158, 159, 160, 161, 162, 163, 164, 165, 166, 167, 168, 169, 170, 171, 172, 173, 174, 175, 176, 177, 178, 179, 180, 181, 182, 183, 184, 185, 186, 187, 188, 189, 190, 191, 192, 193, 194, 195, 196, 197, 198, 199, 200, 201, 202, 203, 204, 205, 206, 207, 208, 209, 210, 211, 212, 213, 214, 215, 216, 217, 218, 219, 220, 221, 222, 223, 224, 225, 226, 227, 228, 229, 230, 231, 232],
      "AcquisitionTime": ["102957.202500", "102959.202500", "103001.202500", "103003.202500", "103005.202500", "103007.202500", "103009.202500", "103011.202500", "103013.202500", "103015.202500", "103017.202500", "103019.202500", "103021.202500", "103023.202500", "103025.202500", "103027.202500", "103029.202500", "103031.202500", "103033.202500", "103035.202500", "103037.202500", "103039.202500", "103041.202500", "103043.202500", "103045.202500", "103047.202500", "103049.202500", "103051.202500", "103053.202500", "103055.202500", "103057.202500", "103059.202500", "103101.202500", "103103.202500", "103105.202500", "103107.202500", "103109.202500", "103111.202500", "103113.202500", "103115.202500", "103117.202500", "103119.202500", "103121.202500", "103123.202500", "103125.202500", "103127.202500", "103129.202500", "103131.202500", "103133.202500", "103135.202500", "103137.202500", "103139.202500", "103141.202500", "103143.202500", "103145.202500", "103147.202500", "103149.202500", "103151.202500", "103153.202500", "103155.202500", "103157.202500", "103159.202500", "103201.202500", "103203.202500", "103205.202500", "103207.202500", "103209.202500", "103211.202500", "103213.202500", "103215.202500", "103217.202500", "103219.202500", "103221.202500", "103223.202500", "103225.202500", "103227.202500", "103229.202500", "103231.202500", "103233.202500", "103235.202500", "103237.202500", "103239.202500", "103241.202500", "103243.202500", "103245.202500", "103247.202500", "103249.202500", "103251.202500", "103253.202500", "103255.202500", "103257.202500", "103259.202500", "103301.202500", "103303.202500", "103305.202500", "103307.202500", "103309.202500", "103311.202500", "103313.202500", "103315.202500", "103317.202500", "103319.202500", "103321.202500", "103323.202500", "103325.202500", "103327.202500", "103329.202500", "103331.202500", "103333.202500", "103335.202500", "103337.202500", "103339.202500", "103341.202500", "103343.202500", "103345.202500", "103347.202500", "103349.202500", "103351.202500", "103353.202500", "103355.202500", "103357.202500", "103359.202500", "103401.202500", "103403.202500", "103405.202500", "103407.202500", "103409.202500", "103411.202500", "103413.202500", "103415.202500", "103417.202500", "103419.202500", "103421.202500", "103423.202500", "103425.202500", "103427.202500", "103429.202500", "103431.202500", "103433.202500", "103435.202500", "103437.202500", "103439.202500", "103441.202500", "103443.202500", "103445.202500", "103447.202500", "103449.202500", "103451.202500", "103453.202500", "103455.202500", "103457.202500", "103459.202500", "103501.202500", "103503.202500", "103505.202500", "103507.202500", "103509.202500", "103511.202500", "103513.202500", "103515.202500", "103517.202500", "103519.202500", "103521.202500", "103523.202500", "103525.202500", "103527.202500", "103529.202500", "103531.202500", "103533.202500", "103535.202500", "103537.202500", "103539.202500", "103541.202500", "103543.202500", "103545.202500", "103547.202500", "103549.202500", "103551.202500", "103553.202500", "103555.202500", "103557.202500", "103559.202500", "103601.202500", "103603.202500", "103605.202500", "103607.202500", "103609.202500", "103611.202500", "103613.202500", "103615.202500", "103617.202500", "103619.202500", "103621.202500", "103623.202500", "103625.202500", "103627.202500", "103629.202500", "103631.202500", "103633.202500", "103635.202500", "103637.202500", "103639.202500", "103641.202500", "103643.202500", "103645.202500", "103647.202500", "103649.202500", "103651.202500", "103653.202500", "103655.202500", "103657.202500", "103659.202500", "103701.202500", "103703.202500", "103705.202500", "103707.202500", "103709.202500", "103711.202500", "103713.202500", "103715.202500", "103717.202500", "103719.202500", "103721.202500", "103723.202500", "103725.202500", "103727.202500", "103729.202500", "103731.202500", "103733.202500", "103735.202500", "103737.202500", "103739.202500"],
      "ContentTime": ["103000.165000", "103001.660000", "103003.660000", "103005.660000", "103007.661000", "103009.659000", "103011.659000", "103013.659000", "103015.660000", "103017.660000", "103019.660000", "103021.661000", "103023.661000", "103025.660000", "103027.660000", "103029.660000", "103031.660000", "103033.660000", "103035.660000", "103037.660000", "103039.660000", "103041.660000", "103043.659000", "103045.659000", "103047.660000", "103049.660000", "103051.660000", "103053.660000", "103055.660000", "103057.660000", "103059.660000", "103101.660000", "103103.659000", "103105.659000", "103107.660000", "103109.681000", "103111.661000", "103113.660000", "103115.660000", "103117.680000", "103119.659000", "103121.659000", "103123.659000", "103125.660000", "103127.660000", "103129.660000", "103131.660000", "103133.661000", "103135.660000", "103137.660000", "103139.659000", "103141.659000", "103143.660000", "103145.660000", "103147.661000", "103149.660000", "103151.660000", "103153.659000", "103155.659000", "103157.660000", "103159.660000", "103201.660000", "103203.660000", "103205.660000", "103207.660000", "103209.660000", "103211.660000", "103213.660000", "103215.659000", "103217.660000", "103219.661000", "103221.660000", "103223.660000", "103225.660000", "103227.660000", "103229.659000", "103231.659000", "103233.659000", "103235.660000", "103237.660000", "103239.661000", "103241.661000", "103243.661000", "103245.660000", "103247.660000", "103249.660000", "103251.660000", "103253.660000", "103255.660000", "103257.661000", "103259.661000", "103301.661000", "103303.659000", "103305.659000", "103307.659000", "103309.660000", "103311.661000", "103313.660000", "103315.661000", "103317.660000", "103319.660000", "103321.659000", "103323.659000", "103325.659000", "103327.660000", "103329.660000", "103331.660000", "103333.661000", "103335.661000", "103337.660000", "103339.659000", "103341.659000", "103343.659000", "103345.660000", "103347.661000", "103349.661000", "103351.660000", "103353.661000", "103355.660000", "103357.659000", "103359.659000", "103401.660000", "103403.660000", "103405.660000", "103407.660000", "103409.660000", "103411.660000", "103413.659000", "103415.660000", "103417.659000", "103419.660000", "103421.661000", "103423.661000", "103425.660000", "103427.661000", "103429.660000", "103431.659000", "103433.659000", "103435.659000", "103437.660000", "103439.660000", "103441.661000", "103443.661000", "103445.660000", "103447.660000", "103449.660000", "103451.659000", "103453.659000", "103455.660000", "103457.660000", "103459.660000", "103501.660000", "103503.660000", "103505.660000", "103507.668000", "103509.660000", "103511.660000", "103513.661000", "103515.660000", "103517.660000", "103519.660000", "103521.660000", "103523.659000", "103525.660000", "103527.659000", "103529.661000", "103531.660000", "103533.661000", "103535.662000", "103537.660000", "103539.660000", "103541.660000", "103543.659000", "103545.659000", "103547.661000", "103549.660000", "103551.661000", "103553.661000", "103555.660000", "103557.660000", "103559.659000", "103601.660000", "103603.659000", "103605.660000", "103607.660000", "103609.661000", "103611.660000", "103613.661000", "103615.661000", "103617.660000", "103619.660000", "103621.661000", "103623.661000", "103625.660000", "103627.661000", "103629.660000", "103631.660000", "103633.659000", "103635.660000", "103637.659000", "103639.660000", "103641.660000", "103643.660000", "103645.660000", "103647.660000", "103649.660000", "103651.659000", "103653.659000", "103655.659000", "103657.660000", "103659.661000", "103701.660000", "103703.660000", "103705.661000", "103707.660000", "103709.659000", "103711.660000", "103713.659000", "103715.661000", "103717.660000", "103719.660000", "103721.660000", "103723.661000", "103725.661000", "103727.660000", "103729.659000", "103731.660000", "103733.660000", "103735.660000", "103737.661000", "103739.660000", "103741.320000"],
      "InstanceCreationTime": ["103000.165000", "103001.660000", "103003.660000", "103005.660000", "103007.661000", "103009.659000", "103011.659000", "103013.659000", "103015.660000", "103017.660000", "103019.660000", "103021.661000", "103023.661000", "103025.660000", "103027.660000", "103029.660000", "103031.660000", "103033.660000", "103035.660000", "103037.660000", "103039.660000", "103041.660000", "103043.659000", "103045.659000", "103047.660000", "103049.660000", "103051.660000", "103053.660000", "103055.660000", "103057.660000", "103059.660000", "103101.660000", "103103.659000", "103105.659000", "103107.660000", "103109.681000", "103111.661000", "103113.660000", "103115.660000", "103117.680000", "103119.659000", "103121.659000", "103123.659000", "103125.660000", "103127.660000", "103129.660000", "103131.660000", "103133.661000", "103135.660000", "103137.660000", "103139.659000", "103141.659000", "103143.660000", "103145.660000", "103147.661000", "103149.660000", "103151.660000", "103153.659000", "103155.659000", "103157.660000", "103159.660000", "103201.660000", "103203.660000", "103205.660000", "103207.660000", "103209.660000", "103211.660000", "103213.660000", "103215.659000", "103217.660000", "103219.661000", "103221.660000", "103223.660000", "103225.660000", "103227.660000", "103229.659000", "103231.659000", "103233.659000", "103235.660000", "103237.660000", "103239.661000", "103241.661000", "103243.661000", "103245.660000", "103247.660000", "103249.660000", "103251.660000", "103253.660000", "103255.660000", "103257.661000", "103259.661000", "103301.661000", "103303.659000", "103305.659000", "103307.659000", "103309.660000", "103311.661000", "103313.660000", "103315.661000", "103317.660000", "103319.660000", "103321.659000", "103323.659000", "103325.659000", "103327.660000", "103329.660000", "103331.660000", "103333.661000", "103335.661000", "103337.660000", "103339.659000", "103341.659000", "103343.659000", "103345.660000", "103347.661000", "103349.661000", "103351.660000", "103353.661000", "103355.660000", "103357.659000", "103359.659000", "103401.660000", "103403.660000", "103405.660000", "103407.660000", "103409.660000", "103411.660000", "103413.659000", "103415.660000", "103417.659000", "103419.660000", "103421.661000", "103423.661000", "103425.660000", "103427.661000", "103429.660000", "103431.659000", "103433.659000", "103435.659000", "103437.660000", "103439.660000", "103441.661000", "103443.661000", "103445.660000", "103447.660000", "103449.660000", "103451.659000", "103453.659000", "103455.660000", "103457.660000", "103459.660000", "103501.660000", "103503.660000", "103505.660000", "103507.668000", "103509.660000", "103511.660000", "103513.661000", "103515.660000", "103517.660000", "103519.660000", "103521.660000", "103523.659000", "103525.660000", "103527.659000", "103529.661000", "103531.660000", "103533.661000", "103535.662000", "103537.660000", "103539.660000", "103541.660000", "103543.659000", "103545.659000", "103547.661000", "103549.660000", "103551.661000", "103553.661000", "103555.660000", "103557.660000", "103559.659000", "103601.660000", "103603.659000", "103605.660000", "103607.660000", "103609.661000", "103611.660000", "103613.661000", "103615.661000", "103617.660000", "103619.660000", "103621.661000", "103623.661000", "103625.660000", "103627.661000", "103629.660000", "103631.660000", "103633.659000", "103635.660000", "103637.659000", "103639.660000", "103641.660000", "103643.660000", "103645.660000", "103647.660000", "103649.660000", "103651.659000", "103653.659000", "103655.659000", "103657.660000", "103659.661000", "103701.660000", "103703.660000", "103705.661000", "103707.660000", "103709.659000", "103711.660000", "103713.659000", "103715.661000", "103717.660000", "103719.660000", "103721.660000", "103723.661000", "103725.661000", "103727.660000", "103729.659000", "103731.660000", "103733.660000", "103735.660000", "103737.661000", "103739.660000", "103741.320000"],
      "InstanceNumber": [1, 2, 3, 4, 5, 6, 7, 8, 9, 10, 11, 12, 13, 14, 15, 16, 17, 18, 19, 20, 21, 22, 23, 24, 25, 26, 27, 28, 29, 30, 31, 32, 33, 34, 35, 36, 37, 38, 39, 40, 41, 42, 43, 44, 45, 46, 47, 48, 49, 50, 51, 52, 53, 54, 55, 56, 57, 58, 59, 60, 61, 62, 63, 64, 65, 66, 67, 68, 69, 70, 71, 72, 73, 74, 75, 76, 77, 78, 79, 80, 81, 82, 83, 84, 85, 86, 87, 88, 89, 90, 91, 92, 93, 94, 95, 96, 97, 98, 99, 100, 101, 102, 103, 104, 105, 106, 107, 108, 109, 110, 111, 112, 113, 114, 115, 116, 117, 118, 119, 120, 121, 122, 123, 124, 125, 126, 127, 128, 129, 130, 131, 132, 133, 134, 135, 136, 137, 138, 139, 140, 141, 142, 143, 144, 145, 146, 147, 148, 149, 150, 151, 152, 153, 154, 155, 156, 157, 158, 159, 160, 161, 162, 163, 164, 165, 166, 167, 168, 169, 170, 171, 172, 173, 174, 175, 176, 177, 178, 179, 180, 181, 182, 183, 184, 185, 186, 187, 188, 189, 190, 191, 192, 193, 194, 195, 196, 197, 198, 199, 200, 201, 202, 203, 204, 205, 206, 207, 208, 209, 210, 211, 212, 213, 214, 215, 216, 217, 218, 219, 220, 221, 222, 223, 224, 225, 226, 227, 228, 229, 230, 231, 232],
      "LargestImagePixelValue": [3499, 3439, 3496, 3419, 3494, 3442, 3474, 3457, 3446, 3426, 3484, 3453, 3451, 3402, 3413, 3466, 3504, 3609, 3688, 3791, 3809, 3812, 3797, 3805, 3797, 3756, 3771, 3658, 3654, 3559, 3499, 3488, 3375, 3407, 3386, 3359, 3411, 3380, 3415, 3376, 3341, 3412, 3828, 3479, 3598, 3381, 3543, 3432, 3339, 3395, 3548, 3545, 3596, 3640, 3674, 3634, 3619, 3542, 3470, 3455, 3479, 3497, 3500, 3548, 3516, 3505, 3481, 3436, 3486, 3459, 3468, 3504, 3492, 3512, 3491, 3510, 3474, 3441, 3497, 3499, 3458, 3413, 3436, 3438, 3453, 3500, 3486, 3503, 3510, 3516, 3525, 3520, 3480, 3506, 3494, 3496, 3483, 3493, 3832, 3615, 3574, 3516, 3532, 3510, 3625, 3552, 3530, 3502, 3502, 3455, 3478, 3507, 3512, 3501, 3459, 3456, 3494, 3469, 3508, 3498, 3502, 3503, 3491, 3443, 3482, 3463, 3463, 3473, 3492, 3487, 3692, 3513, 3557, 3532, 3606, 3505, 3541, 3470, 3439, 3479, 3470, 3438, 3443, 3386, 3445, 3450, 3420, 3435, 3419, 3449, 3461, 3473, 3473, 3448, 3436, 3461, 3449, 3432, 3466, 3435, 3409, 3450, 3401, 3460, 3412, 3429, 3438, 3425, 3417, 3459, 3365, 3368, 3368, 3381, 3408, 3377, 3341, 3392, 3436, 3422, 3444, 3466, 3434, 3491, 3459, 3461, 3515, 3543, 3437, 3731, 3562, 3728, 3514, 3461, 3465, 3471, 3466, 3456, 3461, 3434, 3479, 3443, 3556, 3600, 3605, 3627, 3515, 3505, 3608, 3509, 3547, 3599, 3611, 3594, 3534, 3572, 3645, 3631, 3694, 3609, 3555, 3420, 3395, 3401, 3416, 3280, 3342, 3391, 3338, 3345, 3316, 3317],
      "WindowCenter": [762.0, 760.0, 761.0, 762.0, 761.0, 759.0, 761.0, 762.0, 762.0, 762.0, 765.0, 765.0, 763.0, 761.0, 761.0, 762.0, 763.0, 765.0, 768.0, 768.0, 767.0, 766.0, 766.0, 766.0, 767.0, 768.0, 770.0, 769.0, 767.0, 765.0, 763.0, 763.0, 762.0, 762.0, 763.0, 762.0, 763.0, 763.0, 763.0, 762.0, 761.0, 759.0, 771.0, 766.0, 763.0, 762.0, 761.0, 762.0, 761.0, 763.0, 766.0, 768.0, 769.0, 768.0, 767.0, 767.0, 766.0, 766.0, 766.0, 766.0, 765.0, 765.0, 764.0, 764.0, 764.0, 764.0, 768.0, 769.0, 766.0, 764.0, 763.0, 763.0, 763.0, 763.0, 764.0, 765.0, 765.0, 764.0, 764.0, 764.0, 764.0, 764.0, 767.0, 766.0, 763.0, 762.0, 761.0, 761.0, 761.0, 762.0, 765.0, 767.0, 765.0, 765.0, 765.0, 765.0, 765.0, 759.0, 770.0, 766.0, 765.0, 759.0, 761.0, 760.0, 765.0, 763.0, 765.0, 765.0, 764.0, 763.0, 763.0, 762.0, 762.0, 762.0, 762.0, 762.0, 762.0, 761.0, 762.0, 761.0, 762.0, 764.0, 765.0, 763.0, 762.0, 761.0, 761.0, 761.0, 762.0, 761.0, 764.0, 761.0, 760.0, 761.0, 757.0, 761.0, 760.0, 762.0, 762.0, 762.0, 763.0, 762.0, 763.0, 764.0, 764.0, 764.0, 764.0, 764.0, 762.0, 762.0, 762.0, 762.0, 762.0, 762.0, 765.0, 764.0, 762.0, 761.0, 761.0, 761.0, 761.0, 763.0, 763.0, 764.0, 761.0, 761.0, 761.0, 761.0, 761.0, 760.0, 759.0, 760.0, 761.0, 761.0, 759.0, 758.0, 758.0, 759.0, 762.0, 764.0, 762.0, 760.0, 759.0, 761.0, 762.0, 760.0, 763.0, 761.0, 759.0, 761.0, 761.0, 762.0, 762.0, 762.0, 764.0, 765.0, 764.0, 763.0, 763.0, 763.0, 763.0, 763.0, 765.0, 765.0, 763.0, 761.0, 760.0, 760.0, 761.0, 761.0, 762.0, 762.0, 762.0, 761.0, 760.0, 761.0, 761.0, 763.0, 765.0, 764.0, 762.0, 760.0, 760.0, 761.0, 759.0, 761.0, 763.0, 762.0, 760.0, 758.0, 758.0, 759.0],
      "WindowWidth": [1661.0, 1653.0, 1657.0, 1658.0, 1655.0, 1652.0, 1656.0, 1659.0, 1659.0, 1659.0, 1668.0, 1669.0, 1664.0, 1656.0, 1656.0, 1659.0, 1661.0, 1668.0, 1675.0, 1678.0, 1675.0, 1671.0, 1669.0, 1670.0, 1673.0, 1676.0, 1681.0, 1680.0, 1674.0, 1666.0, 1661.0, 1661.0, 1659.0, 1659.0, 1660.0, 1659.0, 1661.0, 1661.0, 1661.0, 1658.0, 1657.0, 1650.0, 1685.0, 1672.0, 1664.0, 1659.0, 1659.0, 1658.0, 1656.0, 1662.0, 1671.0, 1675.0, 1678.0, 1677.0, 1674.0, 1673.0, 1670.0, 1671.0, 1670.0, 1669.0, 1668.0, 1666.0, 1663.0, 1663.0, 1664.0, 1665.0, 1675.0, 1678.0, 1671.0, 1663.0, 1662.0, 1662.0, 1660.0, 1662.0, 1664.0, 1667.0, 1667.0, 1665.0, 1664.0, 1665.0, 1663.0, 1666.0, 1672.0, 1671.0, 1661.0, 1657.0, 1656.0, 1656.0, 1654.0, 1658.0, 1667.0, 1673.0, 1668.0, 1667.0, 1668.0, 1668.0, 1667.0, 1653.0, 1683.0, 1672.0, 1667.0, 1653.0, 1656.0, 1653.0, 1667.0, 1662.0, 1666.0, 1667.0, 1664.0, 1662.0, 1661.0, 1659.0, 1658.0, 1657.0, 1659.0, 1659.0, 1657.0, 1656.0, 1657.0, 1656.0, 1657.0, 1663.0, 1667.0, 1662.0, 1659.0, 1656.0, 1657.0, 1657.0, 1658.0, 1655.0, 1664.0, 1657.0, 1655.0, 1657.0, 1647.0, 1655.0, 1653.0, 1657.0, 1658.0, 1658.0, 1660.0, 1659.0, 1663.0, 1664.0, 1665.0, 1665.0, 1665.0, 1663.0, 1659.0, 1658.0, 1657.0, 1658.0, 1657.0, 1660.0, 1666.0, 1665.0, 1658.0, 1654.0, 1655.0, 1655.0, 1656.0, 1660.0, 1662.0, 1663.0, 1656.0, 1654.0, 1656.0, 1655.0, 1654.0, 1653.0, 1649.0, 1651.0, 1655.0, 1655.0, 1650.0, 1646.0, 1646.0, 1649.0, 1659.0, 1663.0, 1657.0, 1651.0, 1650.0, 1656.0, 1657.0, 1654.0, 1660.0, 1655.0, 1651.0, 1655.0, 1655.0, 1657.0, 1658.0, 1658.0, 1664.0, 1668.0, 1664.0, 1662.0, 1660.0, 1660.0, 1660.0, 1660.0, 1668.0, 1667.0, 1660.0, 1655.0, 1652.0, 1652.0, 1656.0, 1654.0, 1658.0, 1657.0, 1657.0, 1655.0, 1653.0, 1655.0, 1655.0, 1660.0, 1665.0, 1663.0, 1659.0, 1653.0, 1653.0, 1655.0, 1650.0, 1654.0, 1659.0, 1658.0, 1651.0, 1647.0, 1647.0, 1649.0]
    },
    "slices": {}
  }
}