{
  "AcquisitionMatrixPE": 100,
  "AcquisitionNumber": 1,
  "AcquisitionTime": "12:28:0.992500",
  "BandwidthPerPixelPhaseEncode": 18.519,
  "BaseResolution": 100,
  "BodyPartExamined": "BRAIN",
  "ConsistencyInfo": "N4_VE11C_LATEST_20160120",
  "ConversionSoftware": "dcm2niix",
  "ConversionSoftwareVersion": "v1.0.20180622 GCC4.9.2",
  "DerivedVendorReportedEchoSpacing": 0.000539986,
  "DeviceSerialNumber": "166078",
  "DwellTime": 2.1e-06,
  "EchoTime": 0.034,
  "EchoTrainLength": 100,
  "EffectiveEchoSpacing": 0.000539986,
  "FlipAngle": 90,
  "ImageOrientationPatientDICOM": [0.99836, 0.00159772, 0.0572218, 0.0121979, 0.970715, -0.239923],
  "ImageType": [
    "ORIGINAL",
    "PRIMARY",
    "M",
    "ND",
    "MOSAIC"
],
  "InPlanePhaseEncodingDirectionDICOM": "COL",
  "InstitutionAddress": "Street_StreetNo_Bei_Jing_District_CN_ZIP",
  "InstitutionName": "BeiJing_Normal_University",
  "InstitutionalDepartmentName": "Department",
  "MRAcquisitionType": "2D",
  "MagneticFieldStrength": 3,
  "Manufacturer": "Siemens",
  "ManufacturersModelName": "Prisma",
  "Modality": "MR",
  "MultibandAccelerationFactor": 3,
  "PartialFourier": 1,
  "PatientPosition": "HFS",
  "PercentPhaseFOV": 100,
  "PhaseEncodingDirection": "j-",
  "PhaseEncodingSteps": 100,
  "PhaseResolution": 1,
  "PixelBandwidth": 2380,
  "ProcedureStepDescription": "BNU_P2018_64CH_Liu.Jia",
  "ProtocolName": "bold_100x100_s3_2x2x2_232",
  "PulseSequenceDetails": "%SiemensSeq%_ep2d_bold",
  "ReceiveCoilActiveElements": "HC1-7;NC1",
  "ReceiveCoilName": "HeadNeck_64",
  "ReconMatrixPE": 100,
  "RepetitionTime": 2,
  "SAR": 0.0691214,
  "ScanOptions": "FS",
  "ScanningSequence": "EP",
  "SequenceName": "_epfid2d1_100",
  "SequenceVariant": "SK",
  "SeriesDescription": "bold_100x100_s3_2x2x2_232",
  "SeriesNumber": 10,
  "ShimSetting": [-5449, -11481, -1253, 359, -23, -149, -76, 38],
  "SliceThickness": 2,
  "SliceTiming": [1.485, 0, 0.99, 0.0825, 1.0725, 0.165, 1.155, 0.2475, 1.2375, 0.33, 1.32, 0.4125, 1.4025, 0.5775, 1.5675, 0.66, 1.65, 0.7425, 1.7325, 0.825, 1.815, 0.9075, 1.8975, 0.495, 1.485, 0, 0.99, 0.0825, 1.0725, 0.165, 1.155, 0.2475, 1.2375, 0.33, 1.32, 0.4125, 1.4025, 0.5775, 1.5675, 0.66, 1.65, 0.7425, 1.7325, 0.825, 1.815, 0.9075, 1.8975, 0.495, 1.485, 0, 0.99, 0.0825, 1.0725, 0.165, 1.155, 0.2475, 1.2375, 0.33, 1.32, 0.4125, 1.4025, 0.5775, 1.5675, 0.66, 1.65, 0.7425, 1.7325, 0.825, 1.815, 0.9075, 1.8975, 0.495],
  "SoftwareVersions": "syngo_MR_E11",
  "SpacingBetweenSlices": 2,
  "StationName": "AWP166078",
  "TaskName": "motor",
  "TotalReadoutTime": 0.0534586,
  "TxRefAmp": 205.831,
  "dcmmeta_affine": [
    [-1.9967204332351685, 0.024395786225795746, 0.11185875535011292, 96.63899230957031],
    [-0.003195445518940687, 1.9414305686950684, -0.48045533895492554, -76.35770416259766],
    [0.11444354057312012, 0.47984620928764343, 1.938207983970642, -95.7234878540039],
    [0.0, 0.0, 0.0, 1.0]
],
  "dcmmeta_reorient_transform": [
    [0.0, -1.0, 0.0, 99.0],
    [1.0, 0.0, 0.0, 0.0],
    [0.0, 0.0, 1.0, 0.0],
    [0.0, 0.0, 0.0, 1.0]
],
  "dcmmeta_shape": [100, 100, 72, 232],
  "dcmmeta_slice_dim": 2,
  "dcmmeta_version": 0.6,
  "global": {
    "const": {
      "AcquisitionMatrix": [100, 0, 0, 100],
      "AngioFlag": "N",
      "BitsAllocated": 16,
      "BitsStored": 12,
      "BodyPartExamined": "BRAIN",
      "Columns": 900,
      "EchoNumbers": 1,
      "EchoTime": 34.0,
      "EchoTrainLength": 100,
      "FlipAngle": 90.0,
      "HighBit": 11,
      "ImageOrientationPatient": [0.99836021360171, 0.00159772275459, 0.05722177189795, 0.01219789328702, 0.97071525945156, -0.2399231053218],
      "ImagePositionPatient": [-907.50065850263, -893.69430147821, 97.94235425627],
      "ImageType": [
        "ORIGINAL",
        "PRIMARY",
        "M",
        "ND",
        "MOSAIC"
],
      "ImagedNucleus": "1H",
      "ImagingFrequency": 123.257855,
      "InPlanePhaseEncodingDirection": "COL",
      "LargestImagePixelValue": 4095,
      "MRAcquisitionType": "2D",
      "MagneticFieldStrength": 3.0,
      "Manufacturer": "SIEMENS",
      "ManufacturerModelName": "Prisma",
      "Modality": "MR",
      "NumberOfAverages": 1.0,
      "NumberOfPhaseEncodingSteps": 100,
      "PercentPhaseFieldOfView": 100.0,
      "PercentSampling": 100.0,
      "PerformedProcedureStepStartTime": "113750.675000",
      "PhotometricInterpretation": "MONOCHROME2",
      "PixelBandwidth": 2380.0,
      "PixelRepresentation": 0,
      "PixelSpacing": [2.0, 2.0],
      "ProtocolName": "bold_100x100_s3_2x2x2_232",
      "RepetitionTime": 2000.0,
      "Rows": 900,
      "SAR": 0.06912139876895,
      "SamplesPerPixel": 1,
      "ScanOptions": "FS",
      "ScanningSequence": "EP",
      "SequenceName": "*epfid2d1_100",
      "SequenceVariant": "SK",
      "SeriesDescription": "bold_100x100_s3_2x2x2_232",
      "SeriesNumber": 10,
      "SeriesTime": "122803.732000",
      "SliceLocation": -69.017822813549,
      "SliceThickness": 2.0,
      "SmallestImagePixelValue": 0,
      "SoftwareVersions": "syngo MR E11",
      "SpacingBetweenSlices": 2.0000000210253,
      "SpecificCharacterSet": "ISO_IR 100",
      "StudyID": "1",
      "StudyTime": "113750.576000",
      "TransmitCoilName": "Body",
      "VariableFlipAngleFlag": "N",
      "WindowCenterWidthExplanation": "Algo1",
      "dBdt": 0.0},
    "slices": {}
  },
  "time": {
    "samples": {
      "AcquisitionNumber": [1, 2, 3, 4, 5, 6, 7, 8, 9, 10, 11, 12, 13, 14, 15, 16, 17, 18, 19, 20, 21, 22, 23, 24, 25, 26, 27, 28, 29, 30, 31, 32, 33, 34, 35, 36, 37, 38, 39, 40, 41, 42, 43, 44, 45, 46, 47, 48, 49, 50, 51, 52, 53, 54, 55, 56, 57, 58, 59, 60, 61, 62, 63, 64, 65, 66, 67, 68, 69, 70, 71, 72, 73, 74, 75, 76, 77, 78, 79, 80, 81, 82, 83, 84, 85, 86, 87, 88, 89, 90, 91, 92, 93, 94, 95, 96, 97, 98, 99, 100, 101, 102, 103, 104, 105, 106, 107, 108, 109, 110, 111, 112, 113, 114, 115, 116, 117, 118, 119, 120, 121, 122, 123, 124, 125, 126, 127, 128, 129, 130, 131, 132, 133, 134, 135, 136, 137, 138, 139, 140, 141, 142, 143, 144, 145, 146, 147, 148, 149, 150, 151, 152, 153, 154, 155, 156, 157, 158, 159, 160, 161, 162, 163, 164, 165, 166, 167, 168, 169, 170, 171, 172, 173, 174, 175, 176, 177, 178, 179, 180, 181, 182, 183, 184, 185, 186, 187, 188, 189, 190, 191, 192, 193, 194, 195, 196, 197, 198, 199, 200, 201, 202, 203, 204, 205, 206, 207, 208, 209, 210, 211, 212, 213, 214, 215, 216, 217, 218, 219, 220, 221, 222, 223, 224, 225, 226, 227, 228, 229, 230, 231, 232],
      "AcquisitionTime": ["122800.992500", "122802.992500", "122804.992500", "122806.992500", "122808.992500", "122810.992500", "122812.992500", "122814.992500", "122816.992500", "122818.992500", "122820.992500", "122822.992500", "122824.992500", "122826.992500", "122828.992500", "122830.992500", "122832.992500", "122834.992500", "122836.992500", "122838.992500", "122840.992500", "122842.992500", "122844.992500", "122846.992500", "122848.992500", "122850.992500", "122852.992500", "122854.992500", "122856.992500", "122858.992500", "122900.992500", "122902.992500", "122904.992500", "122906.992500", "122908.992500", "122910.992500", "122912.992500", "122914.992500", "122916.992500", "122918.992500", "122920.992500", "122922.992500", "122924.992500", "122926.992500", "122928.992500", "122930.992500", "122932.992500", "122934.992500", "122936.992500", "122938.992500", "122940.992500", "122942.992500", "122944.992500", "122946.992500", "122948.992500", "122950.992500", "122952.992500", "122954.992500", "122956.992500", "122958.992500", "123000.992500", "123002.992500", "123004.992500", "123006.992500", "123008.992500", "123010.992500", "123012.992500", "123014.992500", "123016.992500", "123018.992500", "123020.992500", "123022.992500", "123024.992500", "123026.992500", "123028.992500", "123030.992500", "123032.992500", "123034.992500", "123036.992500", "123038.992500", "123040.992500", "123042.992500", "123044.992500", "123046.992500", "123048.992500", "123050.992500", "123052.992500", "123054.992500", "123056.992500", "123058.992500", "123100.992500", "123102.992500", "123104.992500", "123106.992500", "123108.992500", "123110.992500", "123112.992500", "123114.992500", "123116.992500", "123118.992500", "123120.992500", "123122.992500", "123124.992500", "123126.992500", "123128.992500", "123130.992500", "123132.992500", "123134.992500", "123136.992500", "123138.992500", "123140.992500", "123142.992500", "123144.992500", "123146.992500", "123148.992500", "123150.992500", "123152.992500", "123154.992500", "123156.992500", "123158.992500", "123200.992500", "123202.992500", "123204.992500", "123206.992500", "123208.992500", "123210.992500", "123212.992500", "123214.992500", "123216.992500", "123218.992500", "123220.992500", "123222.992500", "123224.992500", "123226.992500", "123228.992500", "123230.992500", "123232.992500", "123234.992500", "123236.992500", "123238.992500", "123240.992500", "123242.992500", "123244.992500", "123246.992500", "123248.992500", "123250.992500", "123252.992500", "123254.992500", "123256.992500", "123258.992500", "123300.992500", "123302.992500", "123304.992500", "123306.992500", "123308.992500", "123310.992500", "123312.992500", "123314.992500", "123316.992500", "123318.992500", "123320.992500", "123322.992500", "123324.992500", "123326.992500", "123328.992500", "123330.992500", "123332.992500", "123334.992500", "123336.992500", "123338.992500", "123340.992500", "123342.992500", "123344.992500", "123346.992500", "123348.992500", "123350.992500", "123352.992500", "123354.992500", "123356.992500", "123358.992500", "123400.992500", "123402.992500", "123404.992500", "123406.992500", "123408.992500", "123410.992500", "123412.992500", "123414.992500", "123416.992500", "123418.992500", "123420.992500", "123422.992500", "123424.992500", "123426.992500", "123428.992500", "123430.992500", "123432.992500", "123434.992500", "123436.992500", "123438.992500", "123440.992500", "123442.992500", "123444.992500", "123446.992500", "123448.992500", "123450.992500", "123452.992500", "123454.992500", "123456.992500", "123458.992500", "123500.992500", "123502.992500", "123504.992500", "123506.992500", "123508.992500", "123510.992500", "123512.992500", "123514.992500", "123516.992500", "123518.992500", "123520.992500", "123522.992500", "123524.992500", "123526.992500", "123528.992500", "123530.992500", "123532.992500", "123534.992500", "123536.992500", "123538.992500", "123540.992500", "123542.992500"],
      "ContentTime": ["122803.735000", "122804.731000", "122806.731000", "122808.731000", "122810.731000", "122813.231000", "122815.231000", "122816.732000", "122819.231000", "122821.231000", "122823.231000", "122824.731000", "122827.231000", "122828.731000", "122830.731000", "122833.232000", "122835.231000", "122837.232000", "122838.731000", "122841.231000", "122843.231000", "122844.731000", "122847.231000", "122849.231000", "122851.232000", "122853.231000", "122855.231000", "122857.231000", "122858.731000", "122901.231000", "122903.231000", "122904.731000", "122907.231000", "122908.732000", "122911.231000", "122912.731000", "122915.231000", "122917.231000", "122919.231000", "122921.231000", "122922.731000", "122925.232000", "122927.232000", "122929.232000", "122931.231000", "122932.732000", "122935.231000", "122936.731000", "122938.731000", "122941.231000", "122943.232000", "122944.732000", "122946.731000", "122949.231000", "122951.231000", "122952.731000", "122954.731000", "122956.731000", "122959.231000", "123001.232000", "123003.231000", "123004.731000", "123007.231000", "123008.731000", "123011.231000", "123013.232000", "123014.732000", "123017.232000", "123018.732000", "123020.731000", "123022.731000", "123025.231000", "123027.231000", "123028.731000", "123030.731000", "123032.731000", "123034.731000", "123036.732000", "123039.231000", "123040.731000", "123042.731000", "123045.231000", "123047.231000", "123049.231000", "123050.732000", "123053.232000", "123054.732000", "123057.231000", "123058.731000", "123100.731000", "123103.231000", "123104.731000", "123106.731000", "123109.231000", "123111.232000", "123113.232000", "123115.231000", "123117.231000", "123118.731000", "123121.231000", "123123.232000", "123124.731000", "123127.231000", "123129.233000", "123131.232000", "123133.231000", "123134.731000", "123136.731000", "123138.731000", "123141.231000", "123143.231000", "123145.233000", "123147.232000", "123149.232000", "123151.231000", "123153.231000", "123154.731000", "123157.231000", "123159.231000", "123200.731000", "123203.232000", "123204.733000", "123206.731000", "123208.731000", "123211.231000", "123213.231000", "123215.232000", "123217.231000", "123218.731000", "123221.232000", "123222.731000", "123224.731000", "123226.731000", "123228.731000", "123231.231000", "123233.231000", "123235.232000", "123236.731000", "123239.232000", "123241.232000", "123242.731000", "123244.731000", "123247.231000", "123249.232000", "123251.231000", "123252.731000", "123254.731000", "123256.732000", "123258.731000", "123301.231000", "123302.731000", "123304.732000", "123307.232000", "123308.731000", "123310.732000", "123312.732000", "123315.231000", "123317.231000", "123319.231000", "123321.231000", "123322.731000", "123325.232000", "123326.731000", "123328.731000", "123330.733000", "123333.231000", "123335.231000", "123337.231000", "123338.731000", "123340.732000", "123342.731000", "123344.731000", "123347.231000", "123349.232000", "123351.231000", "123352.731000", "123355.231000", "123356.731000", "123359.231000", "123401.231000", "123403.232000", "123405.232000", "123407.232000", "123409.231000", "123411.231000", "123413.232000", "123414.731000", "123417.232000", "123419.231000", "123420.731000", "123423.233000", "123424.732000", "123426.732000", "123428.731000", "123431.231000", "123433.232000", "123435.232000", "123436.731000", "123439.231000", "123441.232000", "123442.731000", "123445.231000", "123446.731000", "123448.731000", "123451.232000", "123453.231000", "123455.231000", "123457.232000", "123458.733000", "123500.732000", "123503.232000", "123505.232000", "123507.231000", "123509.232000", "123511.231000", "123513.231000", "123514.732000", "123517.233000", "123518.731000", "123520.731000", "123523.231000", "123525.231000", "123527.231000", "123529.232000", "123531.232000", "123533.232000", "123534.732000", "123537.231000", "123538.732000", "123541.231000", "123542.731000", "123544.678000"],
      "InstanceCreationTime": ["122803.735000", "122804.731000", "122806.731000", "122808.731000", "122810.731000", "122813.231000", "122815.231000", "122816.732000", "122819.231000", "122821.231000", "122823.231000", "122824.731000", "122827.231000", "122828.731000", "122830.731000", "122833.232000", "122835.231000", "122837.232000", "122838.731000", "122841.231000", "122843.231000", "122844.731000", "122847.231000", "122849.231000", "122851.232000", "122853.231000", "122855.231000", "122857.231000", "122858.731000", "122901.231000", "122903.231000", "122904.731000", "122907.231000", "122908.732000", "122911.231000", "122912.731000", "122915.231000", "122917.231000", "122919.231000", "122921.231000", "122922.731000", "122925.232000", "122927.232000", "122929.232000", "122931.231000", "122932.732000", "122935.231000", "122936.731000", "122938.731000", "122941.231000", "122943.232000", "122944.732000", "122946.731000", "122949.231000", "122951.231000", "122952.731000", "122954.731000", "122956.731000", "122959.231000", "123001.232000", "123003.231000", "123004.731000", "123007.231000", "123008.731000", "123011.231000", "123013.232000", "123014.732000", "123017.232000", "123018.732000", "123020.731000", "123022.731000", "123025.231000", "123027.231000", "123028.731000", "123030.731000", "123032.731000", "123034.731000", "123036.732000", "123039.231000", "123040.731000", "123042.731000", "123045.231000", "123047.231000", "123049.231000", "123050.732000", "123053.232000", "123054.732000", "123057.231000", "123058.731000", "123100.731000", "123103.231000", "123104.731000", "123106.731000", "123109.231000", "123111.232000", "123113.232000", "123115.231000", "123117.231000", "123118.731000", "123121.231000", "123123.232000", "123124.731000", "123127.231000", "123129.233000", "123131.232000", "123133.231000", "123134.731000", "123136.731000", "123138.731000", "123141.231000", "123143.231000", "123145.233000", "123147.232000", "123149.232000", "123151.231000", "123153.231000", "123154.731000", "123157.231000", "123159.231000", "123200.731000", "123203.232000", "123204.733000", "123206.731000", "123208.731000", "123211.231000", "123213.231000", "123215.232000", "123217.231000", "123218.731000", "123221.232000", "123222.731000", "123224.731000", "123226.731000", "123228.731000", "123231.231000", "123233.231000", "123235.232000", "123236.731000", "123239.232000", "123241.232000", "123242.731000", "123244.731000", "123247.231000", "123249.232000", "123251.231000", "123252.731000", "123254.731000", "123256.732000", "123258.731000", "123301.231000", "123302.731000", "123304.732000", "123307.232000", "123308.731000", "123310.732000", "123312.732000", "123315.231000", "123317.231000", "123319.231000", "123321.231000", "123322.731000", "123325.232000", "123326.731000", "123328.731000", "123330.733000", "123333.231000", "123335.231000", "123337.231000", "123338.731000", "123340.732000", "123342.731000", "123344.731000", "123347.231000", "123349.232000", "123351.231000", "123352.731000", "123355.231000", "123356.731000", "123359.231000", "123401.231000", "123403.232000", "123405.232000", "123407.232000", "123409.231000", "123411.231000", "123413.232000", "123414.731000", "123417.232000", "123419.231000", "123420.731000", "123423.233000", "123424.732000", "123426.732000", "123428.731000", "123431.231000", "123433.232000", "123435.232000", "123436.731000", "123439.231000", "123441.232000", "123442.731000", "123445.231000", "123446.731000", "123448.731000", "123451.232000", "123453.231000", "123455.231000", "123457.232000", "123458.733000", "123500.732000", "123503.232000", "123505.232000", "123507.231000", "123509.232000", "123511.231000", "123513.231000", "123514.732000", "123517.233000", "123518.731000", "123520.731000", "123523.231000", "123525.231000", "123527.231000", "123529.232000", "123531.232000", "123533.232000", "123534.732000", "123537.231000", "123538.732000", "123541.231000", "123542.731000", "123544.678000"],
      "InstanceNumber": [1, 2, 3, 4, 5, 6, 7, 8, 9, 10, 11, 12, 13, 14, 15, 16, 17, 18, 19, 20, 21, 22, 23, 24, 25, 26, 27, 28, 29, 30, 31, 32, 33, 34, 35, 36, 37, 38, 39, 40, 41, 42, 43, 44, 45, 46, 47, 48, 49, 50, 51, 52, 53, 54, 55, 56, 57, 58, 59, 60, 61, 62, 63, 64, 65, 66, 67, 68, 69, 70, 71, 72, 73, 74, 75, 76, 77, 78, 79, 80, 81, 82, 83, 84, 85, 86, 87, 88, 89, 90, 91, 92, 93, 94, 95, 96, 97, 98, 99, 100, 101, 102, 103, 104, 105, 106, 107, 108, 109, 110, 111, 112, 113, 114, 115, 116, 117, 118, 119, 120, 121, 122, 123, 124, 125, 126, 127, 128, 129, 130, 131, 132, 133, 134, 135, 136, 137, 138, 139, 140, 141, 142, 143, 144, 145, 146, 147, 148, 149, 150, 151, 152, 153, 154, 155, 156, 157, 158, 159, 160, 161, 162, 163, 164, 165, 166, 167, 168, 169, 170, 171, 172, 173, 174, 175, 176, 177, 178, 179, 180, 181, 182, 183, 184, 185, 186, 187, 188, 189, 190, 191, 192, 193, 194, 195, 196, 197, 198, 199, 200, 201, 202, 203, 204, 205, 206, 207, 208, 209, 210, 211, 212, 213, 214, 215, 216, 217, 218, 219, 220, 221, 222, 223, 224, 225, 226, 227, 228, 229, 230, 231, 232],
      "WindowCenter": [840.0, 840.0, 840.0, 840.0, 840.0, 840.0, 840.0, 841.0, 840.0, 838.0, 838.0, 838.0, 841.0, 841.0, 841.0, 837.0, 838.0, 840.0, 841.0, 840.0, 839.0, 841.0, 842.0, 841.0, 838.0, 840.0, 841.0, 842.0, 840.0, 839.0, 840.0, 841.0, 841.0, 840.0, 840.0, 844.0, 842.0, 839.0, 838.0, 838.0, 840.0, 840.0, 839.0, 840.0, 841.0, 839.0, 838.0, 836.0, 834.0, 835.0, 837.0, 836.0, 836.0, 836.0, 839.0, 838.0, 839.0, 839.0, 838.0, 840.0, 840.0, 841.0, 840.0, 840.0, 839.0, 839.0, 840.0, 843.0, 844.0, 841.0, 840.0, 842.0, 841.0, 843.0, 844.0, 844.0, 843.0, 840.0, 839.0, 842.0, 843.0, 840.0, 839.0, 842.0, 843.0, 843.0, 842.0, 841.0, 839.0, 839.0, 840.0, 843.0, 842.0, 841.0, 838.0, 841.0, 840.0, 840.0, 843.0, 839.0, 837.0, 836.0, 837.0, 840.0, 843.0, 841.0, 839.0, 839.0, 840.0, 842.0, 841.0, 841.0, 841.0, 840.0, 840.0, 841.0, 842.0, 842.0, 841.0, 838.0, 839.0, 841.0, 840.0, 842.0, 842.0, 843.0, 843.0, 842.0, 841.0, 839.0, 839.0, 839.0, 838.0, 842.0, 845.0, 840.0, 841.0, 839.0, 838.0, 840.0, 841.0, 841.0, 840.0, 839.0, 838.0, 839.0, 842.0, 843.0, 843.0, 842.0, 840.0, 841.0, 840.0, 840.0, 839.0, 840.0, 840.0, 838.0, 838.0, 839.0, 842.0, 843.0, 842.0, 839.0, 839.0, 841.0, 842.0, 841.0, 843.0, 842.0, 841.0, 840.0, 840.0, 838.0, 841.0, 842.0, 842.0, 842.0, 840.0, 839.0, 841.0, 844.0, 843.0, 842.0, 841.0, 839.0, 840.0, 844.0, 844.0, 840.0, 838.0, 839.0, 836.0, 837.0, 836.0, 836.0, 832.0, 836.0, 837.0, 836.0, 839.0, 841.0, 841.0, 840.0, 839.0, 839.0, 841.0, 842.0, 840.0, 837.0, 838.0, 842.0, 843.0, 840.0, 838.0, 841.0, 842.0, 842.0, 842.0, 840.0, 841.0, 841.0, 839.0, 840.0, 842.0, 843.0, 841.0, 840.0, 841.0, 843.0, 842.0, 841.0],
      "WindowWidth": [1873.0, 1873.0, 1872.0, 1872.0, 1871.0, 1873.0, 1873.0, 1876.0, 1872.0, 1866.0, 1866.0, 1867.0, 1875.0, 1877.0, 1874.0, 1862.0, 1867.0, 1871.0, 1874.0, 1871.0, 1868.0, 1873.0, 1876.0, 1874.0, 1866.0, 1873.0, 1873.0, 1878.0, 1873.0, 1867.0, 1871.0, 1874.0, 1874.0, 1872.0, 1871.0, 1883.0, 1877.0, 1870.0, 1866.0, 1865.0, 1871.0, 1873.0, 1867.0, 1872.0, 1873.0, 1869.0, 1864.0, 1858.0, 1851.0, 1855.0, 1862.0, 1859.0, 1860.0, 1859.0, 1867.0, 1866.0, 1869.0, 1868.0, 1867.0, 1870.0, 1871.0, 1874.0, 1871.0, 1869.0, 1867.0, 1869.0, 1872.0, 1882.0, 1882.0, 1873.0, 1871.0, 1879.0, 1875.0, 1881.0, 1884.0, 1883.0, 1879.0, 1870.0, 1868.0, 1878.0, 1879.0, 1871.0, 1869.0, 1877.0, 1880.0, 1879.0, 1878.0, 1875.0, 1869.0, 1868.0, 1873.0, 1880.0, 1879.0, 1873.0, 1865.0, 1874.0, 1871.0, 1872.0, 1882.0, 1868.0, 1863.0, 1861.0, 1864.0, 1874.0, 1881.0, 1875.0, 1870.0, 1868.0, 1872.0, 1877.0, 1874.0, 1875.0, 1875.0, 1873.0, 1871.0, 1876.0, 1878.0, 1878.0, 1874.0, 1865.0, 1870.0, 1876.0, 1873.0, 1878.0, 1876.0, 1882.0, 1881.0, 1878.0, 1874.0, 1869.0, 1870.0, 1868.0, 1866.0, 1877.0, 1886.0, 1871.0, 1874.0, 1870.0, 1866.0, 1873.0, 1875.0, 1874.0, 1873.0, 1869.0, 1866.0, 1870.0, 1877.0, 1882.0, 1880.0, 1876.0, 1871.0, 1875.0, 1872.0, 1873.0, 1869.0, 1873.0, 1872.0, 1866.0, 1865.0, 1868.0, 1879.0, 1882.0, 1878.0, 1868.0, 1868.0, 1876.0, 1877.0, 1875.0, 1879.0, 1878.0, 1875.0, 1872.0, 1870.0, 1865.0, 1874.0, 1878.0, 1878.0, 1877.0, 1872.0, 1869.0, 1877.0, 1883.0, 1883.0, 1878.0, 1876.0, 1868.0, 1872.0, 1883.0, 1883.0, 1872.0, 1863.0, 1867.0, 1860.0, 1862.0, 1860.0, 1859.0, 1847.0, 1861.0, 1864.0, 1861.0, 1868.0, 1873.0, 1875.0, 1872.0, 1868.0, 1868.0, 1875.0, 1877.0, 1872.0, 1864.0, 1867.0, 1878.0, 1881.0, 1872.0, 1866.0, 1874.0, 1879.0, 1880.0, 1878.0, 1872.0, 1874.0, 1875.0, 1870.0, 1873.0, 1878.0, 1879.0, 1874.0, 1870.0, 1874.0, 1881.0, 1877.0, 1873.0]
    },
    "slices": {}
  }
}