{
  "AcquisitionMatrixPE": 100,
  "AcquisitionNumber": 1,
  "AcquisitionTime": "11:40:50.750000",
  "BandwidthPerPixelPhaseEncode": 18.519,
  "BaseResolution": 100,
  "BodyPartExamined": "BRAIN",
  "ConsistencyInfo": "N4_VE11C_LATEST_20160120",
  "ConversionSoftware": "dcm2niix",
  "ConversionSoftwareVersion": "v1.0.20180622 GCC4.9.2",
  "DerivedVendorReportedEchoSpacing": 0.000539986,
  "DeviceSerialNumber": "166078",
  "DwellTime": 2.1e-06,
  "EchoTime": 0.034,
  "EchoTrainLength": 100,
  "EffectiveEchoSpacing": 0.000539986,
  "FlipAngle": 90,
  "ImageOrientationPatientDICOM": [0.99836, 0.00159772, 0.0572218, 0.0121979, 0.970715, -0.239923],
  "ImageType": [
    "ORIGINAL",
    "PRIMARY",
    "M",
    "ND",
    "MOSAIC"
],
  "InPlanePhaseEncodingDirectionDICOM": "COL",
  "InstitutionAddress": "Street_StreetNo_Bei_Jing_District_CN_ZIP",
  "InstitutionName": "BeiJing_Normal_University",
  "InstitutionalDepartmentName": "Department",
  "MRAcquisitionType": "2D",
  "MagneticFieldStrength": 3,
  "Manufacturer": "Siemens",
  "ManufacturersModelName": "Prisma",
  "Modality": "MR",
  "MultibandAccelerationFactor": 3,
  "PartialFourier": 1,
  "PatientPosition": "HFS",
  "PercentPhaseFOV": 100,
  "PhaseEncodingDirection": "j-",
  "PhaseEncodingSteps": 100,
  "PhaseResolution": 1,
  "PixelBandwidth": 2380,
  "ProcedureStepDescription": "BNU_P2018_64CH_Liu.Jia",
  "ProtocolName": "bold_100x100_s3_2x2x2_232",
  "PulseSequenceDetails": "%SiemensSeq%_ep2d_bold",
  "ReceiveCoilActiveElements": "HC1-7;NC1",
  "ReceiveCoilName": "HeadNeck_64",
  "ReconMatrixPE": 100,
  "RepetitionTime": 2,
  "SAR": 0.0691214,
  "ScanOptions": "FS",
  "ScanningSequence": "EP",
  "SequenceName": "_epfid2d1_100",
  "SequenceVariant": "SK",
  "SeriesDescription": "bold_100x100_s3_2x2x2_232",
  "SeriesNumber": 3,
  "ShimSetting": [-5449, -11481, -1253, 359, -23, -149, -76, 38],
  "SliceThickness": 2,
  "SliceTiming": [1.485, 0, 0.99, 0.0825, 1.0725, 0.165, 1.155, 0.2475, 1.2375, 0.33, 1.32, 0.4125, 1.4025, 0.5775, 1.5675, 0.66, 1.65, 0.7425, 1.7325, 0.825, 1.815, 0.9075, 1.8975, 0.495, 1.485, 0, 0.99, 0.0825, 1.0725, 0.165, 1.155, 0.2475, 1.2375, 0.33, 1.32, 0.4125, 1.4025, 0.5775, 1.5675, 0.66, 1.65, 0.7425, 1.7325, 0.825, 1.815, 0.9075, 1.8975, 0.495, 1.485, 0, 0.99, 0.0825, 1.0725, 0.165, 1.155, 0.2475, 1.2375, 0.33, 1.32, 0.4125, 1.4025, 0.5775, 1.5675, 0.66, 1.65, 0.7425, 1.7325, 0.825, 1.815, 0.9075, 1.8975, 0.495],
  "SoftwareVersions": "syngo_MR_E11",
  "SpacingBetweenSlices": 2,
  "StationName": "AWP166078",
  "TaskName": "motor",
  "TotalReadoutTime": 0.0534586,
  "TxRefAmp": 205.831,
  "dcmmeta_affine": [
    [-1.9967204332351685, 0.024395786225795746, 0.11185875535011292, 96.63899230957031],
    [-0.003195445518940687, 1.9414305686950684, -0.48045533895492554, -76.35770416259766],
    [0.11444354057312012, 0.47984620928764343, 1.938207983970642, -95.7234878540039],
    [0.0, 0.0, 0.0, 1.0]
],
  "dcmmeta_reorient_transform": [
    [0.0, -1.0, 0.0, 99.0],
    [1.0, 0.0, 0.0, 0.0],
    [0.0, 0.0, 1.0, 0.0],
    [0.0, 0.0, 0.0, 1.0]
],
  "dcmmeta_shape": [100, 100, 72, 232],
  "dcmmeta_slice_dim": 2,
  "dcmmeta_version": 0.6,
  "global": {
    "const": {
      "AcquisitionMatrix": [100, 0, 0, 100],
      "AngioFlag": "N",
      "BitsAllocated": 16,
      "BitsStored": 12,
      "BodyPartExamined": "BRAIN",
      "Columns": 900,
      "EchoNumbers": 1,
      "EchoTime": 34.0,
      "EchoTrainLength": 100,
      "FlipAngle": 90.0,
      "HighBit": 11,
      "ImageOrientationPatient": [0.99836021360171, 0.00159772275459, 0.05722177189795, 0.01219789328702, 0.97071525945156, -0.2399231053218],
      "ImagePositionPatient": [-907.50065850263, -893.69430147821, 97.94235425627],
      "ImageType": [
        "ORIGINAL",
        "PRIMARY",
        "M",
        "ND",
        "MOSAIC"
],
      "ImagedNucleus": "1H",
      "ImagingFrequency": 123.257839,
      "InPlanePhaseEncodingDirection": "COL",
      "MRAcquisitionType": "2D",
      "MagneticFieldStrength": 3.0,
      "Manufacturer": "SIEMENS",
      "ManufacturerModelName": "Prisma",
      "Modality": "MR",
      "NumberOfAverages": 1.0,
      "NumberOfPhaseEncodingSteps": 100,
      "PercentPhaseFieldOfView": 100.0,
      "PercentSampling": 100.0,
      "PerformedProcedureStepStartTime": "113750.675000",
      "PhotometricInterpretation": "MONOCHROME2",
      "PixelBandwidth": 2380.0,
      "PixelRepresentation": 0,
      "PixelSpacing": [2.0, 2.0],
      "ProtocolName": "bold_100x100_s3_2x2x2_232",
      "RepetitionTime": 2000.0,
      "Rows": 900,
      "SAR": 0.06912139876895,
      "SamplesPerPixel": 1,
      "ScanOptions": "FS",
      "ScanningSequence": "EP",
      "SequenceName": "*epfid2d1_100",
      "SequenceVariant": "SK",
      "SeriesDescription": "bold_100x100_s3_2x2x2_232",
      "SeriesNumber": 3,
      "SeriesTime": "114053.198000",
      "SliceLocation": -69.017822813549,
      "SliceThickness": 2.0,
      "SmallestImagePixelValue": 0,
      "SoftwareVersions": "syngo MR E11",
      "SpacingBetweenSlices": 2.0000000210253,
      "SpecificCharacterSet": "ISO_IR 100",
      "StudyID": "1",
      "StudyTime": "113750.576000",
      "TransmitCoilName": "Body",
      "VariableFlipAngleFlag": "N",
      "WindowCenterWidthExplanation": "Algo1",
      "dBdt": 0.0},
    "slices": {}
  },
  "time": {
    "samples": {
      "AcquisitionNumber": [1, 2, 3, 4, 5, 6, 7, 8, 9, 10, 11, 12, 13, 14, 15, 16, 17, 18, 19, 20, 21, 22, 23, 24, 25, 26, 27, 28, 29, 30, 31, 32, 33, 34, 35, 36, 37, 38, 39, 40, 41, 42, 43, 44, 45, 46, 47, 48, 49, 50, 51, 52, 53, 54, 55, 56, 57, 58, 59, 60, 61, 62, 63, 64, 65, 66, 67, 68, 69, 70, 71, 72, 73, 74, 75, 76, 77, 78, 79, 80, 81, 82, 83, 84, 85, 86, 87, 88, 89, 90, 91, 92, 93, 94, 95, 96, 97, 98, 99, 100, 101, 102, 103, 104, 105, 106, 107, 108, 109, 110, 111, 112, 113, 114, 115, 116, 117, 118, 119, 120, 121, 122, 123, 124, 125, 126, 127, 128, 129, 130, 131, 132, 133, 134, 135, 136, 137, 138, 139, 140, 141, 142, 143, 144, 145, 146, 147, 148, 149, 150, 151, 152, 153, 154, 155, 156, 157, 158, 159, 160, 161, 162, 163, 164, 165, 166, 167, 168, 169, 170, 171, 172, 173, 174, 175, 176, 177, 178, 179, 180, 181, 182, 183, 184, 185, 186, 187, 188, 189, 190, 191, 192, 193, 194, 195, 196, 197, 198, 199, 200, 201, 202, 203, 204, 205, 206, 207, 208, 209, 210, 211, 212, 213, 214, 215, 216, 217, 218, 219, 220, 221, 222, 223, 224, 225, 226, 227, 228, 229, 230, 231, 232],
      "AcquisitionTime": ["114050.750000", "114052.750000", "114054.750000", "114056.750000", "114058.750000", "114100.750000", "114102.750000", "114104.750000", "114106.750000", "114108.750000", "114110.750000", "114112.750000", "114114.750000", "114116.750000", "114118.750000", "114120.750000", "114122.750000", "114124.750000", "114126.750000", "114128.750000", "114130.750000", "114132.750000", "114134.750000", "114136.750000", "114138.750000", "114140.750000", "114142.750000", "114144.750000", "114146.750000", "114148.750000", "114150.750000", "114152.750000", "114154.750000", "114156.750000", "114158.750000", "114200.750000", "114202.750000", "114204.750000", "114206.750000", "114208.750000", "114210.750000", "114212.750000", "114214.750000", "114216.750000", "114218.750000", "114220.750000", "114222.750000", "114224.750000", "114226.750000", "114228.750000", "114230.750000", "114232.750000", "114234.750000", "114236.750000", "114238.750000", "114240.750000", "114242.750000", "114244.750000", "114246.750000", "114248.750000", "114250.750000", "114252.750000", "114254.750000", "114256.750000", "114258.750000", "114300.750000", "114302.750000", "114304.750000", "114306.750000", "114308.750000", "114310.750000", "114312.750000", "114314.750000", "114316.750000", "114318.750000", "114320.750000", "114322.750000", "114324.750000", "114326.750000", "114328.750000", "114330.750000", "114332.750000", "114334.750000", "114336.750000", "114338.750000", "114340.750000", "114342.750000", "114344.750000", "114346.750000", "114348.750000", "114350.750000", "114352.750000", "114354.750000", "114356.750000", "114358.750000", "114400.750000", "114402.750000", "114404.750000", "114406.750000", "114408.750000", "114410.750000", "114412.750000", "114414.750000", "114416.750000", "114418.750000", "114420.750000", "114422.750000", "114424.750000", "114426.750000", "114428.750000", "114430.750000", "114432.750000", "114434.750000", "114436.750000", "114438.750000", "114440.750000", "114442.750000", "114444.750000", "114446.750000", "114448.750000", "114450.750000", "114452.750000", "114454.750000", "114456.750000", "114458.750000", "114500.750000", "114502.750000", "114504.750000", "114506.750000", "114508.750000", "114510.750000", "114512.750000", "114514.750000", "114516.750000", "114518.750000", "114520.750000", "114522.750000", "114524.750000", "114526.750000", "114528.750000", "114530.750000", "114532.750000", "114534.750000", "114536.750000", "114538.750000", "114540.750000", "114542.750000", "114544.750000", "114546.750000", "114548.750000", "114550.750000", "114552.750000", "114554.750000", "114556.750000", "114558.750000", "114600.750000", "114602.750000", "114604.750000", "114606.750000", "114608.750000", "114610.750000", "114612.750000", "114614.750000", "114616.750000", "114618.750000", "114620.750000", "114622.750000", "114624.750000", "114626.750000", "114628.750000", "114630.750000", "114632.750000", "114634.750000", "114636.750000", "114638.750000", "114640.750000", "114642.750000", "114644.750000", "114646.750000", "114648.750000", "114650.750000", "114652.750000", "114654.750000", "114656.750000", "114658.750000", "114700.750000", "114702.750000", "114704.750000", "114706.750000", "114708.750000", "114710.750000", "114712.750000", "114714.750000", "114716.750000", "114718.750000", "114720.750000", "114722.750000", "114724.750000", "114726.750000", "114728.750000", "114730.750000", "114732.750000", "114734.750000", "114736.750000", "114738.750000", "114740.750000", "114742.750000", "114744.750000", "114746.750000", "114748.750000", "114750.750000", "114752.750000", "114754.750000", "114756.750000", "114758.750000", "114800.750000", "114802.750000", "114804.750000", "114806.750000", "114808.750000", "114810.750000", "114812.750000", "114814.750000", "114816.750000", "114818.750000", "114820.750000", "114822.750000", "114824.750000", "114826.750000", "114828.750000", "114830.750000", "114832.750000"],
      "ContentTime": ["114053.202000", "114054.686000", "114056.686000", "114058.686000", "114100.687000", "114102.686000", "114104.687000", "114106.686000", "114108.686000", "114110.686000", "114112.687000", "114114.686000", "114116.686000", "114118.686000", "114120.686000", "114122.687000", "114124.687000", "114126.687000", "114128.686000", "114130.686000", "114132.686000", "114134.686000", "114136.686000", "114138.686000", "114140.686000", "114142.686000", "114144.686000", "114146.686000", "114148.686000", "114150.687000", "114152.687000", "114154.686000", "114156.686000", "114158.686000", "114200.687000", "114202.687000", "114204.686000", "114206.686000", "114208.686000", "114210.686000", "114212.685000", "114214.687000", "114216.686000", "114218.686000", "114220.687000", "114222.686000", "114224.687000", "114226.687000", "114228.687000", "114230.686000", "114232.686000", "114234.686000", "114236.686000", "114238.686000", "114240.686000", "114242.686000", "114244.687000", "114246.687000", "114248.686000", "114250.686000", "114252.686000", "114254.687000", "114256.686000", "114258.686000", "114300.686000", "114302.686000", "114304.685000", "114306.687000", "114308.686000", "114310.687000", "114312.687000", "114314.686000", "114316.686000", "114318.686000", "114320.686000", "114322.686000", "114324.686000", "114326.686000", "114328.686000", "114330.686000", "114332.686000", "114334.686000", "114336.686000", "114338.686000", "114340.686000", "114342.686000", "114344.687000", "114346.686000", "114348.686000", "114350.687000", "114352.686000", "114354.686000", "114356.686000", "114358.686000", "114400.686000", "114402.686000", "114404.687000", "114406.686000", "114408.686000", "114410.686000", "114412.687000", "114414.685000", "114416.686000", "114418.686000", "114420.687000", "114422.686000", "114424.686000", "114426.687000", "114428.686000", "114430.686000", "114432.686000", "114434.686000", "114436.686000", "114438.687000", "114440.686000", "114442.687000", "114444.686000", "114446.686000", "114448.686000", "114450.686000", "114452.686000", "114454.686000", "114456.686000", "114458.687000", "114500.687000", "114502.686000", "114504.687000", "114506.686000", "114508.686000", "114510.686000", "114512.687000", "114514.687000", "114516.686000", "114518.686000", "114520.686000", "114522.687000", "114524.685000", "114526.686000", "114528.686000", "114530.686000", "114532.686000", "114534.686000", "114536.686000", "114538.686000", "114540.687000", "114542.686000", "114544.686000", "114546.687000", "114548.687000", "114550.686000", "114552.686000", "114554.686000", "114556.686000", "114558.686000", "114600.687000", "114602.687000", "114604.686000", "114606.687000", "114608.686000", "114610.686000", "114612.686000", "114614.686000", "114616.687000", "114618.687000", "114620.686000", "114622.696000", "114624.686000", "114626.687000", "114628.686000", "114630.686000", "114632.686000", "114634.686000", "114636.686000", "114638.686000", "114640.686000", "114642.686000", "114644.686000", "114646.686000", "114648.687000", "114650.686000", "114652.686000", "114654.687000", "114656.686000", "114658.687000", "114700.686000", "114702.686000", "114704.686000", "114706.687000", "114708.686000", "114710.686000", "114712.687000", "114714.686000", "114716.686000", "114718.687000", "114720.687000", "114722.687000", "114724.687000", "114726.686000", "114728.686000", "114730.686000", "114732.687000", "114734.686000", "114736.687000", "114738.686000", "114740.686000", "114742.686000", "114744.686000", "114746.687000", "114748.686000", "114750.686000", "114752.686000", "114754.686000", "114756.687000", "114758.686000", "114800.687000", "114802.686000", "114804.687000", "114806.686000", "114808.687000", "114810.686000", "114812.686000", "114814.687000", "114816.686000", "114818.686000", "114820.687000", "114822.686000", "114824.686000", "114826.687000", "114828.686000", "114830.687000", "114832.686000", "114834.351000"],
      "InstanceCreationTime": ["114053.202000", "114054.686000", "114056.686000", "114058.686000", "114100.687000", "114102.686000", "114104.687000", "114106.686000", "114108.686000", "114110.686000", "114112.687000", "114114.686000", "114116.686000", "114118.686000", "114120.686000", "114122.687000", "114124.687000", "114126.687000", "114128.686000", "114130.686000", "114132.686000", "114134.686000", "114136.686000", "114138.686000", "114140.686000", "114142.686000", "114144.686000", "114146.686000", "114148.686000", "114150.687000", "114152.687000", "114154.686000", "114156.686000", "114158.686000", "114200.687000", "114202.687000", "114204.686000", "114206.686000", "114208.686000", "114210.686000", "114212.685000", "114214.687000", "114216.686000", "114218.686000", "114220.687000", "114222.686000", "114224.687000", "114226.687000", "114228.687000", "114230.686000", "114232.686000", "114234.686000", "114236.686000", "114238.686000", "114240.686000", "114242.686000", "114244.687000", "114246.687000", "114248.686000", "114250.686000", "114252.686000", "114254.687000", "114256.686000", "114258.686000", "114300.686000", "114302.686000", "114304.685000", "114306.687000", "114308.686000", "114310.687000", "114312.687000", "114314.686000", "114316.686000", "114318.686000", "114320.686000", "114322.686000", "114324.686000", "114326.686000", "114328.686000", "114330.686000", "114332.686000", "114334.686000", "114336.686000", "114338.686000", "114340.686000", "114342.686000", "114344.687000", "114346.686000", "114348.686000", "114350.687000", "114352.686000", "114354.686000", "114356.686000", "114358.686000", "114400.686000", "114402.686000", "114404.687000", "114406.686000", "114408.686000", "114410.686000", "114412.687000", "114414.685000", "114416.686000", "114418.686000", "114420.687000", "114422.686000", "114424.686000", "114426.687000", "114428.686000", "114430.686000", "114432.686000", "114434.686000", "114436.686000", "114438.687000", "114440.686000", "114442.687000", "114444.686000", "114446.686000", "114448.686000", "114450.686000", "114452.686000", "114454.686000", "114456.686000", "114458.687000", "114500.687000", "114502.686000", "114504.687000", "114506.686000", "114508.686000", "114510.686000", "114512.687000", "114514.687000", "114516.686000", "114518.686000", "114520.686000", "114522.687000", "114524.685000", "114526.686000", "114528.686000", "114530.686000", "114532.686000", "114534.686000", "114536.686000", "114538.686000", "114540.687000", "114542.686000", "114544.686000", "114546.687000", "114548.687000", "114550.686000", "114552.686000", "114554.686000", "114556.686000", "114558.686000", "114600.687000", "114602.687000", "114604.686000", "114606.687000", "114608.686000", "114610.686000", "114612.686000", "114614.686000", "114616.687000", "114618.687000", "114620.686000", "114622.696000", "114624.686000", "114626.687000", "114628.686000", "114630.686000", "114632.686000", "114634.686000", "114636.686000", "114638.686000", "114640.686000", "114642.686000", "114644.686000", "114646.686000", "114648.687000", "114650.686000", "114652.686000", "114654.687000", "114656.686000", "114658.687000", "114700.686000", "114702.686000", "114704.686000", "114706.687000", "114708.686000", "114710.686000", "114712.687000", "114714.686000", "114716.686000", "114718.687000", "114720.687000", "114722.687000", "114724.687000", "114726.686000", "114728.686000", "114730.686000", "114732.687000", "114734.686000", "114736.687000", "114738.686000", "114740.686000", "114742.686000", "114744.686000", "114746.687000", "114748.686000", "114750.686000", "114752.686000", "114754.686000", "114756.687000", "114758.686000", "114800.687000", "114802.686000", "114804.687000", "114806.686000", "114808.687000", "114810.686000", "114812.686000", "114814.687000", "114816.686000", "114818.686000", "114820.687000", "114822.686000", "114824.686000", "114826.687000", "114828.686000", "114830.687000", "114832.686000", "114834.351000"],
      "InstanceNumber": [1, 2, 3, 4, 5, 6, 7, 8, 9, 10, 11, 12, 13, 14, 15, 16, 17, 18, 19, 20, 21, 22, 23, 24, 25, 26, 27, 28, 29, 30, 31, 32, 33, 34, 35, 36, 37, 38, 39, 40, 41, 42, 43, 44, 45, 46, 47, 48, 49, 50, 51, 52, 53, 54, 55, 56, 57, 58, 59, 60, 61, 62, 63, 64, 65, 66, 67, 68, 69, 70, 71, 72, 73, 74, 75, 76, 77, 78, 79, 80, 81, 82, 83, 84, 85, 86, 87, 88, 89, 90, 91, 92, 93, 94, 95, 96, 97, 98, 99, 100, 101, 102, 103, 104, 105, 106, 107, 108, 109, 110, 111, 112, 113, 114, 115, 116, 117, 118, 119, 120, 121, 122, 123, 124, 125, 126, 127, 128, 129, 130, 131, 132, 133, 134, 135, 136, 137, 138, 139, 140, 141, 142, 143, 144, 145, 146, 147, 148, 149, 150, 151, 152, 153, 154, 155, 156, 157, 158, 159, 160, 161, 162, 163, 164, 165, 166, 167, 168, 169, 170, 171, 172, 173, 174, 175, 176, 177, 178, 179, 180, 181, 182, 183, 184, 185, 186, 187, 188, 189, 190, 191, 192, 193, 194, 195, 196, 197, 198, 199, 200, 201, 202, 203, 204, 205, 206, 207, 208, 209, 210, 211, 212, 213, 214, 215, 216, 217, 218, 219, 220, 221, 222, 223, 224, 225, 226, 227, 228, 229, 230, 231, 232],
      "LargestImagePixelValue": [4095, 4095, 4095, 4095, 4095, 4095, 4095, 4095, 4095, 4095, 4095, 4095, 4095, 4095, 4095, 4095, 4095, 4095, 4095, 4095, 4095, 4095, 4095, 4095, 4095, 4095, 4095, 4095, 4095, 4095, 4095, 4095, 4095, 4095, 4095, 4095, 4095, 4095, 4095, 4095, 4095, 4095, 4095, 4095, 4095, 4095, 4095, 4095, 4095, 4095, 4095, 4095, 4095, 4095, 4095, 4095, 4095, 4095, 4095, 4095, 4095, 4095, 4095, 4095, 4095, 4095, 4095, 4095, 4095, 4095, 4095, 4095, 4095, 4095, 4095, 4095, 4095, 4095, 4095, 4095, 4095, 4095, 4095, 4095, 4095, 4095, 4095, 4095, 4095, 4095, 4095, 4095, 4095, 4095, 4095, 4095, 4095, 4095, 4015, 3980, 4095, 4051, 4025, 3943, 4095, 4095, 4095, 4095, 4095, 4095, 4095, 4095, 4095, 4095, 4095, 4095, 4095, 4095, 4095, 4095, 4095, 4095, 4095, 4095, 4095, 4095, 4095, 4095, 4095, 4095, 4062, 3955, 3894, 4095, 4095, 4086, 4095, 4095, 4095, 4095, 4095, 4095, 4095, 4095, 4095, 4095, 4095, 4095, 4095, 4095, 4095, 4095, 4095, 4095, 4095, 4095, 4095, 4095, 4095, 4095, 4095, 4095, 4095, 4095, 4095, 4095, 4095, 4095, 4095, 4095, 4095, 4095, 4095, 4095, 4095, 4095, 4095, 4095, 4095, 4095, 4095, 4095, 4095, 4095, 4095, 4095, 4095, 4095, 4095, 4095, 4095, 4095, 4095, 4095, 4095, 4095, 4095, 4095, 4095, 4095, 4095, 4095, 4095, 4095, 4095, 4095, 4095, 4095, 4095, 4095, 4095, 4095, 4061, 4095, 4020, 4095, 4095, 4095, 4095, 4095, 4095, 4095, 4095, 4095, 4095, 4095, 4095, 4095, 4095, 4095, 4095, 4095],
      "WindowCenter": [836.0, 833.0, 830.0, 831.0, 832.0, 830.0, 832.0, 834.0, 832.0, 833.0, 835.0, 834.0, 835.0, 834.0, 836.0, 835.0, 836.0, 838.0, 834.0, 837.0, 837.0, 836.0, 837.0, 836.0, 835.0, 833.0, 836.0, 838.0, 839.0, 839.0, 838.0, 837.0, 833.0, 833.0, 833.0, 836.0, 836.0, 833.0, 834.0, 834.0, 834.0, 832.0, 834.0, 835.0, 835.0, 833.0, 834.0, 835.0, 835.0, 835.0, 835.0, 834.0, 835.0, 837.0, 836.0, 834.0, 836.0, 837.0, 837.0, 836.0, 836.0, 836.0, 835.0, 835.0, 835.0, 834.0, 832.0, 833.0, 836.0, 834.0, 834.0, 836.0, 836.0, 833.0, 835.0, 835.0, 837.0, 837.0, 836.0, 834.0, 836.0, 836.0, 834.0, 835.0, 835.0, 836.0, 835.0, 834.0, 836.0, 837.0, 837.0, 837.0, 836.0, 836.0, 836.0, 837.0, 836.0, 833.0, 832.0, 829.0, 835.0, 829.0, 835.0, 832.0, 838.0, 834.0, 835.0, 837.0, 835.0, 835.0, 836.0, 835.0, 834.0, 837.0, 837.0, 837.0, 836.0, 835.0, 834.0, 832.0, 831.0, 833.0, 835.0, 834.0, 835.0, 835.0, 836.0, 834.0, 835.0, 836.0, 833.0, 833.0, 831.0, 836.0, 837.0, 836.0, 838.0, 834.0, 836.0, 835.0, 836.0, 836.0, 834.0, 835.0, 834.0, 833.0, 836.0, 835.0, 833.0, 835.0, 836.0, 835.0, 835.0, 836.0, 838.0, 839.0, 838.0, 836.0, 836.0, 836.0, 835.0, 834.0, 836.0, 836.0, 838.0, 837.0, 835.0, 834.0, 834.0, 837.0, 838.0, 837.0, 835.0, 832.0, 832.0, 835.0, 836.0, 833.0, 832.0, 834.0, 836.0, 837.0, 836.0, 834.0, 833.0, 834.0, 837.0, 836.0, 835.0, 835.0, 837.0, 837.0, 836.0, 835.0, 833.0, 834.0, 838.0, 838.0, 837.0, 836.0, 835.0, 835.0, 834.0, 834.0, 836.0, 835.0, 833.0, 835.0, 836.0, 831.0, 832.0, 834.0, 831.0, 832.0, 830.0, 831.0, 838.0, 838.0, 838.0, 837.0, 837.0, 835.0, 835.0, 836.0, 839.0, 840.0, 839.0, 837.0, 835.0, 835.0, 836.0, 838.0],
      "WindowWidth": [1863.0, 1855.0, 1845.0, 1848.0, 1851.0, 1846.0, 1853.0, 1858.0, 1851.0, 1854.0, 1860.0, 1857.0, 1860.0, 1859.0, 1864.0, 1860.0, 1865.0, 1871.0, 1860.0, 1868.0, 1868.0, 1864.0, 1866.0, 1865.0, 1860.0, 1853.0, 1864.0, 1871.0, 1872.0, 1874.0, 1870.0, 1865.0, 1853.0, 1854.0, 1855.0, 1863.0, 1863.0, 1854.0, 1857.0, 1857.0, 1858.0, 1852.0, 1857.0, 1860.0, 1858.0, 1854.0, 1857.0, 1860.0, 1859.0, 1859.0, 1860.0, 1856.0, 1861.0, 1865.0, 1862.0, 1858.0, 1862.0, 1867.0, 1866.0, 1861.0, 1861.0, 1861.0, 1860.0, 1860.0, 1859.0, 1855.0, 1850.0, 1854.0, 1862.0, 1857.0, 1856.0, 1862.0, 1861.0, 1853.0, 1859.0, 1859.0, 1865.0, 1865.0, 1863.0, 1856.0, 1863.0, 1864.0, 1858.0, 1859.0, 1859.0, 1863.0, 1860.0, 1858.0, 1862.0, 1866.0, 1865.0, 1865.0, 1864.0, 1861.0, 1862.0, 1864.0, 1863.0, 1854.0, 1851.0, 1840.0, 1861.0, 1841.0, 1860.0, 1852.0, 1868.0, 1858.0, 1859.0, 1865.0, 1861.0, 1859.0, 1863.0, 1860.0, 1858.0, 1865.0, 1865.0, 1867.0, 1864.0, 1859.0, 1857.0, 1850.0, 1847.0, 1853.0, 1858.0, 1856.0, 1859.0, 1859.0, 1863.0, 1856.0, 1859.0, 1861.0, 1853.0, 1852.0, 1846.0, 1863.0, 1867.0, 1862.0, 1868.0, 1855.0, 1863.0, 1860.0, 1863.0, 1860.0, 1854.0, 1858.0, 1856.0, 1854.0, 1861.0, 1858.0, 1853.0, 1858.0, 1861.0, 1859.0, 1859.0, 1861.0, 1868.0, 1871.0, 1868.0, 1863.0, 1861.0, 1861.0, 1859.0, 1855.0, 1862.0, 1863.0, 1867.0, 1865.0, 1857.0, 1856.0, 1858.0, 1866.0, 1869.0, 1865.0, 1859.0, 1850.0, 1848.0, 1857.0, 1861.0, 1853.0, 1851.0, 1857.0, 1863.0, 1864.0, 1861.0, 1855.0, 1854.0, 1856.0, 1864.0, 1862.0, 1859.0, 1857.0, 1863.0, 1865.0, 1861.0, 1857.0, 1853.0, 1856.0, 1866.0, 1867.0, 1864.0, 1862.0, 1860.0, 1860.0, 1855.0, 1857.0, 1862.0, 1857.0, 1851.0, 1857.0, 1861.0, 1847.0, 1850.0, 1856.0, 1846.0, 1851.0, 1846.0, 1848.0, 1867.0, 1867.0, 1867.0, 1864.0, 1863.0, 1857.0, 1859.0, 1861.0, 1870.0, 1873.0, 1871.0, 1864.0, 1858.0, 1857.0, 1860.0, 1868.0]
    },
    "slices": {}
  }
}