{
  "AcquisitionMatrixPE": 100,
  "AcquisitionNumber": 1,
  "AcquisitionTime": "11:49:37.695000",
  "BandwidthPerPixelPhaseEncode": 18.519,
  "BaseResolution": 100,
  "BodyPartExamined": "BRAIN",
  "ConsistencyInfo": "N4_VE11C_LATEST_20160120",
  "ConversionSoftware": "dcm2niix",
  "ConversionSoftwareVersion": "v1.0.20180622 GCC4.9.2",
  "DerivedVendorReportedEchoSpacing": 0.000539986,
  "DeviceSerialNumber": "166078",
  "DwellTime": 2.1e-06,
  "EchoTime": 0.034,
  "EchoTrainLength": 100,
  "EffectiveEchoSpacing": 0.000539986,
  "FlipAngle": 90,
  "ImageOrientationPatientDICOM": [0.99836, 0.00159772, 0.0572218, 0.0121979, 0.970715, -0.239923],
  "ImageType": [
    "ORIGINAL",
    "PRIMARY",
    "M",
    "ND",
    "MOSAIC"
],
  "InPlanePhaseEncodingDirectionDICOM": "COL",
  "InstitutionAddress": "Street_StreetNo_Bei_Jing_District_CN_ZIP",
  "InstitutionName": "BeiJing_Normal_University",
  "InstitutionalDepartmentName": "Department",
  "MRAcquisitionType": "2D",
  "MagneticFieldStrength": 3,
  "Manufacturer": "Siemens",
  "ManufacturersModelName": "Prisma",
  "Modality": "MR",
  "MultibandAccelerationFactor": 3,
  "PartialFourier": 1,
  "PatientPosition": "HFS",
  "PercentPhaseFOV": 100,
  "PhaseEncodingDirection": "j-",
  "PhaseEncodingSteps": 100,
  "PhaseResolution": 1,
  "PixelBandwidth": 2380,
  "ProcedureStepDescription": "BNU_P2018_64CH_Liu.Jia",
  "ProtocolName": "bold_100x100_s3_2x2x2_232",
  "PulseSequenceDetails": "%SiemensSeq%_ep2d_bold",
  "ReceiveCoilActiveElements": "HC1-7;NC1",
  "ReceiveCoilName": "HeadNeck_64",
  "ReconMatrixPE": 100,
  "RepetitionTime": 2,
  "SAR": 0.0691214,
  "ScanOptions": "FS",
  "ScanningSequence": "EP",
  "SequenceName": "_epfid2d1_100",
  "SequenceVariant": "SK",
  "SeriesDescription": "bold_100x100_s3_2x2x2_232",
  "SeriesNumber": 4,
  "ShimSetting": [-5449, -11481, -1253, 359, -23, -149, -76, 38],
  "SliceThickness": 2,
  "SliceTiming": [1.485, 0, 0.99, 0.0825, 1.0725, 0.165, 1.155, 0.2475, 1.2375, 0.33, 1.32, 0.4125, 1.4025, 0.5775, 1.5675, 0.66, 1.65, 0.7425, 1.7325, 0.825, 1.815, 0.9075, 1.8975, 0.495, 1.485, 0, 0.99, 0.0825, 1.0725, 0.165, 1.155, 0.2475, 1.2375, 0.33, 1.32, 0.4125, 1.4025, 0.5775, 1.5675, 0.66, 1.65, 0.7425, 1.7325, 0.825, 1.815, 0.9075, 1.8975, 0.495, 1.485, 0, 0.99, 0.0825, 1.0725, 0.165, 1.155, 0.2475, 1.2375, 0.33, 1.32, 0.4125, 1.4025, 0.5775, 1.5675, 0.66, 1.65, 0.7425, 1.7325, 0.825, 1.815, 0.9075, 1.8975, 0.495],
  "SoftwareVersions": "syngo_MR_E11",
  "SpacingBetweenSlices": 2,
  "StationName": "AWP166078",
  "TaskName": "motor",
  "TotalReadoutTime": 0.0534586,
  "TxRefAmp": 205.831,
  "dcmmeta_affine": [
    [-1.9967204332351685, 0.024395786225795746, 0.11185875535011292, 96.63899230957031],
    [-0.003195445518940687, 1.9414305686950684, -0.48045533895492554, -76.35770416259766],
    [0.11444354057312012, 0.47984620928764343, 1.938207983970642, -95.7234878540039],
    [0.0, 0.0, 0.0, 1.0]
],
  "dcmmeta_reorient_transform": [
    [0.0, -1.0, 0.0, 99.0],
    [1.0, 0.0, 0.0, 0.0],
    [0.0, 0.0, 1.0, 0.0],
    [0.0, 0.0, 0.0, 1.0]
],
  "dcmmeta_shape": [100, 100, 72, 232],
  "dcmmeta_slice_dim": 2,
  "dcmmeta_version": 0.6,
  "global": {
    "const": {
      "AcquisitionMatrix": [100, 0, 0, 100],
      "AngioFlag": "N",
      "BitsAllocated": 16,
      "BitsStored": 12,
      "BodyPartExamined": "BRAIN",
      "Columns": 900,
      "EchoNumbers": 1,
      "EchoTime": 34.0,
      "EchoTrainLength": 100,
      "FlipAngle": 90.0,
      "HighBit": 11,
      "ImageOrientationPatient": [0.99836021360171, 0.00159772275459, 0.05722177189795, 0.01219789328702, 0.97071525945156, -0.2399231053218],
      "ImagePositionPatient": [-907.50065850263, -893.69430147821, 97.94235425627],
      "ImageType": [
        "ORIGINAL",
        "PRIMARY",
        "M",
        "ND",
        "MOSAIC"
],
      "ImagedNucleus": "1H",
      "ImagingFrequency": 123.257846,
      "InPlanePhaseEncodingDirection": "COL",
      "MRAcquisitionType": "2D",
      "MagneticFieldStrength": 3.0,
      "Manufacturer": "SIEMENS",
      "ManufacturerModelName": "Prisma",
      "Modality": "MR",
      "NumberOfAverages": 1.0,
      "NumberOfPhaseEncodingSteps": 100,
      "PercentPhaseFieldOfView": 100.0,
      "PercentSampling": 100.0,
      "PerformedProcedureStepStartTime": "113750.675000",
      "PhotometricInterpretation": "MONOCHROME2",
      "PixelBandwidth": 2380.0,
      "PixelRepresentation": 0,
      "PixelSpacing": [2.0, 2.0],
      "ProtocolName": "bold_100x100_s3_2x2x2_232",
      "RepetitionTime": 2000.0,
      "Rows": 900,
      "SAR": 0.06912139876895,
      "SamplesPerPixel": 1,
      "ScanOptions": "FS",
      "ScanningSequence": "EP",
      "SequenceName": "*epfid2d1_100",
      "SequenceVariant": "SK",
      "SeriesDescription": "bold_100x100_s3_2x2x2_232",
      "SeriesNumber": 4,
      "SeriesTime": "114940.070000",
      "SliceLocation": -69.017822813549,
      "SliceThickness": 2.0,
      "SmallestImagePixelValue": 0,
      "SoftwareVersions": "syngo MR E11",
      "SpacingBetweenSlices": 2.0000000210253,
      "SpecificCharacterSet": "ISO_IR 100",
      "StudyID": "1",
      "StudyTime": "113750.576000",
      "TransmitCoilName": "Body",
      "VariableFlipAngleFlag": "N",
      "WindowCenterWidthExplanation": "Algo1",
      "dBdt": 0.0},
    "slices": {}
  },
  "time": {
    "samples": {
      "AcquisitionNumber": [1, 2, 3, 4, 5, 6, 7, 8, 9, 10, 11, 12, 13, 14, 15, 16, 17, 18, 19, 20, 21, 22, 23, 24, 25, 26, 27, 28, 29, 30, 31, 32, 33, 34, 35, 36, 37, 38, 39, 40, 41, 42, 43, 44, 45, 46, 47, 48, 49, 50, 51, 52, 53, 54, 55, 56, 57, 58, 59, 60, 61, 62, 63, 64, 65, 66, 67, 68, 69, 70, 71, 72, 73, 74, 75, 76, 77, 78, 79, 80, 81, 82, 83, 84, 85, 86, 87, 88, 89, 90, 91, 92, 93, 94, 95, 96, 97, 98, 99, 100, 101, 102, 103, 104, 105, 106, 107, 108, 109, 110, 111, 112, 113, 114, 115, 116, 117, 118, 119, 120, 121, 122, 123, 124, 125, 126, 127, 128, 129, 130, 131, 132, 133, 134, 135, 136, 137, 138, 139, 140, 141, 142, 143, 144, 145, 146, 147, 148, 149, 150, 151, 152, 153, 154, 155, 156, 157, 158, 159, 160, 161, 162, 163, 164, 165, 166, 167, 168, 169, 170, 171, 172, 173, 174, 175, 176, 177, 178, 179, 180, 181, 182, 183, 184, 185, 186, 187, 188, 189, 190, 191, 192, 193, 194, 195, 196, 197, 198, 199, 200, 201, 202, 203, 204, 205, 206, 207, 208, 209, 210, 211, 212, 213, 214, 215, 216, 217, 218, 219, 220, 221, 222, 223, 224, 225, 226, 227, 228, 229, 230, 231, 232],
      "AcquisitionTime": ["114937.695000", "114939.695000", "114941.695000", "114943.695000", "114945.695000", "114947.695000", "114949.695000", "114951.695000", "114953.695000", "114955.695000", "114957.695000", "114959.695000", "115001.695000", "115003.695000", "115005.695000", "115007.695000", "115009.695000", "115011.695000", "115013.695000", "115015.695000", "115017.695000", "115019.695000", "115021.695000", "115023.695000", "115025.695000", "115027.695000", "115029.695000", "115031.695000", "115033.695000", "115035.695000", "115037.695000", "115039.695000", "115041.695000", "115043.695000", "115045.695000", "115047.695000", "115049.695000", "115051.695000", "115053.695000", "115055.695000", "115057.695000", "115059.695000", "115101.695000", "115103.695000", "115105.695000", "115107.695000", "115109.695000", "115111.695000", "115113.695000", "115115.695000", "115117.695000", "115119.695000", "115121.695000", "115123.695000", "115125.695000", "115127.695000", "115129.695000", "115131.695000", "115133.695000", "115135.695000", "115137.695000", "115139.695000", "115141.695000", "115143.695000", "115145.695000", "115147.695000", "115149.695000", "115151.695000", "115153.695000", "115155.695000", "115157.695000", "115159.695000", "115201.695000", "115203.695000", "115205.695000", "115207.695000", "115209.695000", "115211.695000", "115213.695000", "115215.695000", "115217.695000", "115219.695000", "115221.695000", "115223.695000", "115225.695000", "115227.695000", "115229.695000", "115231.695000", "115233.695000", "115235.695000", "115237.695000", "115239.695000", "115241.695000", "115243.695000", "115245.695000", "115247.695000", "115249.695000", "115251.695000", "115253.695000", "115255.695000", "115257.695000", "115259.695000", "115301.695000", "115303.695000", "115305.695000", "115307.695000", "115309.695000", "115311.695000", "115313.695000", "115315.695000", "115317.695000", "115319.695000", "115321.695000", "115323.695000", "115325.695000", "115327.695000", "115329.695000", "115331.695000", "115333.695000", "115335.695000", "115337.695000", "115339.695000", "115341.695000", "115343.695000", "115345.695000", "115347.695000", "115349.695000", "115351.695000", "115353.695000", "115355.695000", "115357.695000", "115359.695000", "115401.695000", "115403.695000", "115405.695000", "115407.695000", "115409.695000", "115411.695000", "115413.695000", "115415.695000", "115417.695000", "115419.695000", "115421.695000", "115423.695000", "115425.695000", "115427.695000", "115429.695000", "115431.695000", "115433.695000", "115435.695000", "115437.695000", "115439.695000", "115441.695000", "115443.695000", "115445.695000", "115447.695000", "115449.695000", "115451.695000", "115453.695000", "115455.695000", "115457.695000", "115459.695000", "115501.695000", "115503.695000", "115505.695000", "115507.695000", "115509.695000", "115511.695000", "115513.695000", "115515.695000", "115517.695000", "115519.695000", "115521.695000", "115523.695000", "115525.695000", "115527.695000", "115529.695000", "115531.695000", "115533.695000", "115535.695000", "115537.695000", "115539.695000", "115541.695000", "115543.695000", "115545.695000", "115547.695000", "115549.695000", "115551.695000", "115553.695000", "115555.695000", "115557.695000", "115559.695000", "115601.695000", "115603.695000", "115605.695000", "115607.695000", "115609.695000", "115611.695000", "115613.695000", "115615.695000", "115617.695000", "115619.695000", "115621.695000", "115623.695000", "115625.695000", "115627.695000", "115629.695000", "115631.695000", "115633.695000", "115635.695000", "115637.695000", "115639.695000", "115641.695000", "115643.695000", "115645.695000", "115647.695000", "115649.695000", "115651.695000", "115653.695000", "115655.695000", "115657.695000", "115659.695000", "115701.695000", "115703.695000", "115705.695000", "115707.695000", "115709.695000", "115711.695000", "115713.695000", "115715.695000", "115717.695000", "115719.695000"],
      "ContentTime": ["114940.073000", "114941.569000", "114943.570000", "114945.569000", "114947.569000", "114949.569000", "114951.569000", "114953.569000", "114955.569000", "114957.569000", "114959.569000", "115001.570000", "115003.569000", "115005.569000", "115007.569000", "115009.569000", "115011.569000", "115013.569000", "115015.569000", "115017.569000", "115019.569000", "115021.568000", "115023.569000", "115025.570000", "115027.569000", "115029.569000", "115031.570000", "115033.570000", "115035.570000", "115037.569000", "115039.569000", "115041.569000", "115043.569000", "115045.569000", "115047.570000", "115049.569000", "115051.569000", "115053.569000", "115055.569000", "115057.569000", "115059.569000", "115101.569000", "115103.569000", "115105.570000", "115107.569000", "115109.569000", "115111.569000", "115113.569000", "115115.570000", "115117.570000", "115119.569000", "115121.569000", "115123.569000", "115125.569000", "115127.569000", "115129.570000", "115131.568000", "115133.569000", "115135.569000", "115137.569000", "115139.569000", "115141.570000", "115143.569000", "115145.569000", "115147.569000", "115149.568000", "115151.569000", "115153.569000", "115155.569000", "115157.570000", "115159.570000", "115201.569000", "115203.569000", "115205.569000", "115207.569000", "115209.569000", "115211.569000", "115213.569000", "115215.570000", "115217.569000", "115219.569000", "115221.569000", "115223.570000", "115225.569000", "115227.570000", "115229.569000", "115231.570000", "115233.569000", "115235.569000", "115237.570000", "115239.569000", "115241.569000", "115243.570000", "115245.569000", "115247.569000", "115249.570000", "115251.570000", "115253.569000", "115255.570000", "115257.570000", "115259.568000", "115301.570000", "115303.569000", "115305.569000", "115307.569000", "115309.569000", "115311.570000", "115313.569000", "115315.569000", "115317.570000", "115319.569000", "115321.569000", "115323.569000", "115325.570000", "115327.569000", "115329.569000", "115331.569000", "115333.569000", "115335.569000", "115337.569000", "115339.569000", "115341.569000", "115343.569000", "115345.570000", "115347.569000", "115349.569000", "115351.568000", "115353.569000", "115355.569000", "115357.569000", "115359.569000", "115401.569000", "115403.569000", "115405.569000", "115407.570000", "115409.568000", "115411.569000", "115413.569000", "115415.569000", "115417.569000", "115419.570000", "115421.569000", "115423.569000", "115425.570000", "115427.569000", "115429.569000", "115431.570000", "115433.569000", "115435.569000", "115437.570000", "115439.570000", "115441.570000", "115443.569000", "115445.569000", "115447.569000", "115449.569000", "115451.569000", "115453.569000", "115455.569000", "115457.570000", "115459.569000", "115501.569000", "115503.569000", "115505.569000", "115507.569000", "115509.570000", "115511.571000", "115513.572000", "115515.571000", "115517.569000", "115519.568000", "115521.569000", "115523.570000", "115525.570000", "115527.569000", "115529.569000", "115531.569000", "115533.569000", "115535.570000", "115537.569000", "115539.569000", "115541.570000", "115543.569000", "115545.569000", "115547.569000", "115549.569000", "115551.570000", "115553.569000", "115555.569000", "115557.569000", "115559.569000", "115601.570000", "115603.569000", "115605.570000", "115607.569000", "115609.570000", "115611.569000", "115613.569000", "115615.569000", "115617.569000", "115619.569000", "115621.570000", "115623.569000", "115625.569000", "115627.570000", "115629.569000", "115631.569000", "115633.569000", "115635.569000", "115637.583000", "115639.569000", "115641.569000", "115643.569000", "115645.569000", "115647.570000", "115649.569000", "115651.570000", "115653.569000", "115655.569000", "115657.570000", "115659.570000", "115701.569000", "115703.569000", "115705.569000", "115707.569000", "115709.569000", "115711.569000", "115713.569000", "115715.569000", "115717.569000", "115719.569000", "115721.212000"],
      "InstanceCreationTime": ["114940.073000", "114941.569000", "114943.570000", "114945.569000", "114947.569000", "114949.569000", "114951.569000", "114953.569000", "114955.569000", "114957.569000", "114959.569000", "115001.570000", "115003.569000", "115005.569000", "115007.569000", "115009.569000", "115011.569000", "115013.569000", "115015.569000", "115017.569000", "115019.569000", "115021.568000", "115023.569000", "115025.570000", "115027.569000", "115029.569000", "115031.570000", "115033.570000", "115035.570000", "115037.569000", "115039.569000", "115041.569000", "115043.569000", "115045.569000", "115047.570000", "115049.569000", "115051.569000", "115053.569000", "115055.569000", "115057.569000", "115059.569000", "115101.569000", "115103.569000", "115105.570000", "115107.569000", "115109.569000", "115111.569000", "115113.569000", "115115.570000", "115117.570000", "115119.569000", "115121.569000", "115123.569000", "115125.569000", "115127.569000", "115129.570000", "115131.568000", "115133.569000", "115135.569000", "115137.569000", "115139.569000", "115141.570000", "115143.569000", "115145.569000", "115147.569000", "115149.568000", "115151.569000", "115153.569000", "115155.569000", "115157.570000", "115159.570000", "115201.569000", "115203.569000", "115205.569000", "115207.569000", "115209.569000", "115211.569000", "115213.569000", "115215.570000", "115217.569000", "115219.569000", "115221.569000", "115223.570000", "115225.569000", "115227.570000", "115229.569000", "115231.570000", "115233.569000", "115235.569000", "115237.570000", "115239.569000", "115241.569000", "115243.570000", "115245.569000", "115247.569000", "115249.570000", "115251.570000", "115253.569000", "115255.570000", "115257.570000", "115259.568000", "115301.570000", "115303.569000", "115305.569000", "115307.569000", "115309.569000", "115311.570000", "115313.569000", "115315.569000", "115317.570000", "115319.569000", "115321.569000", "115323.569000", "115325.570000", "115327.569000", "115329.569000", "115331.569000", "115333.569000", "115335.569000", "115337.569000", "115339.569000", "115341.569000", "115343.569000", "115345.570000", "115347.569000", "115349.569000", "115351.568000", "115353.569000", "115355.569000", "115357.569000", "115359.569000", "115401.569000", "115403.569000", "115405.569000", "115407.570000", "115409.568000", "115411.569000", "115413.569000", "115415.569000", "115417.569000", "115419.570000", "115421.569000", "115423.569000", "115425.570000", "115427.569000", "115429.569000", "115431.570000", "115433.569000", "115435.569000", "115437.570000", "115439.570000", "115441.570000", "115443.569000", "115445.569000", "115447.569000", "115449.569000", "115451.569000", "115453.569000", "115455.569000", "115457.570000", "115459.569000", "115501.569000", "115503.569000", "115505.569000", "115507.569000", "115509.570000", "115511.571000", "115513.572000", "115515.571000", "115517.569000", "115519.568000", "115521.569000", "115523.570000", "115525.570000", "115527.569000", "115529.569000", "115531.569000", "115533.569000", "115535.570000", "115537.569000", "115539.569000", "115541.570000", "115543.569000", "115545.569000", "115547.569000", "115549.569000", "115551.570000", "115553.569000", "115555.569000", "115557.569000", "115559.569000", "115601.570000", "115603.569000", "115605.570000", "115607.569000", "115609.570000", "115611.569000", "115613.569000", "115615.569000", "115617.569000", "115619.569000", "115621.570000", "115623.569000", "115625.569000", "115627.570000", "115629.569000", "115631.569000", "115633.569000", "115635.569000", "115637.583000", "115639.569000", "115641.569000", "115643.569000", "115645.569000", "115647.570000", "115649.569000", "115651.570000", "115653.569000", "115655.569000", "115657.570000", "115659.570000", "115701.569000", "115703.569000", "115705.569000", "115707.569000", "115709.569000", "115711.569000", "115713.569000", "115715.569000", "115717.569000", "115719.569000", "115721.212000"],
      "InstanceNumber": [1, 2, 3, 4, 5, 6, 7, 8, 9, 10, 11, 12, 13, 14, 15, 16, 17, 18, 19, 20, 21, 22, 23, 24, 25, 26, 27, 28, 29, 30, 31, 32, 33, 34, 35, 36, 37, 38, 39, 40, 41, 42, 43, 44, 45, 46, 47, 48, 49, 50, 51, 52, 53, 54, 55, 56, 57, 58, 59, 60, 61, 62, 63, 64, 65, 66, 67, 68, 69, 70, 71, 72, 73, 74, 75, 76, 77, 78, 79, 80, 81, 82, 83, 84, 85, 86, 87, 88, 89, 90, 91, 92, 93, 94, 95, 96, 97, 98, 99, 100, 101, 102, 103, 104, 105, 106, 107, 108, 109, 110, 111, 112, 113, 114, 115, 116, 117, 118, 119, 120, 121, 122, 123, 124, 125, 126, 127, 128, 129, 130, 131, 132, 133, 134, 135, 136, 137, 138, 139, 140, 141, 142, 143, 144, 145, 146, 147, 148, 149, 150, 151, 152, 153, 154, 155, 156, 157, 158, 159, 160, 161, 162, 163, 164, 165, 166, 167, 168, 169, 170, 171, 172, 173, 174, 175, 176, 177, 178, 179, 180, 181, 182, 183, 184, 185, 186, 187, 188, 189, 190, 191, 192, 193, 194, 195, 196, 197, 198, 199, 200, 201, 202, 203, 204, 205, 206, 207, 208, 209, 210, 211, 212, 213, 214, 215, 216, 217, 218, 219, 220, 221, 222, 223, 224, 225, 226, 227, 228, 229, 230, 231, 232],
      "LargestImagePixelValue": [4095, 4095, 4095, 4095, 4095, 4095, 4095, 4095, 4095, 4095, 4095, 4095, 4095, 4095, 4095, 4095, 4095, 4095, 4095, 4095, 4095, 4095, 4095, 4095, 4095, 4095, 3962, 4095, 4095, 4095, 4095, 4095, 4095, 4095, 4095, 3968, 4095, 4063, 4043, 3973, 4095, 4095, 4095, 4095, 4095, 4095, 4095, 4095, 4095, 4095, 4095, 4095, 4095, 4095, 4095, 4095, 4095, 4095, 4095, 4095, 4095, 4095, 4095, 4095, 4095, 4095, 4095, 4095, 4095, 4095, 4095, 4095, 4095, 4095, 4095, 4095, 4095, 4095, 4095, 4095, 4095, 4095, 4095, 4082, 4095, 4095, 4095, 4095, 4095, 4095, 4095, 4084, 4095, 4095, 4095, 4095, 4095, 4095, 4095, 4095, 4095, 4095, 4095, 4095, 4095, 4095, 4095, 4095, 4095, 4095, 4095, 4095, 4095, 4095, 4095, 4095, 4095, 4095, 4095, 4095, 4095, 4095, 4088, 4095, 4095, 4095, 4095, 4095, 4095, 4095, 4095, 4095, 4095, 4095, 4095, 4095, 4095, 4095, 4095, 4095, 4095, 4095, 4095, 4095, 4095, 4095, 4095, 4095, 4095, 4095, 4095, 4095, 4095, 4095, 4095, 4095, 4095, 4095, 4095, 4095, 4095, 4095, 4095, 4095, 4095, 4095, 4095, 4095, 4095, 4095, 4095, 4095, 4095, 4095, 4095, 4095, 4095, 4095, 4095, 4095, 4095, 4095, 4095, 4095, 4095, 4095, 4095, 4095, 4095, 4095, 4095, 4095, 4095, 4095, 4095, 4095, 4095, 4095, 4095, 4095, 4095, 4095, 4095, 4095, 4095, 4095, 4095, 4095, 4095, 4095, 4095, 4095, 4095, 4095, 4095, 4095, 4095, 4095, 4095, 4095, 4095, 4095, 4095, 4095, 4095, 4095, 4095, 4095, 4095, 4095, 4095, 4095],
      "WindowCenter": [837.0, 835.0, 835.0, 838.0, 839.0, 838.0, 836.0, 835.0, 834.0, 834.0, 839.0, 841.0, 839.0, 836.0, 836.0, 839.0, 839.0, 838.0, 830.0, 832.0, 838.0, 839.0, 838.0, 839.0, 839.0, 838.0, 827.0, 837.0, 838.0, 839.0, 839.0, 838.0, 839.0, 837.0, 837.0, 839.0, 840.0, 839.0, 842.0, 839.0, 841.0, 841.0, 841.0, 840.0, 841.0, 842.0, 843.0, 842.0, 842.0, 843.0, 843.0, 840.0, 839.0, 839.0, 839.0, 839.0, 839.0, 839.0, 837.0, 837.0, 839.0, 838.0, 838.0, 839.0, 839.0, 838.0, 840.0, 841.0, 840.0, 839.0, 838.0, 838.0, 840.0, 840.0, 840.0, 839.0, 837.0, 837.0, 839.0, 840.0, 837.0, 838.0, 838.0, 839.0, 838.0, 838.0, 840.0, 840.0, 839.0, 838.0, 840.0, 839.0, 839.0, 839.0, 838.0, 837.0, 837.0, 835.0, 835.0, 837.0, 837.0, 836.0, 835.0, 833.0, 834.0, 833.0, 838.0, 835.0, 835.0, 834.0, 838.0, 839.0, 839.0, 837.0, 838.0, 837.0, 838.0, 838.0, 837.0, 836.0, 838.0, 840.0, 836.0, 842.0, 841.0, 842.0, 838.0, 837.0, 840.0, 841.0, 839.0, 837.0, 839.0, 840.0, 839.0, 838.0, 837.0, 837.0, 837.0, 837.0, 835.0, 836.0, 837.0, 838.0, 836.0, 836.0, 836.0, 837.0, 836.0, 838.0, 836.0, 837.0, 838.0, 840.0, 839.0, 838.0, 840.0, 839.0, 839.0, 840.0, 840.0, 840.0, 840.0, 841.0, 839.0, 838.0, 839.0, 839.0, 838.0, 836.0, 838.0, 839.0, 840.0, 840.0, 837.0, 836.0, 839.0, 840.0, 839.0, 837.0, 839.0, 839.0, 838.0, 839.0, 838.0, 837.0, 840.0, 841.0, 840.0, 839.0, 837.0, 838.0, 839.0, 839.0, 835.0, 839.0, 839.0, 840.0, 841.0, 838.0, 840.0, 840.0, 840.0, 837.0, 838.0, 839.0, 839.0, 840.0, 839.0, 839.0, 836.0, 837.0, 840.0, 839.0, 838.0, 840.0, 841.0, 839.0, 838.0, 837.0, 836.0, 837.0, 838.0, 841.0, 839.0, 839.0, 838.0, 838.0, 840.0, 839.0, 838.0, 837.0],
      "WindowWidth": [1866.0, 1859.0, 1860.0, 1867.0, 1870.0, 1867.0, 1862.0, 1859.0, 1855.0, 1858.0, 1872.0, 1877.0, 1872.0, 1863.0, 1864.0, 1871.0, 1872.0, 1870.0, 1846.0, 1851.0, 1866.0, 1870.0, 1868.0, 1871.0, 1869.0, 1866.0, 1833.0, 1865.0, 1867.0, 1868.0, 1870.0, 1864.0, 1870.0, 1863.0, 1865.0, 1870.0, 1873.0, 1869.0, 1877.0, 1868.0, 1877.0, 1876.0, 1875.0, 1871.0, 1874.0, 1879.0, 1880.0, 1878.0, 1880.0, 1882.0, 1880.0, 1872.0, 1870.0, 1871.0, 1871.0, 1869.0, 1868.0, 1868.0, 1862.0, 1864.0, 1869.0, 1867.0, 1866.0, 1870.0, 1870.0, 1866.0, 1872.0, 1877.0, 1874.0, 1870.0, 1866.0, 1866.0, 1872.0, 1874.0, 1872.0, 1869.0, 1863.0, 1864.0, 1872.0, 1873.0, 1862.0, 1866.0, 1869.0, 1870.0, 1867.0, 1866.0, 1873.0, 1874.0, 1871.0, 1869.0, 1875.0, 1872.0, 1872.0, 1872.0, 1867.0, 1865.0, 1863.0, 1858.0, 1857.0, 1864.0, 1866.0, 1861.0, 1857.0, 1852.0, 1856.0, 1854.0, 1867.0, 1858.0, 1859.0, 1856.0, 1868.0, 1872.0, 1870.0, 1864.0, 1866.0, 1863.0, 1867.0, 1868.0, 1864.0, 1860.0, 1867.0, 1874.0, 1862.0, 1879.0, 1878.0, 1880.0, 1868.0, 1867.0, 1875.0, 1877.0, 1869.0, 1866.0, 1871.0, 1874.0, 1871.0, 1868.0, 1865.0, 1864.0, 1865.0, 1865.0, 1859.0, 1863.0, 1864.0, 1866.0, 1862.0, 1861.0, 1862.0, 1866.0, 1862.0, 1867.0, 1863.0, 1865.0, 1869.0, 1873.0, 1870.0, 1869.0, 1875.0, 1870.0, 1870.0, 1874.0, 1874.0, 1875.0, 1876.0, 1878.0, 1870.0, 1866.0, 1870.0, 1871.0, 1869.0, 1860.0, 1868.0, 1873.0, 1875.0, 1874.0, 1865.0, 1862.0, 1870.0, 1874.0, 1871.0, 1865.0, 1870.0, 1871.0, 1869.0, 1871.0, 1867.0, 1864.0, 1873.0, 1877.0, 1875.0, 1869.0, 1866.0, 1867.0, 1870.0, 1872.0, 1860.0, 1871.0, 1873.0, 1875.0, 1876.0, 1868.0, 1876.0, 1875.0, 1873.0, 1865.0, 1869.0, 1870.0, 1870.0, 1873.0, 1871.0, 1869.0, 1863.0, 1864.0, 1873.0, 1870.0, 1867.0, 1874.0, 1876.0, 1872.0, 1868.0, 1866.0, 1863.0, 1865.0, 1869.0, 1876.0, 1870.0, 1872.0, 1868.0, 1869.0, 1873.0, 1871.0, 1867.0, 1865.0]
    },
    "slices": {}
  }
}