{
  "AcquisitionMatrixPE": 100,
  "AcquisitionNumber": 1,
  "AcquisitionTime": "09:21:44.202500",
  "BandwidthPerPixelPhaseEncode": 18.519,
  "BaseResolution": 100,
  "BodyPartExamined": "BRAIN",
  "ConsistencyInfo": "N4_VE11C_LATEST_20160120",
  "ConversionSoftware": "dcm2niix",
  "ConversionSoftwareVersion": "v1.0.20180622 GCC4.9.2",
  "DerivedVendorReportedEchoSpacing": 0.000539986,
  "DeviceSerialNumber": "166078",
  "DwellTime": 2.1e-06,
  "EchoTime": 0.034,
  "EchoTrainLength": 100,
  "EffectiveEchoSpacing": 0.000539986,
  "FlipAngle": 90,
  "ImageOrientationPatientDICOM": [1, -6.78895e-05, -0.000324879, 2.68361e-08, 0.978873, -0.204471],
  "ImageType": [
    "ORIGINAL",
    "PRIMARY",
    "M",
    "ND",
    "MOSAIC"
],
  "InPlanePhaseEncodingDirectionDICOM": "COL",
  "InstitutionAddress": "Street_StreetNo_Bei_Jing_District_CN_ZIP",
  "InstitutionName": "BeiJing_Normal_University",
  "InstitutionalDepartmentName": "Department",
  "MRAcquisitionType": "2D",
  "MagneticFieldStrength": 3,
  "Manufacturer": "Siemens",
  "ManufacturersModelName": "Prisma",
  "Modality": "MR",
  "MultibandAccelerationFactor": 3,
  "PartialFourier": 1,
  "PatientPosition": "HFS",
  "PercentPhaseFOV": 100,
  "PhaseEncodingDirection": "j-",
  "PhaseEncodingSteps": 100,
  "PhaseResolution": 1,
  "PixelBandwidth": 2380,
  "ProcedureStepDescription": "BNU_P2018_64CH_Liu.Jia",
  "ProtocolName": "bold_100x100_s3_2x2x2_232",
  "PulseSequenceDetails": "%SiemensSeq%_ep2d_bold",
  "ReceiveCoilActiveElements": "HC1-7;NC1",
  "ReceiveCoilName": "HeadNeck_64",
  "ReconMatrixPE": 100,
  "RepetitionTime": 2,
  "SAR": 0.0650575,
  "ScanOptions": "FS",
  "ScanningSequence": "EP",
  "SequenceName": "_epfid2d1_100",
  "SequenceVariant": "SK",
  "SeriesDescription": "bold_100x100_s3_2x2x2_232",
  "SeriesNumber": 4,
  "ShimSetting": [-5477, -11497, -1259, 269, -61, -300, -175, 67],
  "SliceThickness": 2,
  "SliceTiming": [1.485, 0, 0.99, 0.0825, 1.0725, 0.165, 1.155, 0.2475, 1.2375, 0.33, 1.32, 0.4125, 1.4025, 0.5775, 1.5675, 0.66, 1.65, 0.7425, 1.7325, 0.825, 1.815, 0.9075, 1.8975, 0.495, 1.485, 0, 0.99, 0.0825, 1.0725, 0.165, 1.155, 0.2475, 1.2375, 0.33, 1.32, 0.4125, 1.4025, 0.5775, 1.5675, 0.66, 1.65, 0.7425, 1.7325, 0.825, 1.815, 0.9075, 1.8975, 0.495, 1.485, 0, 0.99, 0.0825, 1.0725, 0.165, 1.155, 0.2475, 1.2375, 0.33, 1.32, 0.4125, 1.4025, 0.5775, 1.5675, 0.66, 1.65, 0.7425, 1.7325, 0.825, 1.815, 0.9075, 1.8975, 0.495],
  "SoftwareVersions": "syngo_MR_E11",
  "SpacingBetweenSlices": 2,
  "StationName": "AWP166078",
  "TaskName": "motor",
  "TotalReadoutTime": 0.0534586,
  "TxRefAmp": 211.758,
  "dcmmeta_affine": [
    [-1.9999998807907104, 5.367226663111069e-08, -0.0006637934129685163, 102.15424346923828],
    [0.000135778944240883, 1.9577453136444092, -0.4089416563510895, -90.13007354736328],
    [-0.0006497582653537393, 0.40894168615341187, 1.9577451944351196, -82.04549407958984],
    [0.0, 0.0, 0.0, 1.0]
],
  "dcmmeta_reorient_transform": [
    [0.0, -1.0, 0.0, 99.0],
    [1.0, 0.0, 0.0, 0.0],
    [0.0, 0.0, 1.0, 0.0],
    [0.0, 0.0, 0.0, 1.0]
],
  "dcmmeta_shape": [100, 100, 72, 232],
  "dcmmeta_slice_dim": 2,
  "dcmmeta_version": 0.6,
  "global": {
    "const": {
      "AcquisitionMatrix": [100, 0, 0, 100],
      "AngioFlag": "N",
      "BitsAllocated": 16,
      "BitsStored": 12,
      "BodyPartExamined": "BRAIN",
      "Columns": 900,
      "EchoNumbers": 1,
      "EchoTime": 34.0,
      "EchoTrainLength": 100,
      "FlipAngle": 90.0,
      "HighBit": 11,
      "ImageOrientationPatient": [0.99999994492229, -6.78894689e-05, -0.00032487912, 2.6836134e-08, 0.97887265423343, -0.2044708458289],
      "ImagePositionPatient": [-902.15422973433, -886.73052074049, 122.2763117558],
      "ImageType": [
        "ORIGINAL",
        "PRIMARY",
        "M",
        "ND",
        "MOSAIC"
],
      "ImagedNucleus": "1H",
      "ImagingFrequency": 123.257803,
      "InPlanePhaseEncodingDirection": "COL",
      "LargestImagePixelValue": 4095,
      "MRAcquisitionType": "2D",
      "MagneticFieldStrength": 3.0,
      "Manufacturer": "SIEMENS",
      "ManufacturerModelName": "Prisma",
      "Modality": "MR",
      "NumberOfAverages": 1.0,
      "NumberOfPhaseEncodingSteps": 100,
      "PercentPhaseFieldOfView": 100.0,
      "PercentSampling": 100.0,
      "PerformedProcedureStepStartTime": "090627.219000",
      "PhotometricInterpretation": "MONOCHROME2",
      "PixelBandwidth": 2380.0,
      "PixelRepresentation": 0,
      "PixelSpacing": [2.0, 2.0],
      "ProtocolName": "bold_100x100_s3_2x2x2_232",
      "RepetitionTime": 2000.0,
      "Rows": 900,
      "SAR": 0.06505748117073,
      "SamplesPerPixel": 1,
      "ScanOptions": "FS",
      "ScanningSequence": "EP",
      "SequenceName": "*epfid2d1_100",
      "SequenceVariant": "SK",
      "SeriesDescription": "bold_100x100_s3_2x2x2_232",
      "SeriesNumber": 4,
      "SeriesTime": "092146.822000",
      "SliceLocation": -61.917020373165,
      "SliceThickness": 2.0,
      "SmallestImagePixelValue": 0,
      "SoftwareVersions": "syngo MR E11",
      "SpacingBetweenSlices": 1.999999984066,
      "SpecificCharacterSet": "ISO_IR 100",
      "StudyID": "1",
      "StudyTime": "090627.049000",
      "TransmitCoilName": "Body",
      "VariableFlipAngleFlag": "N",
      "WindowCenterWidthExplanation": "Algo1",
      "dBdt": 0.0},
    "slices": {}
  },
  "time": {
    "samples": {
      "AcquisitionNumber": [1, 2, 3, 4, 5, 6, 7, 8, 9, 10, 11, 12, 13, 14, 15, 16, 17, 18, 19, 20, 21, 22, 23, 24, 25, 26, 27, 28, 29, 30, 31, 32, 33, 34, 35, 36, 37, 38, 39, 40, 41, 42, 43, 44, 45, 46, 47, 48, 49, 50, 51, 52, 53, 54, 55, 56, 57, 58, 59, 60, 61, 62, 63, 64, 65, 66, 67, 68, 69, 70, 71, 72, 73, 74, 75, 76, 77, 78, 79, 80, 81, 82, 83, 84, 85, 86, 87, 88, 89, 90, 91, 92, 93, 94, 95, 96, 97, 98, 99, 100, 101, 102, 103, 104, 105, 106, 107, 108, 109, 110, 111, 112, 113, 114, 115, 116, 117, 118, 119, 120, 121, 122, 123, 124, 125, 126, 127, 128, 129, 130, 131, 132, 133, 134, 135, 136, 137, 138, 139, 140, 141, 142, 143, 144, 145, 146, 147, 148, 149, 150, 151, 152, 153, 154, 155, 156, 157, 158, 159, 160, 161, 162, 163, 164, 165, 166, 167, 168, 169, 170, 171, 172, 173, 174, 175, 176, 177, 178, 179, 180, 181, 182, 183, 184, 185, 186, 187, 188, 189, 190, 191, 192, 193, 194, 195, 196, 197, 198, 199, 200, 201, 202, 203, 204, 205, 206, 207, 208, 209, 210, 211, 212, 213, 214, 215, 216, 217, 218, 219, 220, 221, 222, 223, 224, 225, 226, 227, 228, 229, 230, 231, 232],
      "AcquisitionTime": ["092144.202500", "092146.202500", "092148.202500", "092150.202500", "092152.202500", "092154.202500", "092156.202500", "092158.202500", "092200.202500", "092202.202500", "092204.202500", "092206.202500", "092208.202500", "092210.202500", "092212.202500", "092214.202500", "092216.202500", "092218.202500", "092220.202500", "092222.202500", "092224.202500", "092226.202500", "092228.202500", "092230.202500", "092232.202500", "092234.202500", "092236.202500", "092238.202500", "092240.202500", "092242.202500", "092244.202500", "092246.202500", "092248.202500", "092250.202500", "092252.202500", "092254.202500", "092256.202500", "092258.202500", "092300.202500", "092302.202500", "092304.202500", "092306.202500", "092308.202500", "092310.202500", "092312.202500", "092314.202500", "092316.202500", "092318.202500", "092320.202500", "092322.202500", "092324.202500", "092326.202500", "092328.202500", "092330.202500", "092332.202500", "092334.202500", "092336.202500", "092338.202500", "092340.202500", "092342.202500", "092344.202500", "092346.202500", "092348.202500", "092350.202500", "092352.202500", "092354.202500", "092356.202500", "092358.202500", "092400.202500", "092402.202500", "092404.202500", "092406.202500", "092408.202500", "092410.202500", "092412.202500", "092414.202500", "092416.202500", "092418.202500", "092420.202500", "092422.202500", "092424.202500", "092426.202500", "092428.202500", "092430.202500", "092432.202500", "092434.202500", "092436.202500", "092438.202500", "092440.202500", "092442.202500", "092444.202500", "092446.202500", "092448.202500", "092450.202500", "092452.202500", "092454.202500", "092456.202500", "092458.202500", "092500.202500", "092502.202500", "092504.202500", "092506.202500", "092508.202500", "092510.202500", "092512.202500", "092514.202500", "092516.202500", "092518.202500", "092520.202500", "092522.202500", "092524.202500", "092526.202500", "092528.202500", "092530.202500", "092532.202500", "092534.202500", "092536.202500", "092538.202500", "092540.202500", "092542.202500", "092544.202500", "092546.202500", "092548.202500", "092550.202500", "092552.202500", "092554.202500", "092556.202500", "092558.202500", "092600.202500", "092602.202500", "092604.202500", "092606.202500", "092608.202500", "092610.202500", "092612.202500", "092614.202500", "092616.202500", "092618.202500", "092620.202500", "092622.202500", "092624.202500", "092626.202500", "092628.202500", "092630.202500", "092632.202500", "092634.202500", "092636.202500", "092638.202500", "092640.202500", "092642.202500", "092644.202500", "092646.202500", "092648.202500", "092650.202500", "092652.202500", "092654.202500", "092656.202500", "092658.202500", "092700.202500", "092702.202500", "092704.202500", "092706.202500", "092708.202500", "092710.202500", "092712.202500", "092714.202500", "092716.202500", "092718.202500", "092720.202500", "092722.202500", "092724.202500", "092726.202500", "092728.202500", "092730.202500", "092732.202500", "092734.202500", "092736.202500", "092738.202500", "092740.202500", "092742.202500", "092744.202500", "092746.202500", "092748.202500", "092750.202500", "092752.202500", "092754.202500", "092756.202500", "092758.202500", "092800.202500", "092802.202500", "092804.202500", "092806.202500", "092808.202500", "092810.202500", "092812.202500", "092814.202500", "092816.202500", "092818.202500", "092820.202500", "092822.202500", "092824.202500", "092826.202500", "092828.202500", "092830.202500", "092832.202500", "092834.202500", "092836.202500", "092838.202500", "092840.202500", "092842.202500", "092844.202500", "092846.202500", "092848.202500", "092850.202500", "092852.202500", "092854.202500", "092856.202500", "092858.202500", "092900.202500", "092902.202500", "092904.202500", "092906.202500", "092908.202500", "092910.202500", "092912.202500", "092914.202500", "092916.202500", "092918.202500", "092920.202500", "092922.202500", "092924.202500", "092926.202500"],
      "ContentTime": ["092146.826000", "092148.321000", "092150.321000", "092152.321000", "092154.320000", "092156.320000", "092158.321000", "092200.321000", "092202.322000", "092204.321000", "092206.322000", "092208.321000", "092210.321000", "092212.320000", "092214.320000", "092216.322000", "092218.322000", "092220.322000", "092222.322000", "092224.322000", "092226.321000", "092228.321000", "092230.320000", "092232.320000", "092234.321000", "092236.321000", "092238.321000", "092240.321000", "092242.321000", "092244.321000", "092246.321000", "092248.320000", "092250.321000", "092252.321000", "092254.321000", "092256.321000", "092258.322000", "092300.322000", "092302.321000", "092304.320000", "092306.321000", "092308.321000", "092310.321000", "092312.321000", "092314.321000", "092316.321000", "092318.321000", "092320.321000", "092322.320000", "092324.321000", "092326.321000", "092328.321000", "092330.321000", "092332.321000", "092334.322000", "092336.321000", "092338.322000", "092340.320000", "092342.320000", "092344.321000", "092346.321000", "092348.321000", "092350.322000", "092352.321000", "092354.321000", "092356.322000", "092358.320000", "092400.321000", "092402.321000", "092404.322000", "092406.321000", "092408.321000", "092410.322000", "092412.321000", "092414.320000", "092416.321000", "092418.322000", "092420.322000", "092422.321000", "092424.321000", "092426.321000", "092428.322000", "092430.321000", "092432.320000", "092434.320000", "092436.321000", "092438.322000", "092440.321000", "092442.321000", "092444.321000", "092446.322000", "092448.322000", "092450.320000", "092452.320000", "092454.321000", "092456.321000", "092458.321000", "092500.322000", "092502.322000", "092504.322000", "092506.322000", "092508.320000", "092510.320000", "092512.322000", "092514.321000", "092516.321000", "092518.321000", "092520.321000", "092522.322000", "092524.320000", "092526.320000", "092528.322000", "092530.321000", "092532.321000", "092534.321000", "092536.321000", "092538.321000", "092540.322000", "092542.320000", "092544.320000", "092546.322000", "092548.322000", "092550.321000", "092552.322000", "092554.321000", "092556.322000", "092558.322000", "092600.320000", "092602.320000", "092604.321000", "092606.321000", "092608.322000", "092610.322000", "092612.321000", "092614.321000", "092616.321000", "092618.320000", "092620.320000", "092622.321000", "092624.321000", "092626.321000", "092628.321000", "092630.321000", "092632.321000", "092634.321000", "092636.320000", "092638.321000", "092640.321000", "092642.322000", "092644.322000", "092646.321000", "092648.321000", "092650.322000", "092652.320000", "092654.320000", "092656.321000", "092658.322000", "092700.321000", "092702.321000", "092704.322000", "092706.322000", "092708.322000", "092710.320000", "092712.340000", "092714.321000", "092716.321000", "092718.322000", "092720.321000", "092722.322000", "092724.321000", "092726.322000", "092728.321000", "092730.321000", "092732.321000", "092734.321000", "092736.321000", "092738.321000", "092740.322000", "092742.322000", "092744.320000", "092746.320000", "092748.321000", "092750.321000", "092752.322000", "092754.321000", "092756.322000", "092758.321000", "092800.322000", "092802.320000", "092804.321000", "092806.322000", "092808.321000", "092810.321000", "092812.322000", "092814.322000", "092816.321000", "092818.322000", "092820.320000", "092822.320000", "092824.321000", "092826.322000", "092828.321000", "092830.321000", "092832.321000", "092834.322000", "092836.322000", "092838.320000", "092840.322000", "092842.322000", "092844.322000", "092846.322000", "092848.321000", "092850.321000", "092852.322000", "092854.320000", "092856.320000", "092858.321000", "092900.321000", "092902.321000", "092904.321000", "092906.322000", "092908.321000", "092910.321000", "092912.320000", "092914.320000", "092916.322000", "092918.321000", "092920.322000", "092922.322000", "092924.321000", "092926.322000", "092928.013000"],
      "InstanceCreationTime": ["092146.826000", "092148.321000", "092150.321000", "092152.321000", "092154.320000", "092156.320000", "092158.321000", "092200.321000", "092202.322000", "092204.321000", "092206.322000", "092208.321000", "092210.321000", "092212.320000", "092214.320000", "092216.322000", "092218.322000", "092220.322000", "092222.322000", "092224.322000", "092226.321000", "092228.321000", "092230.320000", "092232.320000", "092234.321000", "092236.321000", "092238.321000", "092240.321000", "092242.321000", "092244.321000", "092246.321000", "092248.320000", "092250.321000", "092252.321000", "092254.321000", "092256.321000", "092258.322000", "092300.322000", "092302.321000", "092304.320000", "092306.321000", "092308.321000", "092310.321000", "092312.321000", "092314.321000", "092316.321000", "092318.321000", "092320.321000", "092322.320000", "092324.321000", "092326.321000", "092328.321000", "092330.321000", "092332.321000", "092334.322000", "092336.321000", "092338.322000", "092340.320000", "092342.320000", "092344.321000", "092346.321000", "092348.321000", "092350.322000", "092352.321000", "092354.321000", "092356.322000", "092358.320000", "092400.321000", "092402.321000", "092404.322000", "092406.321000", "092408.321000", "092410.322000", "092412.321000", "092414.320000", "092416.321000", "092418.322000", "092420.322000", "092422.321000", "092424.321000", "092426.321000", "092428.322000", "092430.321000", "092432.320000", "092434.320000", "092436.321000", "092438.322000", "092440.321000", "092442.321000", "092444.321000", "092446.322000", "092448.322000", "092450.320000", "092452.320000", "092454.321000", "092456.321000", "092458.321000", "092500.322000", "092502.322000", "092504.322000", "092506.322000", "092508.320000", "092510.320000", "092512.322000", "092514.321000", "092516.321000", "092518.321000", "092520.321000", "092522.322000", "092524.320000", "092526.320000", "092528.322000", "092530.321000", "092532.321000", "092534.321000", "092536.321000", "092538.321000", "092540.322000", "092542.320000", "092544.320000", "092546.322000", "092548.322000", "092550.321000", "092552.322000", "092554.321000", "092556.322000", "092558.322000", "092600.320000", "092602.320000", "092604.321000", "092606.321000", "092608.322000", "092610.322000", "092612.321000", "092614.321000", "092616.321000", "092618.320000", "092620.320000", "092622.321000", "092624.321000", "092626.321000", "092628.321000", "092630.321000", "092632.321000", "092634.321000", "092636.320000", "092638.321000", "092640.321000", "092642.322000", "092644.322000", "092646.321000", "092648.321000", "092650.322000", "092652.320000", "092654.320000", "092656.321000", "092658.322000", "092700.321000", "092702.321000", "092704.322000", "092706.322000", "092708.322000", "092710.320000", "092712.340000", "092714.321000", "092716.321000", "092718.322000", "092720.321000", "092722.322000", "092724.321000", "092726.322000", "092728.321000", "092730.321000", "092732.321000", "092734.321000", "092736.321000", "092738.321000", "092740.322000", "092742.322000", "092744.320000", "092746.320000", "092748.321000", "092750.321000", "092752.322000", "092754.321000", "092756.322000", "092758.321000", "092800.322000", "092802.320000", "092804.321000", "092806.322000", "092808.321000", "092810.321000", "092812.322000", "092814.322000", "092816.321000", "092818.322000", "092820.320000", "092822.320000", "092824.321000", "092826.322000", "092828.321000", "092830.321000", "092832.321000", "092834.322000", "092836.322000", "092838.320000", "092840.322000", "092842.322000", "092844.322000", "092846.322000", "092848.321000", "092850.321000", "092852.322000", "092854.320000", "092856.320000", "092858.321000", "092900.321000", "092902.321000", "092904.321000", "092906.322000", "092908.321000", "092910.321000", "092912.320000", "092914.320000", "092916.322000", "092918.321000", "092920.322000", "092922.322000", "092924.321000", "092926.322000", "092928.013000"],
      "InstanceNumber": [1, 2, 3, 4, 5, 6, 7, 8, 9, 10, 11, 12, 13, 14, 15, 16, 17, 18, 19, 20, 21, 22, 23, 24, 25, 26, 27, 28, 29, 30, 31, 32, 33, 34, 35, 36, 37, 38, 39, 40, 41, 42, 43, 44, 45, 46, 47, 48, 49, 50, 51, 52, 53, 54, 55, 56, 57, 58, 59, 60, 61, 62, 63, 64, 65, 66, 67, 68, 69, 70, 71, 72, 73, 74, 75, 76, 77, 78, 79, 80, 81, 82, 83, 84, 85, 86, 87, 88, 89, 90, 91, 92, 93, 94, 95, 96, 97, 98, 99, 100, 101, 102, 103, 104, 105, 106, 107, 108, 109, 110, 111, 112, 113, 114, 115, 116, 117, 118, 119, 120, 121, 122, 123, 124, 125, 126, 127, 128, 129, 130, 131, 132, 133, 134, 135, 136, 137, 138, 139, 140, 141, 142, 143, 144, 145, 146, 147, 148, 149, 150, 151, 152, 153, 154, 155, 156, 157, 158, 159, 160, 161, 162, 163, 164, 165, 166, 167, 168, 169, 170, 171, 172, 173, 174, 175, 176, 177, 178, 179, 180, 181, 182, 183, 184, 185, 186, 187, 188, 189, 190, 191, 192, 193, 194, 195, 196, 197, 198, 199, 200, 201, 202, 203, 204, 205, 206, 207, 208, 209, 210, 211, 212, 213, 214, 215, 216, 217, 218, 219, 220, 221, 222, 223, 224, 225, 226, 227, 228, 229, 230, 231, 232],
      "WindowCenter": [827.0, 826.0, 825.0, 825.0, 826.0, 825.0, 825.0, 824.0, 824.0, 826.0, 827.0, 827.0, 824.0, 824.0, 823.0, 824.0, 822.0, 823.0, 825.0, 825.0, 825.0, 825.0, 824.0, 824.0, 825.0, 826.0, 826.0, 825.0, 824.0, 823.0, 823.0, 824.0, 824.0, 824.0, 825.0, 825.0, 824.0, 824.0, 824.0, 824.0, 824.0, 823.0, 823.0, 823.0, 824.0, 824.0, 824.0, 824.0, 823.0, 823.0, 825.0, 826.0, 825.0, 823.0, 821.0, 821.0, 822.0, 824.0, 824.0, 825.0, 824.0, 825.0, 825.0, 825.0, 824.0, 824.0, 825.0, 825.0, 824.0, 824.0, 825.0, 824.0, 821.0, 819.0, 819.0, 820.0, 822.0, 821.0, 823.0, 825.0, 824.0, 825.0, 826.0, 827.0, 826.0, 825.0, 825.0, 825.0, 825.0, 824.0, 825.0, 826.0, 827.0, 825.0, 824.0, 824.0, 824.0, 825.0, 826.0, 827.0, 826.0, 826.0, 827.0, 827.0, 826.0, 825.0, 827.0, 825.0, 823.0, 822.0, 822.0, 822.0, 823.0, 824.0, 825.0, 824.0, 824.0, 824.0, 824.0, 823.0, 823.0, 822.0, 822.0, 822.0, 821.0, 821.0, 821.0, 822.0, 823.0, 824.0, 824.0, 826.0, 826.0, 825.0, 824.0, 825.0, 826.0, 825.0, 826.0, 827.0, 827.0, 826.0, 825.0, 823.0, 822.0, 826.0, 827.0, 827.0, 827.0, 828.0, 828.0, 827.0, 826.0, 825.0, 826.0, 827.0, 825.0, 823.0, 823.0, 824.0, 824.0, 824.0, 825.0, 825.0, 824.0, 823.0, 823.0, 824.0, 824.0, 824.0, 824.0, 825.0, 825.0, 825.0, 825.0, 826.0, 826.0, 825.0, 825.0, 826.0, 826.0, 823.0, 821.0, 818.0, 817.0, 819.0, 821.0, 823.0, 825.0, 825.0, 826.0, 825.0, 825.0, 826.0, 827.0, 827.0, 826.0, 825.0, 825.0, 825.0, 825.0, 824.0, 824.0, 824.0, 823.0, 824.0, 825.0, 824.0, 825.0, 825.0, 826.0, 826.0, 825.0, 825.0, 825.0, 825.0, 824.0, 823.0, 822.0, 821.0, 822.0, 821.0, 821.0, 821.0, 821.0, 822.0, 824.0, 824.0, 824.0, 823.0, 822.0, 822.0],
      "WindowWidth": [1846.0, 1840.0, 1839.0, 1839.0, 1841.0, 1840.0, 1837.0, 1836.0, 1836.0, 1842.0, 1844.0, 1843.0, 1835.0, 1833.0, 1833.0, 1835.0, 1830.0, 1832.0, 1838.0, 1837.0, 1839.0, 1837.0, 1833.0, 1835.0, 1837.0, 1840.0, 1842.0, 1840.0, 1836.0, 1833.0, 1832.0, 1834.0, 1835.0, 1836.0, 1838.0, 1838.0, 1835.0, 1833.0, 1834.0, 1834.0, 1835.0, 1832.0, 1832.0, 1832.0, 1835.0, 1836.0, 1834.0, 1833.0, 1831.0, 1832.0, 1837.0, 1843.0, 1838.0, 1830.0, 1827.0, 1826.0, 1828.0, 1835.0, 1837.0, 1839.0, 1835.0, 1837.0, 1837.0, 1837.0, 1835.0, 1835.0, 1838.0, 1839.0, 1835.0, 1835.0, 1837.0, 1832.0, 1824.0, 1818.0, 1819.0, 1823.0, 1827.0, 1827.0, 1831.0, 1836.0, 1834.0, 1837.0, 1839.0, 1842.0, 1841.0, 1837.0, 1837.0, 1837.0, 1837.0, 1835.0, 1837.0, 1841.0, 1842.0, 1838.0, 1836.0, 1834.0, 1834.0, 1837.0, 1841.0, 1842.0, 1841.0, 1841.0, 1843.0, 1844.0, 1842.0, 1838.0, 1842.0, 1838.0, 1830.0, 1829.0, 1828.0, 1828.0, 1831.0, 1835.0, 1836.0, 1833.0, 1834.0, 1834.0, 1833.0, 1830.0, 1829.0, 1827.0, 1826.0, 1826.0, 1826.0, 1824.0, 1825.0, 1826.0, 1832.0, 1833.0, 1833.0, 1839.0, 1840.0, 1836.0, 1834.0, 1837.0, 1838.0, 1835.0, 1838.0, 1841.0, 1842.0, 1839.0, 1835.0, 1830.0, 1827.0, 1838.0, 1842.0, 1843.0, 1843.0, 1844.0, 1845.0, 1842.0, 1838.0, 1837.0, 1840.0, 1843.0, 1837.0, 1830.0, 1830.0, 1832.0, 1833.0, 1832.0, 1836.0, 1837.0, 1835.0, 1832.0, 1831.0, 1833.0, 1833.0, 1832.0, 1834.0, 1837.0, 1837.0, 1835.0, 1836.0, 1839.0, 1839.0, 1837.0, 1838.0, 1839.0, 1840.0, 1832.0, 1823.0, 1816.0, 1812.0, 1819.0, 1825.0, 1831.0, 1836.0, 1838.0, 1840.0, 1836.0, 1836.0, 1841.0, 1842.0, 1842.0, 1839.0, 1836.0, 1835.0, 1835.0, 1837.0, 1835.0, 1834.0, 1833.0, 1831.0, 1833.0, 1836.0, 1835.0, 1836.0, 1838.0, 1841.0, 1840.0, 1838.0, 1837.0, 1837.0, 1836.0, 1834.0, 1830.0, 1829.0, 1825.0, 1828.0, 1824.0, 1825.0, 1823.0, 1824.0, 1827.0, 1833.0, 1833.0, 1833.0, 1830.0, 1827.0, 1828.0]
    },
    "slices": {}
  }
}