{
  "AcquisitionMatrixPE": 100,
  "AcquisitionNumber": 1,
  "AcquisitionTime": "09:19:37.367500",
  "BandwidthPerPixelPhaseEncode": 18.519,
  "BaseResolution": 100,
  "BodyPartExamined": "BRAIN",
  "ConsistencyInfo": "N4_VE11C_LATEST_20160120",
  "ConversionSoftware": "dcm2niix",
  "ConversionSoftwareVersion": "v1.0.20180622 GCC4.9.2",
  "DerivedVendorReportedEchoSpacing": 0.000539986,
  "DeviceSerialNumber": "166078",
  "DwellTime": 2.1e-06,
  "EchoTime": 0.034,
  "EchoTrainLength": 100,
  "EffectiveEchoSpacing": 0.000539986,
  "FlipAngle": 90,
  "ImageOrientationPatientDICOM": [0.997564, 0.0679134, -0.0159289, -0.0697564, 0.971207, -0.227795],
  "ImageType": [
    "ORIGINAL",
    "PRIMARY",
    "M",
    "ND",
    "MOSAIC"
],
  "InPlanePhaseEncodingDirectionDICOM": "COL",
  "InstitutionAddress": "Street_StreetNo_Bei_Jing_District_CN_ZIP",
  "InstitutionName": "BeiJing_Normal_University",
  "InstitutionalDepartmentName": "Department",
  "MRAcquisitionType": "2D",
  "MagneticFieldStrength": 3,
  "Manufacturer": "Siemens",
  "ManufacturersModelName": "Prisma",
  "Modality": "MR",
  "MultibandAccelerationFactor": 3,
  "PartialFourier": 1,
  "PatientPosition": "HFS",
  "PercentPhaseFOV": 100,
  "PhaseEncodingDirection": "j-",
  "PhaseEncodingSteps": 100,
  "PhaseResolution": 1,
  "PixelBandwidth": 2380,
  "ProcedureStepDescription": "BNU_P2018_64CH_Liu.Jia",
  "ProtocolName": "bold_100x100_s3_2x2x2_232",
  "PulseSequenceDetails": "%SiemensSeq%_ep2d_bold",
  "ReceiveCoilActiveElements": "HC1-7;NC1",
  "ReceiveCoilName": "HeadNeck_64",
  "ReconMatrixPE": 100,
  "RepetitionTime": 2,
  "SAR": 0.0794754,
  "ScanOptions": "FS",
  "ScanningSequence": "EP",
  "SequenceName": "_epfid2d1_100",
  "SequenceVariant": "SK",
  "SeriesDescription": "bold_100x100_s3_2x2x2_232",
  "SeriesNumber": 3,
  "ShimSetting": [-5453, -11497, -1302, 451, 7, -279, -193, 27],
  "SliceThickness": 2,
  "SliceTiming": [1.485, 0, 0.99, 0.0825, 1.0725, 0.165, 1.155, 0.2475, 1.2375, 0.33, 1.32, 0.4125, 1.4025, 0.5775, 1.5675, 0.66, 1.65, 0.7425, 1.7325, 0.825, 1.815, 0.9075, 1.8975, 0.495, 1.485, 0, 0.99, 0.0825, 1.0725, 0.165, 1.155, 0.2475, 1.2375, 0.33, 1.32, 0.4125, 1.4025, 0.5775, 1.5675, 0.66, 1.65, 0.7425, 1.7325, 0.825, 1.815, 0.9075, 1.8975, 0.495, 1.485, 0, 0.99, 0.0825, 1.0725, 0.165, 1.155, 0.2475, 1.2375, 0.33, 1.32, 0.4125, 1.4025, 0.5775, 1.5675, 0.66, 1.65, 0.7425, 1.7325, 0.825, 1.815, 0.9075, 1.8975, 0.495],
  "SoftwareVersions": "syngo_MR_E11",
  "SpacingBetweenSlices": 2,
  "StationName": "AWP166078",
  "TaskName": "motor",
  "TotalReadoutTime": 0.0534586,
  "TxRefAmp": 211.962,
  "dcmmeta_affine": [
    [-1.9951281547546387, -0.13951285183429718, -5.767105015763718e-09, 109.29132843017578],
    [-0.13582676649093628, 1.94241464138031, -0.45670175552368164, -60.95960998535156],
    [-0.03185788542032242, 0.455589234828949, 1.947157859802246, -94.17315673828125],
    [0.0, 0.0, 0.0, 1.0]
],
  "dcmmeta_reorient_transform": [
    [0.0, -1.0, 0.0, 99.0],
    [1.0, 0.0, 0.0, 0.0],
    [0.0, 0.0, 1.0, 0.0],
    [0.0, 0.0, 0.0, 1.0]
],
  "dcmmeta_shape": [100, 100, 72, 232],
  "dcmmeta_slice_dim": 2,
  "dcmmeta_version": 0.6,
  "global": {
    "const": {
      "AcquisitionMatrix": [100, 0, 0, 100],
      "AngioFlag": "N",
      "BitsAllocated": 16,
      "BitsStored": 12,
      "BodyPartExamined": "BRAIN",
      "Columns": 900,
      "EchoNumbers": 1,
      "EchoTime": 34.0,
      "EchoTrainLength": 100,
      "FlipAngle": 90.0,
      "HighBit": 11,
      "ImageOrientationPatient": [0.99756405362618, 0.06791338370756, -0.0159289430378, -0.069756425603, 0.97120731774274, -0.2277946159373],
      "ImagePositionPatient": [-837.72566030102, -962.63600137668, 145.90902625879],
      "ImageType": [
        "ORIGINAL",
        "PRIMARY",
        "M",
        "ND",
        "MOSAIC"
],
      "ImagedNucleus": "1H",
      "ImagingFrequency": 123.257801,
      "InPlanePhaseEncodingDirection": "COL",
      "MRAcquisitionType": "2D",
      "MagneticFieldStrength": 3.0,
      "Manufacturer": "SIEMENS",
      "ManufacturerModelName": "Prisma",
      "Modality": "MR",
      "NumberOfAverages": 1.0,
      "NumberOfPhaseEncodingSteps": 100,
      "PercentPhaseFieldOfView": 100.0,
      "PercentSampling": 100.0,
      "PerformedProcedureStepStartTime": "091551.563000",
      "PhotometricInterpretation": "MONOCHROME2",
      "PixelBandwidth": 2380.0,
      "PixelRepresentation": 0,
      "PixelSpacing": [2.0, 2.0],
      "ProtocolName": "bold_100x100_s3_2x2x2_232",
      "RepetitionTime": 2000.0,
      "Rows": 900,
      "SAR": 0.07947537848711,
      "SamplesPerPixel": 1,
      "ScanOptions": "FS",
      "ScanningSequence": "EP",
      "SequenceName": "*epfid2d1_100",
      "SequenceVariant": "SK",
      "SeriesDescription": "bold_100x100_s3_2x2x2_232",
      "SeriesNumber": 3,
      "SeriesTime": "091940.390000",
      "SliceLocation": -77.764817724518,
      "SliceThickness": 2.0,
      "SmallestImagePixelValue": 0,
      "SoftwareVersions": "syngo MR E11",
      "SpacingBetweenSlices": 2.0000000415113,
      "SpecificCharacterSet": "ISO_IR 100",
      "StudyID": "1",
      "StudyTime": "091551.357000",
      "TransmitCoilName": "Body",
      "VariableFlipAngleFlag": "N",
      "WindowCenterWidthExplanation": "Algo1",
      "dBdt": 0.0},
    "slices": {}
  },
  "time": {
    "samples": {
      "AcquisitionNumber": [1, 2, 3, 4, 5, 6, 7, 8, 9, 10, 11, 12, 13, 14, 15, 16, 17, 18, 19, 20, 21, 22, 23, 24, 25, 26, 27, 28, 29, 30, 31, 32, 33, 34, 35, 36, 37, 38, 39, 40, 41, 42, 43, 44, 45, 46, 47, 48, 49, 50, 51, 52, 53, 54, 55, 56, 57, 58, 59, 60, 61, 62, 63, 64, 65, 66, 67, 68, 69, 70, 71, 72, 73, 74, 75, 76, 77, 78, 79, 80, 81, 82, 83, 84, 85, 86, 87, 88, 89, 90, 91, 92, 93, 94, 95, 96, 97, 98, 99, 100, 101, 102, 103, 104, 105, 106, 107, 108, 109, 110, 111, 112, 113, 114, 115, 116, 117, 118, 119, 120, 121, 122, 123, 124, 125, 126, 127, 128, 129, 130, 131, 132, 133, 134, 135, 136, 137, 138, 139, 140, 141, 142, 143, 144, 145, 146, 147, 148, 149, 150, 151, 152, 153, 154, 155, 156, 157, 158, 159, 160, 161, 162, 163, 164, 165, 166, 167, 168, 169, 170, 171, 172, 173, 174, 175, 176, 177, 178, 179, 180, 181, 182, 183, 184, 185, 186, 187, 188, 189, 190, 191, 192, 193, 194, 195, 196, 197, 198, 199, 200, 201, 202, 203, 204, 205, 206, 207, 208, 209, 210, 211, 212, 213, 214, 215, 216, 217, 218, 219, 220, 221, 222, 223, 224, 225, 226, 227, 228, 229, 230, 231, 232],
      "AcquisitionTime": ["091937.367500", "091939.367500", "091941.367500", "091943.367500", "091945.367500", "091947.367500", "091949.367500", "091951.367500", "091953.367500", "091955.367500", "091957.367500", "091959.367500", "092001.367500", "092003.367500", "092005.367500", "092007.367500", "092009.367500", "092011.367500", "092013.367500", "092015.367500", "092017.367500", "092019.367500", "092021.367500", "092023.367500", "092025.367500", "092027.367500", "092029.367500", "092031.367500", "092033.367500", "092035.367500", "092037.367500", "092039.367500", "092041.367500", "092043.367500", "092045.367500", "092047.367500", "092049.367500", "092051.367500", "092053.367500", "092055.367500", "092057.367500", "092059.367500", "092101.367500", "092103.367500", "092105.367500", "092107.367500", "092109.367500", "092111.367500", "092113.367500", "092115.367500", "092117.367500", "092119.367500", "092121.367500", "092123.367500", "092125.367500", "092127.367500", "092129.367500", "092131.367500", "092133.367500", "092135.367500", "092137.367500", "092139.367500", "092141.367500", "092143.367500", "092145.367500", "092147.367500", "092149.367500", "092151.367500", "092153.367500", "092155.367500", "092157.367500", "092159.367500", "092201.367500", "092203.367500", "092205.367500", "092207.367500", "092209.367500", "092211.367500", "092213.367500", "092215.367500", "092217.367500", "092219.367500", "092221.367500", "092223.367500", "092225.367500", "092227.367500", "092229.367500", "092231.367500", "092233.367500", "092235.367500", "092237.367500", "092239.367500", "092241.367500", "092243.367500", "092245.367500", "092247.367500", "092249.367500", "092251.367500", "092253.367500", "092255.367500", "092257.367500", "092259.367500", "092301.367500", "092303.367500", "092305.367500", "092307.367500", "092309.367500", "092311.367500", "092313.367500", "092315.367500", "092317.367500", "092319.367500", "092321.367500", "092323.367500", "092325.367500", "092327.367500", "092329.367500", "092331.367500", "092333.367500", "092335.367500", "092337.367500", "092339.367500", "092341.367500", "092343.367500", "092345.367500", "092347.367500", "092349.367500", "092351.367500", "092353.367500", "092355.367500", "092357.367500", "092359.367500", "092401.367500", "092403.367500", "092405.367500", "092407.367500", "092409.367500", "092411.367500", "092413.367500", "092415.367500", "092417.367500", "092419.367500", "092421.367500", "092423.367500", "092425.367500", "092427.367500", "092429.367500", "092431.367500", "092433.367500", "092435.367500", "092437.367500", "092439.367500", "092441.367500", "092443.367500", "092445.367500", "092447.367500", "092449.367500", "092451.367500", "092453.367500", "092455.367500", "092457.367500", "092459.367500", "092501.367500", "092503.367500", "092505.367500", "092507.367500", "092509.367500", "092511.367500", "092513.367500", "092515.367500", "092517.367500", "092519.367500", "092521.367500", "092523.367500", "092525.367500", "092527.367500", "092529.367500", "092531.367500", "092533.367500", "092535.367500", "092537.367500", "092539.367500", "092541.367500", "092543.367500", "092545.367500", "092547.367500", "092549.367500", "092551.367500", "092553.367500", "092555.367500", "092557.367500", "092559.367500", "092601.367500", "092603.367500", "092605.367500", "092607.367500", "092609.367500", "092611.367500", "092613.367500", "092615.367500", "092617.367500", "092619.367500", "092621.367500", "092623.367500", "092625.367500", "092627.367500", "092629.367500", "092631.367500", "092633.367500", "092635.367500", "092637.367500", "092639.367500", "092641.367500", "092643.367500", "092645.367500", "092647.367500", "092649.367500", "092651.367500", "092653.367500", "092655.367500", "092657.367500", "092659.367500", "092701.367500", "092703.367500", "092705.367500", "092707.367500", "092709.367500", "092711.367500", "092713.367500", "092715.367500", "092717.367500", "092719.367500"],
      "ContentTime": ["091940.394000", "091941.890000", "091943.389000", "091945.390000", "091947.389000", "091949.389000", "091951.390000", "091953.390000", "091955.389000", "091957.389000", "091959.389000", "092001.389000", "092003.389000", "092005.389000", "092007.389000", "092009.391000", "092011.390000", "092013.389000", "092015.389000", "092017.389000", "092019.390000", "092021.389000", "092023.389000", "092025.389000", "092027.390000", "092029.391000", "092031.390000", "092033.389000", "092035.389000", "092037.389000", "092039.389000", "092041.389000", "092043.390000", "092045.390000", "092047.390000", "092049.389000", "092051.389000", "092053.389000", "092055.389000", "092057.389000", "092059.389000", "092101.390000", "092103.390000", "092105.389000", "092107.389000", "092109.389000", "092111.390000", "092113.389000", "092115.389000", "092117.389000", "092119.390000", "092121.391000", "092123.389000", "092125.389000", "092127.389000", "092129.390000", "092131.389000", "092133.389000", "092135.389000", "092137.391000", "092139.390000", "092141.389000", "092143.390000", "092145.389000", "092147.389000", "092149.390000", "092151.389000", "092153.390000", "092155.390000", "092157.390000", "092159.389000", "092201.389000", "092203.389000", "092205.389000", "092207.389000", "092209.389000", "092211.391000", "092213.390000", "092215.390000", "092217.389000", "092219.389000", "092221.389000", "092223.389000", "092225.390000", "092227.389000", "092229.390000", "092231.390000", "092233.389000", "092235.389000", "092237.389000", "092239.389000", "092241.389000", "092243.389000", "092245.389000", "092247.390000", "092249.390000", "092251.389000", "092253.390000", "092255.390000", "092257.389000", "092259.389000", "092301.389000", "092303.391000", "092305.390000", "092307.889000", "092309.389000", "092311.390000", "092313.389000", "092315.389000", "092317.389000", "092319.389000", "092321.390000", "092323.390000", "092325.389000", "092327.389000", "092329.390000", "092331.389000", "092333.389000", "092335.389000", "092337.389000", "092339.391000", "092341.390000", "092343.389000", "092345.389000", "092347.390000", "092349.389000", "092351.389000", "092353.389000", "092355.389000", "092357.391000", "092359.391000", "092401.389000", "092403.390000", "092405.389000", "092407.389000", "092409.389000", "092411.389000", "092413.390000", "092415.391000", "092417.390000", "092419.389000", "092421.389000", "092423.389000", "092425.390000", "092427.389000", "092429.389000", "092431.390000", "092433.390000", "092435.389000", "092437.390000", "092439.390000", "092441.389000", "092443.389000", "092445.389000", "092447.389000", "092449.390000", "092451.390000", "092453.390000", "092455.389000", "092457.389000", "092459.389000", "092501.389000", "092503.390000", "092505.390000", "092507.390000", "092509.390000", "092511.390000", "092513.390000", "092515.389000", "092517.389000", "092519.389000", "092521.389000", "092523.390000", "092525.390000", "092527.390000", "092529.390000", "092531.390000", "092533.389000", "092535.389000", "092537.390000", "092539.389000", "092541.390000", "092543.391000", "092545.389000", "092547.389000", "092549.389000", "092551.389000", "092553.390000", "092555.389000", "092557.389000", "092559.390000", "092601.390000", "092603.389000", "092605.389000", "092607.389000", "092609.389000", "092611.389000", "092613.390000", "092615.399000", "092617.390000", "092619.390000", "092621.389000", "092623.389000", "092625.389000", "092627.389000", "092629.389000", "092631.389000", "092633.390000", "092635.390000", "092637.390000", "092639.389000", "092641.389000", "092643.390000", "092645.389000", "092647.389000", "092649.389000", "092651.390000", "092653.390000", "092655.389000", "092657.389000", "092659.390000", "092701.389000", "092703.389000", "092705.390000", "092707.390000", "092709.390000", "092711.391000", "092713.389000", "092715.389000", "092717.389000", "092719.389000", "092721.253000"],
      "InstanceCreationTime": ["091940.394000", "091941.890000", "091943.389000", "091945.390000", "091947.389000", "091949.389000", "091951.390000", "091953.390000", "091955.389000", "091957.389000", "091959.389000", "092001.389000", "092003.389000", "092005.389000", "092007.389000", "092009.391000", "092011.390000", "092013.389000", "092015.389000", "092017.389000", "092019.390000", "092021.389000", "092023.389000", "092025.389000", "092027.390000", "092029.391000", "092031.390000", "092033.389000", "092035.389000", "092037.389000", "092039.389000", "092041.389000", "092043.390000", "092045.390000", "092047.390000", "092049.389000", "092051.389000", "092053.389000", "092055.389000", "092057.389000", "092059.389000", "092101.390000", "092103.390000", "092105.389000", "092107.389000", "092109.389000", "092111.390000", "092113.389000", "092115.389000", "092117.389000", "092119.390000", "092121.391000", "092123.389000", "092125.389000", "092127.389000", "092129.390000", "092131.389000", "092133.389000", "092135.389000", "092137.391000", "092139.390000", "092141.389000", "092143.390000", "092145.389000", "092147.389000", "092149.390000", "092151.389000", "092153.390000", "092155.390000", "092157.390000", "092159.389000", "092201.389000", "092203.389000", "092205.389000", "092207.389000", "092209.389000", "092211.391000", "092213.390000", "092215.390000", "092217.389000", "092219.389000", "092221.389000", "092223.389000", "092225.390000", "092227.389000", "092229.390000", "092231.390000", "092233.389000", "092235.389000", "092237.389000", "092239.389000", "092241.389000", "092243.389000", "092245.389000", "092247.390000", "092249.390000", "092251.389000", "092253.390000", "092255.390000", "092257.389000", "092259.389000", "092301.389000", "092303.391000", "092305.390000", "092307.889000", "092309.389000", "092311.390000", "092313.389000", "092315.389000", "092317.389000", "092319.389000", "092321.390000", "092323.390000", "092325.389000", "092327.389000", "092329.390000", "092331.389000", "092333.389000", "092335.389000", "092337.389000", "092339.391000", "092341.390000", "092343.389000", "092345.389000", "092347.390000", "092349.389000", "092351.389000", "092353.389000", "092355.389000", "092357.391000", "092359.391000", "092401.389000", "092403.390000", "092405.389000", "092407.389000", "092409.389000", "092411.389000", "092413.390000", "092415.391000", "092417.390000", "092419.389000", "092421.389000", "092423.389000", "092425.390000", "092427.389000", "092429.389000", "092431.390000", "092433.390000", "092435.389000", "092437.390000", "092439.390000", "092441.389000", "092443.389000", "092445.389000", "092447.389000", "092449.390000", "092451.390000", "092453.390000", "092455.389000", "092457.389000", "092459.389000", "092501.389000", "092503.390000", "092505.390000", "092507.390000", "092509.390000", "092511.390000", "092513.390000", "092515.389000", "092517.389000", "092519.389000", "092521.389000", "092523.390000", "092525.390000", "092527.390000", "092529.390000", "092531.390000", "092533.389000", "092535.389000", "092537.390000", "092539.389000", "092541.390000", "092543.391000", "092545.389000", "092547.389000", "092549.389000", "092551.389000", "092553.390000", "092555.389000", "092557.389000", "092559.390000", "092601.390000", "092603.389000", "092605.389000", "092607.389000", "092609.389000", "092611.389000", "092613.390000", "092615.399000", "092617.390000", "092619.390000", "092621.389000", "092623.389000", "092625.389000", "092627.389000", "092629.389000", "092631.389000", "092633.390000", "092635.390000", "092637.390000", "092639.389000", "092641.389000", "092643.390000", "092645.389000", "092647.389000", "092649.389000", "092651.390000", "092653.390000", "092655.389000", "092657.389000", "092659.390000", "092701.389000", "092703.389000", "092705.390000", "092707.390000", "092709.390000", "092711.391000", "092713.389000", "092715.389000", "092717.389000", "092719.389000", "092721.253000"],
      "InstanceNumber": [1, 2, 3, 4, 5, 6, 7, 8, 9, 10, 11, 12, 13, 14, 15, 16, 17, 18, 19, 20, 21, 22, 23, 24, 25, 26, 27, 28, 29, 30, 31, 32, 33, 34, 35, 36, 37, 38, 39, 40, 41, 42, 43, 44, 45, 46, 47, 48, 49, 50, 51, 52, 53, 54, 55, 56, 57, 58, 59, 60, 61, 62, 63, 64, 65, 66, 67, 68, 69, 70, 71, 72, 73, 74, 75, 76, 77, 78, 79, 80, 81, 82, 83, 84, 85, 86, 87, 88, 89, 90, 91, 92, 93, 94, 95, 96, 97, 98, 99, 100, 101, 102, 103, 104, 105, 106, 107, 108, 109, 110, 111, 112, 113, 114, 115, 116, 117, 118, 119, 120, 121, 122, 123, 124, 125, 126, 127, 128, 129, 130, 131, 132, 133, 134, 135, 136, 137, 138, 139, 140, 141, 142, 143, 144, 145, 146, 147, 148, 149, 150, 151, 152, 153, 154, 155, 156, 157, 158, 159, 160, 161, 162, 163, 164, 165, 166, 167, 168, 169, 170, 171, 172, 173, 174, 175, 176, 177, 178, 179, 180, 181, 182, 183, 184, 185, 186, 187, 188, 189, 190, 191, 192, 193, 194, 195, 196, 197, 198, 199, 200, 201, 202, 203, 204, 205, 206, 207, 208, 209, 210, 211, 212, 213, 214, 215, 216, 217, 218, 219, 220, 221, 222, 223, 224, 225, 226, 227, 228, 229, 230, 231, 232],
      "LargestImagePixelValue": [2682, 2580, 2555, 2532, 2513, 2490, 2532, 2529, 2513, 2500, 2525, 2515, 2505, 2508, 2474, 2529, 2518, 2518, 2540, 2536, 2516, 2506, 2541, 2515, 2532, 2487, 2465, 2472, 2449, 2497, 2472, 2487, 2482, 2494, 2583, 2563, 2532, 2552, 2571, 2576, 2588, 2533, 2488, 2483, 2516, 2512, 2524, 2475, 2466, 2488, 2512, 2504, 2501, 2497, 2505, 2503, 2498, 2438, 2446, 2443, 2462, 2455, 2479, 2461, 2460, 2454, 2469, 2476, 2485, 2474, 2478, 2430, 2429, 2438, 2506, 2484, 2511, 2480, 2436, 2469, 2452, 2461, 2464, 2484, 2469, 2467, 2481, 2444, 2490, 2471, 2461, 2498, 2490, 2498, 2480, 2492, 2463, 2475, 2468, 2455, 2476, 2477, 2472, 2474, 2474, 2481, 2477, 2500, 2470, 2467, 2462, 2474, 2478, 2456, 2483, 2471, 2473, 2459, 2446, 2532, 2466, 2464, 2445, 2452, 2462, 2445, 2472, 2491, 2471, 2441, 2456, 2453, 2451, 2462, 2431, 2447, 2462, 2463, 2479, 2456, 2461, 2451, 2464, 2463, 2462, 2465, 2464, 2461, 2444, 2477, 2453, 2478, 2474, 2509, 2621, 2557, 2543, 2561, 2537, 2540, 2528, 2557, 2578, 2525, 2521, 2500, 2527, 2483, 2513, 2526, 2499, 2502, 2525, 2492, 2482, 2482, 2474, 2464, 2509, 2526, 2507, 2466, 2539, 2490, 2537, 2507, 2541, 2508, 2511, 2525, 2564, 2577, 2520, 2545, 2575, 2609, 2615, 2589, 2632, 2674, 2650, 2570, 2600, 2602, 2653, 2650, 2590, 2586, 2589, 2616, 2669, 2525, 2674, 2721, 2673, 2686, 2693, 2540, 2508, 2506, 2550, 2490, 2481, 2473, 2589, 2553, 2529, 2559, 2510, 2519, 2475, 2478],
      "WindowCenter": [735.0, 732.0, 730.0, 730.0, 731.0, 731.0, 731.0, 732.0, 732.0, 732.0, 734.0, 734.0, 733.0, 731.0, 731.0, 734.0, 735.0, 734.0, 735.0, 735.0, 733.0, 732.0, 733.0, 734.0, 735.0, 734.0, 734.0, 734.0, 733.0, 735.0, 736.0, 736.0, 736.0, 736.0, 739.0, 739.0, 737.0, 736.0, 735.0, 734.0, 734.0, 734.0, 736.0, 735.0, 734.0, 733.0, 733.0, 734.0, 734.0, 735.0, 737.0, 737.0, 737.0, 737.0, 737.0, 737.0, 737.0, 736.0, 735.0, 735.0, 733.0, 733.0, 734.0, 734.0, 734.0, 735.0, 734.0, 734.0, 734.0, 734.0, 733.0, 733.0, 733.0, 735.0, 738.0, 738.0, 737.0, 735.0, 734.0, 733.0, 733.0, 733.0, 733.0, 734.0, 733.0, 733.0, 735.0, 735.0, 736.0, 736.0, 737.0, 737.0, 736.0, 735.0, 734.0, 734.0, 732.0, 733.0, 733.0, 733.0, 733.0, 733.0, 734.0, 733.0, 733.0, 733.0, 738.0, 737.0, 735.0, 733.0, 733.0, 734.0, 736.0, 736.0, 736.0, 736.0, 735.0, 733.0, 733.0, 734.0, 733.0, 734.0, 735.0, 733.0, 733.0, 732.0, 733.0, 732.0, 731.0, 732.0, 735.0, 735.0, 733.0, 732.0, 733.0, 733.0, 733.0, 733.0, 734.0, 734.0, 733.0, 731.0, 731.0, 732.0, 732.0, 731.0, 731.0, 732.0, 731.0, 731.0, 731.0, 731.0, 732.0, 734.0, 736.0, 735.0, 733.0, 732.0, 731.0, 732.0, 731.0, 732.0, 733.0, 731.0, 730.0, 730.0, 730.0, 730.0, 731.0, 732.0, 732.0, 732.0, 731.0, 730.0, 730.0, 730.0, 731.0, 731.0, 733.0, 732.0, 730.0, 728.0, 730.0, 730.0, 730.0, 729.0, 733.0, 730.0, 729.0, 728.0, 729.0, 729.0, 729.0, 731.0, 735.0, 735.0, 734.0, 731.0, 731.0, 731.0, 731.0, 730.0, 730.0, 730.0, 730.0, 730.0, 729.0, 731.0, 731.0, 731.0, 738.0, 735.0, 737.0, 738.0, 738.0, 737.0, 735.0, 735.0, 734.0, 734.0, 736.0, 734.0, 734.0, 734.0, 736.0, 737.0, 736.0, 736.0, 734.0, 733.0, 732.0, 732.0],
      "WindowWidth": [1588.0, 1578.0, 1574.0, 1575.0, 1577.0, 1577.0, 1578.0, 1579.0, 1579.0, 1580.0, 1586.0, 1585.0, 1582.0, 1578.0, 1578.0, 1584.0, 1587.0, 1587.0, 1588.0, 1587.0, 1583.0, 1581.0, 1583.0, 1586.0, 1588.0, 1586.0, 1587.0, 1587.0, 1584.0, 1587.0, 1591.0, 1592.0, 1591.0, 1592.0, 1598.0, 1598.0, 1595.0, 1591.0, 1587.0, 1585.0, 1585.0, 1585.0, 1592.0, 1588.0, 1585.0, 1582.0, 1583.0, 1586.0, 1587.0, 1589.0, 1593.0, 1593.0, 1593.0, 1595.0, 1595.0, 1594.0, 1592.0, 1590.0, 1589.0, 1587.0, 1583.0, 1583.0, 1585.0, 1586.0, 1586.0, 1588.0, 1587.0, 1586.0, 1586.0, 1585.0, 1584.0, 1583.0, 1582.0, 1588.0, 1598.0, 1597.0, 1594.0, 1588.0, 1584.0, 1584.0, 1582.0, 1582.0, 1582.0, 1584.0, 1582.0, 1582.0, 1587.0, 1587.0, 1590.0, 1590.0, 1594.0, 1593.0, 1590.0, 1587.0, 1585.0, 1584.0, 1581.0, 1581.0, 1582.0, 1582.0, 1582.0, 1583.0, 1584.0, 1583.0, 1583.0, 1582.0, 1595.0, 1594.0, 1589.0, 1583.0, 1583.0, 1586.0, 1590.0, 1590.0, 1591.0, 1589.0, 1586.0, 1582.0, 1580.0, 1585.0, 1582.0, 1583.0, 1586.0, 1582.0, 1580.0, 1580.0, 1581.0, 1578.0, 1577.0, 1580.0, 1586.0, 1586.0, 1582.0, 1580.0, 1581.0, 1583.0, 1583.0, 1581.0, 1584.0, 1585.0, 1581.0, 1577.0, 1577.0, 1579.0, 1579.0, 1576.0, 1577.0, 1578.0, 1577.0, 1578.0, 1576.0, 1577.0, 1580.0, 1584.0, 1591.0, 1586.0, 1582.0, 1578.0, 1577.0, 1578.0, 1577.0, 1578.0, 1580.0, 1576.0, 1574.0, 1573.0, 1574.0, 1573.0, 1576.0, 1578.0, 1578.0, 1578.0, 1576.0, 1573.0, 1573.0, 1574.0, 1577.0, 1577.0, 1580.0, 1578.0, 1573.0, 1569.0, 1573.0, 1572.0, 1572.0, 1571.0, 1581.0, 1574.0, 1569.0, 1568.0, 1571.0, 1571.0, 1569.0, 1576.0, 1587.0, 1588.0, 1583.0, 1576.0, 1576.0, 1576.0, 1575.0, 1574.0, 1572.0, 1572.0, 1573.0, 1573.0, 1571.0, 1575.0, 1577.0, 1577.0, 1594.0, 1586.0, 1593.0, 1595.0, 1594.0, 1593.0, 1587.0, 1586.0, 1584.0, 1586.0, 1589.0, 1586.0, 1585.0, 1585.0, 1591.0, 1593.0, 1591.0, 1589.0, 1584.0, 1582.0, 1579.0, 1578.0]
    },
    "slices": {}
  }
}