{
  "AcquisitionMatrixPE": 100,
  "AcquisitionNumber": 1,
  "AcquisitionTime": "12:28:38.907500",
  "BandwidthPerPixelPhaseEncode": 18.519,
  "BaseResolution": 100,
  "BodyPartExamined": "BRAIN",
  "ConsistencyInfo": "N4_VE11C_LATEST_20160120",
  "ConversionSoftware": "dcm2niix",
  "ConversionSoftwareVersion": "v1.0.20180622 GCC4.9.2",
  "DerivedVendorReportedEchoSpacing": 0.000539986,
  "DeviceSerialNumber": "166078",
  "DwellTime": 2.1e-06,
  "EchoTime": 0.034,
  "EchoTrainLength": 100,
  "EffectiveEchoSpacing": 0.000539986,
  "FlipAngle": 90,
  "ImageOrientationPatientDICOM": [0.998729, 0.0044853, -0.0501926, 1.67226e-08, 0.996031, 0.0890074],
  "ImageType": [
    "ORIGINAL",
    "PRIMARY",
    "M",
    "ND",
    "MOSAIC"
],
  "InPlanePhaseEncodingDirectionDICOM": "COL",
  "InstitutionAddress": "Street_StreetNo_Bei_Jing_District_CN_ZIP",
  "InstitutionName": "BeiJing_Normal_University",
  "InstitutionalDepartmentName": "Department",
  "MRAcquisitionType": "2D",
  "MagneticFieldStrength": 3,
  "Manufacturer": "Siemens",
  "ManufacturersModelName": "Prisma",
  "Modality": "MR",
  "MultibandAccelerationFactor": 3,
  "PartialFourier": 1,
  "PatientPosition": "HFS",
  "PercentPhaseFOV": 100,
  "PhaseEncodingDirection": "j-",
  "PhaseEncodingSteps": 100,
  "PhaseResolution": 1,
  "PixelBandwidth": 2380,
  "ProcedureStepDescription": "BNU_P2018_64CH_Liu.Jia",
  "ProtocolName": "bold_100x100_s3_2x2x2_232",
  "PulseSequenceDetails": "%SiemensSeq%_ep2d_bold",
  "ReceiveCoilActiveElements": "HC1-7;NC1",
  "ReceiveCoilName": "HeadNeck_64",
  "ReconMatrixPE": 100,
  "RepetitionTime": 2,
  "SAR": 0.0597762,
  "ScanOptions": "FS",
  "ScanningSequence": "EP",
  "SequenceName": "_epfid2d1_100",
  "SequenceVariant": "SK",
  "SeriesDescription": "bold_100x100_s3_2x2x2_232",
  "SeriesNumber": 10,
  "ShimSetting": [-5484, -11507, -1278, 360, -70, -181, -148, 44],
  "SliceThickness": 2,
  "SliceTiming": [1.485, 0, 0.99, 0.0825, 1.0725, 0.165, 1.155, 0.2475, 1.2375, 0.33, 1.32, 0.4125, 1.4025, 0.5775, 1.5675, 0.66, 1.65, 0.7425, 1.7325, 0.825, 1.815, 0.9075, 1.8975, 0.495, 1.485, 0, 0.99, 0.0825, 1.0725, 0.165, 1.155, 0.2475, 1.2375, 0.33, 1.32, 0.4125, 1.4025, 0.5775, 1.5675, 0.66, 1.65, 0.7425, 1.7325, 0.825, 1.815, 0.9075, 1.8975, 0.495, 1.485, 0, 0.99, 0.0825, 1.0725, 0.165, 1.155, 0.2475, 1.2375, 0.33, 1.32, 0.4125, 1.4025, 0.5775, 1.5675, 0.66, 1.65, 0.7425, 1.7325, 0.825, 1.815, 0.9075, 1.8975, 0.495],
  "SoftwareVersions": "syngo_MR_E11",
  "SpacingBetweenSlices": 2,
  "StationName": "AWP166078",
  "TaskName": "motor",
  "TotalReadoutTime": 0.0534586,
  "TxRefAmp": 207.467,
  "dcmmeta_affine": [
    [-1.9974589347839355, 3.3445161307099625e-08, -0.10078529268503189, 103.44803619384766],
    [-0.008970601484179497, 1.992061972618103, 0.1777886003255844, -92.85713195800781],
    [-0.10038527846336365, -0.17801477015018463, 1.9895310401916504, -46.39968490600586],
    [0.0, 0.0, 0.0, 1.0]
],
  "dcmmeta_reorient_transform": [
    [0.0, -1.0, 0.0, 99.0],
    [1.0, 0.0, 0.0, 0.0],
    [0.0, 0.0, 1.0, 0.0],
    [0.0, 0.0, 0.0, 1.0]
],
  "dcmmeta_shape": [100, 100, 72, 232],
  "dcmmeta_slice_dim": 2,
  "dcmmeta_version": 0.6,
  "global": {
    "const": {
      "AcquisitionMatrix": [100, 0, 0, 100],
      "AngioFlag": "N",
      "BitsAllocated": 16,
      "BitsStored": 12,
      "BodyPartExamined": "BRAIN",
      "Columns": 900,
      "EchoNumbers": 1,
      "EchoTime": 34.0,
      "EchoTrainLength": 100,
      "FlipAngle": 90.0,
      "HighBit": 11,
      "ImageOrientationPatient": [0.99872948348777, 0.00448530092575, -0.0501926377854, 1.6722581e-08, 0.99603096630444, 0.08900738263001],
      "ImagePositionPatient": [-902.43164274341, -904.77001274533, -95.074944401887],
      "ImageType": [
        "ORIGINAL",
        "PRIMARY",
        "M",
        "ND",
        "MOSAIC"
],
      "ImagedNucleus": "1H",
      "ImagingFrequency": 123.25784,
      "InPlanePhaseEncodingDirection": "COL",
      "MRAcquisitionType": "2D",
      "MagneticFieldStrength": 3.0,
      "Manufacturer": "SIEMENS",
      "ManufacturerModelName": "Prisma",
      "Modality": "MR",
      "NumberOfAverages": 1.0,
      "NumberOfPhaseEncodingSteps": 100,
      "PercentPhaseFieldOfView": 100.0,
      "PercentSampling": 100.0,
      "PerformedProcedureStepStartTime": "113946.027000",
      "PhotometricInterpretation": "MONOCHROME2",
      "PixelBandwidth": 2380.0,
      "PixelRepresentation": 0,
      "PixelSpacing": [2.0, 2.0],
      "ProtocolName": "bold_100x100_s3_2x2x2_232",
      "RepetitionTime": 2000.0,
      "Rows": 900,
      "SAR": 0.05977615864284,
      "SamplesPerPixel": 1,
      "ScanOptions": "FS",
      "ScanningSequence": "EP",
      "SequenceName": "*epfid2d1_100",
      "SequenceVariant": "SK",
      "SeriesDescription": "bold_100x100_s3_2x2x2_232",
      "SeriesNumber": 10,
      "SeriesTime": "122841.800000",
      "SliceLocation": -59.624297326015,
      "SliceThickness": 2.0,
      "SmallestImagePixelValue": 0,
      "SoftwareVersions": "syngo MR E11",
      "SpacingBetweenSlices": 2.0000000341072,
      "SpecificCharacterSet": "ISO_IR 100",
      "StudyID": "1",
      "StudyTime": "113945.965000",
      "TransmitCoilName": "Body",
      "VariableFlipAngleFlag": "N",
      "WindowCenterWidthExplanation": "Algo1",
      "dBdt": 0.0},
    "slices": {}
  },
  "time": {
    "samples": {
      "AcquisitionNumber": [1, 2, 3, 4, 5, 6, 7, 8, 9, 10, 11, 12, 13, 14, 15, 16, 17, 18, 19, 20, 21, 22, 23, 24, 25, 26, 27, 28, 29, 30, 31, 32, 33, 34, 35, 36, 37, 38, 39, 40, 41, 42, 43, 44, 45, 46, 47, 48, 49, 50, 51, 52, 53, 54, 55, 56, 57, 58, 59, 60, 61, 62, 63, 64, 65, 66, 67, 68, 69, 70, 71, 72, 73, 74, 75, 76, 77, 78, 79, 80, 81, 82, 83, 84, 85, 86, 87, 88, 89, 90, 91, 92, 93, 94, 95, 96, 97, 98, 99, 100, 101, 102, 103, 104, 105, 106, 107, 108, 109, 110, 111, 112, 113, 114, 115, 116, 117, 118, 119, 120, 121, 122, 123, 124, 125, 126, 127, 128, 129, 130, 131, 132, 133, 134, 135, 136, 137, 138, 139, 140, 141, 142, 143, 144, 145, 146, 147, 148, 149, 150, 151, 152, 153, 154, 155, 156, 157, 158, 159, 160, 161, 162, 163, 164, 165, 166, 167, 168, 169, 170, 171, 172, 173, 174, 175, 176, 177, 178, 179, 180, 181, 182, 183, 184, 185, 186, 187, 188, 189, 190, 191, 192, 193, 194, 195, 196, 197, 198, 199, 200, 201, 202, 203, 204, 205, 206, 207, 208, 209, 210, 211, 212, 213, 214, 215, 216, 217, 218, 219, 220, 221, 222, 223, 224, 225, 226, 227, 228, 229, 230, 231, 232],
      "AcquisitionTime": ["122838.907500", "122840.907500", "122842.907500", "122844.907500", "122846.907500", "122848.907500", "122850.907500", "122852.907500", "122854.907500", "122856.907500", "122858.907500", "122900.907500", "122902.907500", "122904.907500", "122906.907500", "122908.907500", "122910.907500", "122912.907500", "122914.907500", "122916.907500", "122918.907500", "122920.907500", "122922.907500", "122924.907500", "122926.907500", "122928.907500", "122930.907500", "122932.907500", "122934.907500", "122936.907500", "122938.907500", "122940.907500", "122942.907500", "122944.907500", "122946.907500", "122948.907500", "122950.907500", "122952.907500", "122954.907500", "122956.907500", "122958.907500", "123000.907500", "123002.907500", "123004.907500", "123006.907500", "123008.907500", "123010.907500", "123012.907500", "123014.907500", "123016.907500", "123018.907500", "123020.907500", "123022.907500", "123024.907500", "123026.907500", "123028.907500", "123030.907500", "123032.907500", "123034.907500", "123036.907500", "123038.907500", "123040.907500", "123042.907500", "123044.907500", "123046.907500", "123048.907500", "123050.907500", "123052.907500", "123054.907500", "123056.907500", "123058.907500", "123100.907500", "123102.907500", "123104.907500", "123106.907500", "123108.907500", "123110.907500", "123112.907500", "123114.907500", "123116.907500", "123118.907500", "123120.907500", "123122.907500", "123124.907500", "123126.907500", "123128.907500", "123130.907500", "123132.907500", "123134.907500", "123136.907500", "123138.907500", "123140.907500", "123142.907500", "123144.907500", "123146.907500", "123148.907500", "123150.907500", "123152.907500", "123154.907500", "123156.907500", "123158.907500", "123200.907500", "123202.907500", "123204.907500", "123206.907500", "123208.907500", "123210.907500", "123212.907500", "123214.907500", "123216.907500", "123218.907500", "123220.907500", "123222.907500", "123224.907500", "123226.907500", "123228.907500", "123230.907500", "123232.907500", "123234.907500", "123236.907500", "123238.907500", "123240.907500", "123242.907500", "123244.907500", "123246.907500", "123248.907500", "123250.907500", "123252.907500", "123254.907500", "123256.907500", "123258.907500", "123300.907500", "123302.907500", "123304.907500", "123306.907500", "123308.907500", "123310.907500", "123312.907500", "123314.907500", "123316.907500", "123318.907500", "123320.907500", "123322.907500", "123324.907500", "123326.907500", "123328.907500", "123330.907500", "123332.907500", "123334.907500", "123336.907500", "123338.907500", "123340.907500", "123342.907500", "123344.907500", "123346.907500", "123348.907500", "123350.907500", "123352.907500", "123354.907500", "123356.907500", "123358.907500", "123400.907500", "123402.907500", "123404.907500", "123406.907500", "123408.907500", "123410.907500", "123412.907500", "123414.907500", "123416.907500", "123418.907500", "123420.907500", "123422.907500", "123424.907500", "123426.907500", "123428.907500", "123430.907500", "123432.907500", "123434.907500", "123436.907500", "123438.907500", "123440.907500", "123442.907500", "123444.907500", "123446.907500", "123448.907500", "123450.907500", "123452.907500", "123454.907500", "123456.907500", "123458.907500", "123500.907500", "123502.907500", "123504.907500", "123506.907500", "123508.907500", "123510.907500", "123512.907500", "123514.907500", "123516.907500", "123518.907500", "123520.907500", "123522.907500", "123524.907500", "123526.907500", "123528.907500", "123530.907500", "123532.907500", "123534.907500", "123536.907500", "123538.907500", "123540.907500", "123542.907500", "123544.907500", "123546.907500", "123548.907500", "123550.907500", "123552.907500", "123554.907500", "123556.907500", "123558.907500", "123600.907500", "123602.907500", "123604.907500", "123606.907500", "123608.907500", "123610.907500", "123612.907500", "123614.907500", "123616.907500", "123618.907500", "123620.907500"],
      "ContentTime": ["122841.803000", "122842.800000", "122844.799000", "122846.799000", "122848.798000", "122850.798000", "122852.799000", "122854.800000", "122856.799000", "122858.800000", "122900.799000", "122902.799000", "122904.798000", "122907.298000", "122908.798000", "122910.799000", "122912.800000", "122914.799000", "122916.799000", "122918.799000", "122920.799000", "122922.798000", "122924.798000", "122926.798000", "122928.799000", "122930.800000", "122932.799000", "122934.799000", "122936.799000", "122938.798000", "122940.798000", "122942.798000", "122944.798000", "122946.799000", "122948.799000", "122950.799000", "122952.799000", "122954.799000", "122956.798000", "122958.799000", "123000.798000", "123002.799000", "123004.799000", "123006.799000", "123009.299000", "123010.799000", "123012.800000", "123014.798000", "123016.798000", "123018.818000", "123020.799000", "123022.799000", "123024.799000", "123026.800000", "123028.799000", "123030.799000", "123032.798000", "123034.799000", "123036.798000", "123038.800000", "123041.299000", "123042.799000", "123044.799000", "123046.799000", "123048.798000", "123050.799000", "123052.799000", "123055.300000", "123056.800000", "123058.799000", "123100.799000", "123102.799000", "123104.799000", "123106.798000", "123108.798000", "123111.298000", "123112.799000", "123114.799000", "123116.800000", "123118.799000", "123120.799000", "123122.799000", "123124.798000", "123126.798000", "123128.799000", "123130.799000", "123132.799000", "123134.799000", "123136.799000", "123139.299000", "123140.799000", "123142.798000", "123144.798000", "123146.799000", "123148.799000", "123151.299000", "123152.800000", "123154.799000", "123156.799000", "123158.798000", "123200.798000", "123202.798000", "123204.799000", "123206.799000", "123208.799000", "123210.799000", "123212.799000", "123214.800000", "123216.798000", "123218.798000", "123220.798000", "123222.799000", "123224.799000", "123226.799000", "123228.799000", "123230.799000", "123232.799000", "123234.798000", "123236.799000", "123238.798000", "123240.799000", "123242.799000", "123244.799000", "123246.799000", "123248.799000", "123250.800000", "123252.798000", "123254.798000", "123256.798000", "123258.799000", "123300.799000", "123302.799000", "123304.799000", "123306.799000", "123308.799000", "123310.798000", "123312.798000", "123314.799000", "123316.799000", "123318.799000", "123320.799000", "123322.799000", "123324.799000", "123326.799000", "123328.798000", "123331.298000", "123332.799000", "123334.800000", "123336.799000", "123338.800000", "123340.799000", "123342.800000", "123345.299000", "123346.798000", "123348.798000", "123350.799000", "123352.799000", "123354.799000", "123356.800000", "123358.799000", "123401.299000", "123402.798000", "123404.798000", "123406.798000", "123408.799000", "123410.799000", "123412.799000", "123414.799000", "123416.799000", "123418.798000", "123420.799000", "123422.798000", "123424.799000", "123426.799000", "123428.799000", "123430.799000", "123432.799000", "123434.799000", "123436.798000", "123438.798000", "123440.798000", "123442.799000", "123444.800000", "123446.799000", "123448.799000", "123450.799000", "123452.800000", "123454.799000", "123456.799000", "123458.799000", "123500.799000", "123502.799000", "123504.799000", "123506.800000", "123508.800000", "123510.800000", "123512.798000", "123514.799000", "123516.799000", "123518.799000", "123520.799000", "123522.799000", "123524.799000", "123526.799000", "123529.298000", "123530.798000", "123532.798000", "123534.799000", "123536.799000", "123538.800000", "123540.799000", "123542.799000", "123544.799000", "123546.798000", "123548.798000", "123550.798000", "123552.799000", "123554.799000", "123556.800000", "123559.299000", "123600.799000", "123602.799000", "123604.798000", "123606.799000", "123608.798000", "123610.800000", "123612.799000", "123614.800000", "123616.799000", "123618.799000", "123620.800000", "123622.751000"],
      "InstanceCreationTime": ["122841.803000", "122842.800000", "122844.799000", "122846.799000", "122848.798000", "122850.798000", "122852.799000", "122854.800000", "122856.799000", "122858.800000", "122900.799000", "122902.799000", "122904.798000", "122907.298000", "122908.798000", "122910.799000", "122912.800000", "122914.799000", "122916.799000", "122918.799000", "122920.799000", "122922.798000", "122924.798000", "122926.798000", "122928.799000", "122930.800000", "122932.799000", "122934.799000", "122936.799000", "122938.798000", "122940.798000", "122942.798000", "122944.798000", "122946.799000", "122948.799000", "122950.799000", "122952.799000", "122954.799000", "122956.798000", "122958.799000", "123000.798000", "123002.799000", "123004.799000", "123006.799000", "123009.299000", "123010.799000", "123012.800000", "123014.798000", "123016.798000", "123018.818000", "123020.799000", "123022.799000", "123024.799000", "123026.800000", "123028.799000", "123030.799000", "123032.798000", "123034.799000", "123036.798000", "123038.800000", "123041.299000", "123042.799000", "123044.799000", "123046.799000", "123048.798000", "123050.799000", "123052.799000", "123055.300000", "123056.800000", "123058.799000", "123100.799000", "123102.799000", "123104.799000", "123106.798000", "123108.798000", "123111.298000", "123112.799000", "123114.799000", "123116.800000", "123118.799000", "123120.799000", "123122.799000", "123124.798000", "123126.798000", "123128.799000", "123130.799000", "123132.799000", "123134.799000", "123136.799000", "123139.299000", "123140.799000", "123142.798000", "123144.798000", "123146.799000", "123148.799000", "123151.299000", "123152.800000", "123154.799000", "123156.799000", "123158.798000", "123200.798000", "123202.798000", "123204.799000", "123206.799000", "123208.799000", "123210.799000", "123212.799000", "123214.800000", "123216.798000", "123218.798000", "123220.798000", "123222.799000", "123224.799000", "123226.799000", "123228.799000", "123230.799000", "123232.799000", "123234.798000", "123236.799000", "123238.798000", "123240.799000", "123242.799000", "123244.799000", "123246.799000", "123248.799000", "123250.800000", "123252.798000", "123254.798000", "123256.798000", "123258.799000", "123300.799000", "123302.799000", "123304.799000", "123306.799000", "123308.799000", "123310.798000", "123312.798000", "123314.799000", "123316.799000", "123318.799000", "123320.799000", "123322.799000", "123324.799000", "123326.799000", "123328.798000", "123331.298000", "123332.799000", "123334.800000", "123336.799000", "123338.800000", "123340.799000", "123342.800000", "123345.299000", "123346.798000", "123348.798000", "123350.799000", "123352.799000", "123354.799000", "123356.800000", "123358.799000", "123401.299000", "123402.798000", "123404.798000", "123406.798000", "123408.799000", "123410.799000", "123412.799000", "123414.799000", "123416.799000", "123418.798000", "123420.799000", "123422.798000", "123424.799000", "123426.799000", "123428.799000", "123430.799000", "123432.799000", "123434.799000", "123436.798000", "123438.798000", "123440.798000", "123442.799000", "123444.800000", "123446.799000", "123448.799000", "123450.799000", "123452.800000", "123454.799000", "123456.799000", "123458.799000", "123500.799000", "123502.799000", "123504.799000", "123506.800000", "123508.800000", "123510.800000", "123512.798000", "123514.799000", "123516.799000", "123518.799000", "123520.799000", "123522.799000", "123524.799000", "123526.799000", "123529.298000", "123530.798000", "123532.798000", "123534.799000", "123536.799000", "123538.800000", "123540.799000", "123542.799000", "123544.799000", "123546.798000", "123548.798000", "123550.798000", "123552.799000", "123554.799000", "123556.800000", "123559.299000", "123600.799000", "123602.799000", "123604.798000", "123606.799000", "123608.798000", "123610.800000", "123612.799000", "123614.800000", "123616.799000", "123618.799000", "123620.800000", "123622.751000"],
      "InstanceNumber": [1, 2, 3, 4, 5, 6, 7, 8, 9, 10, 11, 12, 13, 14, 15, 16, 17, 18, 19, 20, 21, 22, 23, 24, 25, 26, 27, 28, 29, 30, 31, 32, 33, 34, 35, 36, 37, 38, 39, 40, 41, 42, 43, 44, 45, 46, 47, 48, 49, 50, 51, 52, 53, 54, 55, 56, 57, 58, 59, 60, 61, 62, 63, 64, 65, 66, 67, 68, 69, 70, 71, 72, 73, 74, 75, 76, 77, 78, 79, 80, 81, 82, 83, 84, 85, 86, 87, 88, 89, 90, 91, 92, 93, 94, 95, 96, 97, 98, 99, 100, 101, 102, 103, 104, 105, 106, 107, 108, 109, 110, 111, 112, 113, 114, 115, 116, 117, 118, 119, 120, 121, 122, 123, 124, 125, 126, 127, 128, 129, 130, 131, 132, 133, 134, 135, 136, 137, 138, 139, 140, 141, 142, 143, 144, 145, 146, 147, 148, 149, 150, 151, 152, 153, 154, 155, 156, 157, 158, 159, 160, 161, 162, 163, 164, 165, 166, 167, 168, 169, 170, 171, 172, 173, 174, 175, 176, 177, 178, 179, 180, 181, 182, 183, 184, 185, 186, 187, 188, 189, 190, 191, 192, 193, 194, 195, 196, 197, 198, 199, 200, 201, 202, 203, 204, 205, 206, 207, 208, 209, 210, 211, 212, 213, 214, 215, 216, 217, 218, 219, 220, 221, 222, 223, 224, 225, 226, 227, 228, 229, 230, 231, 232],
      "LargestImagePixelValue": [2466, 2406, 2421, 2394, 2376, 2377, 2420, 2394, 2548, 2367, 2390, 2396, 2527, 2404, 2372, 2346, 2400, 2421, 2448, 2401, 2419, 2396, 2369, 2388, 2420, 2359, 2329, 2560, 2349, 2384, 2341, 2309, 2467, 2368, 2366, 2397, 2443, 2383, 2378, 2418, 2426, 2391, 2385, 2380, 2357, 2391, 2372, 2419, 2554, 2398, 2423, 2411, 2511, 2666, 2390, 2366, 2377, 2374, 2349, 2368, 2582, 2358, 2353, 2403, 2392, 2389, 2371, 2414, 2399, 2550, 2375, 2346, 2414, 2354, 2381, 2402, 2374, 2360, 2358, 2420, 2361, 2400, 2380, 2404, 2379, 2378, 2414, 2418, 2389, 2389, 2418, 2429, 2410, 2381, 2408, 2440, 2416, 2372, 2378, 2420, 2350, 2377, 2482, 2416, 2353, 2419, 2381, 2403, 2401, 2428, 2423, 2429, 2391, 2371, 2380, 2376, 2477, 2408, 2392, 2538, 2422, 2427, 2416, 2409, 2405, 2387, 2417, 2418, 2408, 2333, 2373, 2415, 2431, 2403, 2383, 2373, 2336, 2371, 2413, 2403, 2432, 2384, 2377, 2409, 2379, 2357, 2361, 2454, 2350, 2378, 2403, 2419, 2408, 2407, 2405, 2476, 2385, 2378, 2372, 2374, 2355, 2398, 2392, 2420, 2456, 2377, 2372, 2356, 2507, 2576, 2384, 2349, 2466, 2617, 2573, 2481, 2418, 2441, 2384, 2555, 2427, 2502, 2900, 2425, 2608, 2361, 2402, 2363, 2439, 2521, 2383, 2342, 2379, 2372, 2372, 2641, 2525, 2357, 2506, 2385, 2434, 2391, 2388, 2418, 2494, 2452, 2390, 2384, 2383, 2361, 2362, 2344, 2504, 2359, 2349, 2360, 2370, 2413, 2404, 2373, 2383, 2419, 2421, 2381, 2377, 2354, 2330, 2516, 2357, 2319, 2339, 2355],
      "WindowCenter": [737.0, 735.0, 736.0, 737.0, 738.0, 737.0, 738.0, 738.0, 739.0, 734.0, 736.0, 736.0, 738.0, 736.0, 735.0, 735.0, 737.0, 737.0, 737.0, 736.0, 737.0, 736.0, 736.0, 736.0, 737.0, 736.0, 734.0, 738.0, 734.0, 736.0, 735.0, 736.0, 737.0, 735.0, 735.0, 737.0, 737.0, 736.0, 737.0, 737.0, 737.0, 736.0, 735.0, 736.0, 736.0, 737.0, 737.0, 737.0, 738.0, 736.0, 738.0, 737.0, 737.0, 738.0, 736.0, 737.0, 738.0, 737.0, 736.0, 736.0, 739.0, 735.0, 735.0, 736.0, 736.0, 736.0, 736.0, 738.0, 738.0, 739.0, 735.0, 735.0, 736.0, 736.0, 737.0, 737.0, 736.0, 735.0, 736.0, 737.0, 737.0, 738.0, 736.0, 736.0, 736.0, 737.0, 738.0, 738.0, 737.0, 737.0, 738.0, 738.0, 737.0, 735.0, 736.0, 737.0, 738.0, 740.0, 738.0, 737.0, 736.0, 735.0, 736.0, 735.0, 736.0, 737.0, 736.0, 737.0, 737.0, 738.0, 738.0, 736.0, 736.0, 736.0, 736.0, 736.0, 738.0, 737.0, 736.0, 738.0, 737.0, 737.0, 736.0, 735.0, 735.0, 736.0, 737.0, 738.0, 737.0, 736.0, 737.0, 737.0, 737.0, 736.0, 736.0, 737.0, 736.0, 736.0, 736.0, 737.0, 738.0, 737.0, 737.0, 737.0, 737.0, 736.0, 736.0, 738.0, 736.0, 737.0, 738.0, 738.0, 737.0, 736.0, 737.0, 738.0, 736.0, 735.0, 736.0, 736.0, 736.0, 736.0, 736.0, 738.0, 738.0, 736.0, 736.0, 736.0, 737.0, 738.0, 737.0, 738.0, 739.0, 739.0, 737.0, 735.0, 734.0, 736.0, 737.0, 740.0, 739.0, 739.0, 743.0, 736.0, 739.0, 736.0, 737.0, 737.0, 738.0, 740.0, 736.0, 735.0, 737.0, 738.0, 737.0, 739.0, 738.0, 737.0, 740.0, 737.0, 737.0, 736.0, 735.0, 736.0, 736.0, 736.0, 735.0, 736.0, 736.0, 736.0, 737.0, 737.0, 739.0, 736.0, 737.0, 737.0, 737.0, 737.0, 737.0, 737.0, 738.0, 738.0, 737.0, 737.0, 737.0, 737.0, 737.0, 738.0, 736.0, 737.0, 739.0, 740.0],
      "WindowWidth": [1566.0, 1561.0, 1563.0, 1566.0, 1567.0, 1565.0, 1568.0, 1568.0, 1569.0, 1559.0, 1561.0, 1562.0, 1566.0, 1563.0, 1561.0, 1561.0, 1565.0, 1565.0, 1565.0, 1564.0, 1565.0, 1563.0, 1562.0, 1561.0, 1564.0, 1563.0, 1559.0, 1567.0, 1558.0, 1562.0, 1560.0, 1562.0, 1566.0, 1561.0, 1560.0, 1564.0, 1566.0, 1564.0, 1564.0, 1566.0, 1566.0, 1562.0, 1561.0, 1562.0, 1562.0, 1566.0, 1566.0, 1566.0, 1568.0, 1563.0, 1567.0, 1565.0, 1565.0, 1567.0, 1562.0, 1565.0, 1568.0, 1566.0, 1561.0, 1562.0, 1569.0, 1561.0, 1559.0, 1563.0, 1563.0, 1563.0, 1563.0, 1567.0, 1567.0, 1571.0, 1561.0, 1560.0, 1563.0, 1564.0, 1566.0, 1565.0, 1562.0, 1561.0, 1562.0, 1566.0, 1566.0, 1566.0, 1563.0, 1563.0, 1562.0, 1565.0, 1568.0, 1568.0, 1564.0, 1565.0, 1568.0, 1567.0, 1564.0, 1561.0, 1563.0, 1566.0, 1569.0, 1572.0, 1568.0, 1564.0, 1563.0, 1561.0, 1562.0, 1561.0, 1562.0, 1564.0, 1563.0, 1564.0, 1566.0, 1568.0, 1567.0, 1562.0, 1561.0, 1562.0, 1563.0, 1563.0, 1567.0, 1565.0, 1563.0, 1567.0, 1564.0, 1564.0, 1562.0, 1561.0, 1560.0, 1562.0, 1566.0, 1568.0, 1565.0, 1562.0, 1565.0, 1565.0, 1565.0, 1564.0, 1564.0, 1566.0, 1563.0, 1563.0, 1564.0, 1564.0, 1568.0, 1566.0, 1566.0, 1566.0, 1564.0, 1562.0, 1564.0, 1567.0, 1561.0, 1564.0, 1567.0, 1568.0, 1565.0, 1563.0, 1564.0, 1567.0, 1562.0, 1561.0, 1563.0, 1563.0, 1563.0, 1562.0, 1563.0, 1566.0, 1569.0, 1564.0, 1564.0, 1562.0, 1565.0, 1566.0, 1564.0, 1568.0, 1569.0, 1569.0, 1563.0, 1560.0, 1557.0, 1562.0, 1564.0, 1571.0, 1568.0, 1570.0, 1579.0, 1562.0, 1568.0, 1561.0, 1565.0, 1565.0, 1568.0, 1571.0, 1564.0, 1561.0, 1566.0, 1568.0, 1566.0, 1569.0, 1566.0, 1564.0, 1572.0, 1566.0, 1565.0, 1561.0, 1560.0, 1562.0, 1563.0, 1562.0, 1561.0, 1562.0, 1563.0, 1563.0, 1566.0, 1565.0, 1570.0, 1564.0, 1564.0, 1564.0, 1564.0, 1565.0, 1565.0, 1566.0, 1567.0, 1567.0, 1565.0, 1564.0, 1565.0, 1566.0, 1566.0, 1567.0, 1563.0, 1566.0, 1570.0, 1573.0]
    },
    "slices": {}
  }
}