{
  "AcquisitionMatrixPE": 100,
  "AcquisitionNumber": 1,
  "AcquisitionTime": "09:41:33.275000",
  "BandwidthPerPixelPhaseEncode": 18.519,
  "BaseResolution": 100,
  "BodyPartExamined": "BRAIN",
  "ConsistencyInfo": "N4_VE11C_LATEST_20160120",
  "ConversionSoftware": "dcm2niix",
  "ConversionSoftwareVersion": "v1.0.20180622 GCC4.9.2",
  "DerivedVendorReportedEchoSpacing": 0.000539986,
  "DeviceSerialNumber": "166078",
  "DwellTime": 2.1e-06,
  "EchoTime": 0.034,
  "EchoTrainLength": 100,
  "EffectiveEchoSpacing": 0.000539986,
  "FlipAngle": 90,
  "ImageOrientationPatientDICOM": [1, 0, 0, 0, 1, 0],
  "ImageType": [
    "ORIGINAL",
    "PRIMARY",
    "M",
    "ND",
    "MOSAIC"
],
  "InPlanePhaseEncodingDirectionDICOM": "COL",
  "InstitutionAddress": "Street_StreetNo_Bei_Jing_District_CN_ZIP",
  "InstitutionName": "BeiJing_Normal_University",
  "InstitutionalDepartmentName": "Department",
  "MRAcquisitionType": "2D",
  "MagneticFieldStrength": 3,
  "Manufacturer": "Siemens",
  "ManufacturersModelName": "Prisma",
  "Modality": "MR",
  "MultibandAccelerationFactor": 3,
  "PartialFourier": 1,
  "PatientPosition": "HFS",
  "PercentPhaseFOV": 100,
  "PhaseEncodingDirection": "j-",
  "PhaseEncodingSteps": 100,
  "PhaseResolution": 1,
  "PixelBandwidth": 2380,
  "ProcedureStepDescription": "BNU_P2018_64CH_Liu.Jia",
  "ProtocolName": "bold_100x100_s3_2x2x2_232",
  "PulseSequenceDetails": "%SiemensSeq%_ep2d_bold",
  "ReceiveCoilActiveElements": "HC1-7;NC1",
  "ReceiveCoilName": "HeadNeck_64",
  "ReconMatrixPE": 100,
  "RepetitionTime": 2,
  "SAR": 0.0700738,
  "ScanOptions": "FS",
  "ScanningSequence": "EP",
  "SequenceName": "_epfid2d1_100",
  "SequenceVariant": "SK",
  "SeriesDescription": "bold_100x100_s3_2x2x2_232",
  "SeriesNumber": 8,
  "ShimSetting": [-5474, -11496, -1214, 331, -20, -197, -182, 73],
  "SliceThickness": 2,
  "SliceTiming": [1.485, 0, 0.99, 0.0825, 1.0725, 0.165, 1.155, 0.2475, 1.2375, 0.33, 1.32, 0.4125, 1.4025, 0.5775, 1.5675, 0.66, 1.65, 0.7425, 1.7325, 0.825, 1.815, 0.9075, 1.8975, 0.495, 1.485, 0, 0.99, 0.0825, 1.0725, 0.165, 1.155, 0.2475, 1.2375, 0.33, 1.32, 0.4125, 1.4025, 0.5775, 1.5675, 0.66, 1.65, 0.7425, 1.7325, 0.825, 1.815, 0.9075, 1.8975, 0.495, 1.485, 0, 0.99, 0.0825, 1.0725, 0.165, 1.155, 0.2475, 1.2375, 0.33, 1.32, 0.4125, 1.4025, 0.5775, 1.5675, 0.66, 1.65, 0.7425, 1.7325, 0.825, 1.815, 0.9075, 1.8975, 0.495],
  "SoftwareVersions": "syngo_MR_E11",
  "SpacingBetweenSlices": 2,
  "StationName": "AWP166078",
  "TaskName": "motor",
  "TotalReadoutTime": 0.0534586,
  "TxRefAmp": 222.708,
  "dcmmeta_affine": [
    [-2.0, 0.0, 0.0, 102.02409362792969],
    [0.0, 2.0, 0.0, -91.37349700927734],
    [0.0, 0.0, 2.0, -46.71084213256836],
    [0.0, 0.0, 0.0, 1.0]
],
  "dcmmeta_reorient_transform": [
    [0.0, -1.0, 0.0, 99.0],
    [1.0, 0.0, 0.0, 0.0],
    [0.0, 0.0, 1.0, 0.0],
    [0.0, 0.0, 0.0, 1.0]
],
  "dcmmeta_shape": [100, 100, 72, 232],
  "dcmmeta_slice_dim": 2,
  "dcmmeta_version": 0.6,
  "global": {
    "const": {
      "AcquisitionMatrix": [100, 0, 0, 100],
      "AngioFlag": "N",
      "BitsAllocated": 16,
      "BitsStored": 12,
      "BodyPartExamined": "BRAIN",
      "Columns": 900,
      "EchoNumbers": 1,
      "EchoTime": 34.0,
      "EchoTrainLength": 100,
      "FlipAngle": 90.0,
      "HighBit": 11,
      "ImageOrientationPatient": [1.0, 0.0, 0.0, 0.0, 1.0, 0.0],
      "ImagePositionPatient": [-902.02409648895, -906.62650585175, -46.710842132568],
      "ImageType": [
        "ORIGINAL",
        "PRIMARY",
        "M",
        "ND",
        "MOSAIC"
],
      "ImagedNucleus": "1H",
      "ImagingFrequency": 123.257817,
      "InPlanePhaseEncodingDirection": "COL",
      "LargestImagePixelValue": 4095,
      "MRAcquisitionType": "2D",
      "MagneticFieldStrength": 3.0,
      "Manufacturer": "SIEMENS",
      "ManufacturerModelName": "Prisma",
      "Modality": "MR",
      "NumberOfAverages": 1.0,
      "NumberOfPhaseEncodingSteps": 100,
      "PercentPhaseFieldOfView": 100.0,
      "PercentSampling": 100.0,
      "PerformedProcedureStepStartTime": "090645.996000",
      "PhotometricInterpretation": "MONOCHROME2",
      "PixelBandwidth": 2380.0,
      "PixelRepresentation": 0,
      "PixelSpacing": [2.0, 2.0],
      "ProtocolName": "bold_100x100_s3_2x2x2_232",
      "RepetitionTime": 2000.0,
      "Rows": 900,
      "SAR": 0.07007384061558,
      "SamplesPerPixel": 1,
      "ScanOptions": "FS",
      "ScanningSequence": "EP",
      "SequenceName": "*epfid2d1_100",
      "SequenceVariant": "SK",
      "SeriesDescription": "bold_100x100_s3_2x2x2_232",
      "SeriesNumber": 8,
      "SeriesTime": "094135.469000",
      "SliceLocation": -46.710842132568,
      "SliceThickness": 2.0,
      "SmallestImagePixelValue": 0,
      "SoftwareVersions": "syngo MR E11",
      "SpacingBetweenSlices": 1.9999999462719,
      "SpecificCharacterSet": "ISO_IR 100",
      "StudyID": "1",
      "StudyTime": "090645.912000",
      "TransmitCoilName": "Body",
      "VariableFlipAngleFlag": "N",
      "WindowCenterWidthExplanation": "Algo1",
      "dBdt": 0.0},
    "slices": {}
  },
  "time": {
    "samples": {
      "AcquisitionNumber": [1, 2, 3, 4, 5, 6, 7, 8, 9, 10, 11, 12, 13, 14, 15, 16, 17, 18, 19, 20, 21, 22, 23, 24, 25, 26, 27, 28, 29, 30, 31, 32, 33, 34, 35, 36, 37, 38, 39, 40, 41, 42, 43, 44, 45, 46, 47, 48, 49, 50, 51, 52, 53, 54, 55, 56, 57, 58, 59, 60, 61, 62, 63, 64, 65, 66, 67, 68, 69, 70, 71, 72, 73, 74, 75, 76, 77, 78, 79, 80, 81, 82, 83, 84, 85, 86, 87, 88, 89, 90, 91, 92, 93, 94, 95, 96, 97, 98, 99, 100, 101, 102, 103, 104, 105, 106, 107, 108, 109, 110, 111, 112, 113, 114, 115, 116, 117, 118, 119, 120, 121, 122, 123, 124, 125, 126, 127, 128, 129, 130, 131, 132, 133, 134, 135, 136, 137, 138, 139, 140, 141, 142, 143, 144, 145, 146, 147, 148, 149, 150, 151, 152, 153, 154, 155, 156, 157, 158, 159, 160, 161, 162, 163, 164, 165, 166, 167, 168, 169, 170, 171, 172, 173, 174, 175, 176, 177, 178, 179, 180, 181, 182, 183, 184, 185, 186, 187, 188, 189, 190, 191, 192, 193, 194, 195, 196, 197, 198, 199, 200, 201, 202, 203, 204, 205, 206, 207, 208, 209, 210, 211, 212, 213, 214, 215, 216, 217, 218, 219, 220, 221, 222, 223, 224, 225, 226, 227, 228, 229, 230, 231, 232],
      "AcquisitionTime": ["094133.275000", "094135.275000", "094137.275000", "094139.275000", "094141.275000", "094143.275000", "094145.275000", "094147.275000", "094149.275000", "094151.275000", "094153.275000", "094155.275000", "094157.275000", "094159.275000", "094201.275000", "094203.275000", "094205.275000", "094207.275000", "094209.275000", "094211.275000", "094213.275000", "094215.275000", "094217.275000", "094219.275000", "094221.275000", "094223.275000", "094225.275000", "094227.275000", "094229.275000", "094231.275000", "094233.275000", "094235.275000", "094237.275000", "094239.275000", "094241.275000", "094243.275000", "094245.275000", "094247.275000", "094249.275000", "094251.275000", "094253.275000", "094255.275000", "094257.275000", "094259.275000", "094301.275000", "094303.275000", "094305.275000", "094307.275000", "094309.275000", "094311.275000", "094313.275000", "094315.275000", "094317.275000", "094319.275000", "094321.275000", "094323.275000", "094325.275000", "094327.275000", "094329.275000", "094331.275000", "094333.275000", "094335.275000", "094337.275000", "094339.275000", "094341.275000", "094343.275000", "094345.275000", "094347.275000", "094349.275000", "094351.275000", "094353.275000", "094355.275000", "094357.275000", "094359.275000", "094401.275000", "094403.275000", "094405.275000", "094407.275000", "094409.275000", "094411.275000", "094413.275000", "094415.275000", "094417.275000", "094419.275000", "094421.275000", "094423.275000", "094425.275000", "094427.275000", "094429.275000", "094431.275000", "094433.275000", "094435.275000", "094437.275000", "094439.275000", "094441.275000", "094443.275000", "094445.275000", "094447.275000", "094449.275000", "094451.275000", "094453.275000", "094455.275000", "094457.275000", "094459.275000", "094501.275000", "094503.275000", "094505.275000", "094507.275000", "094509.275000", "094511.275000", "094513.275000", "094515.275000", "094517.275000", "094519.275000", "094521.275000", "094523.275000", "094525.275000", "094527.275000", "094529.275000", "094531.275000", "094533.275000", "094535.275000", "094537.275000", "094539.275000", "094541.275000", "094543.275000", "094545.275000", "094547.275000", "094549.275000", "094551.275000", "094553.275000", "094555.275000", "094557.275000", "094559.275000", "094601.275000", "094603.275000", "094605.275000", "094607.275000", "094609.275000", "094611.275000", "094613.275000", "094615.275000", "094617.275000", "094619.275000", "094621.275000", "094623.275000", "094625.275000", "094627.275000", "094629.275000", "094631.275000", "094633.275000", "094635.275000", "094637.275000", "094639.275000", "094641.275000", "094643.275000", "094645.275000", "094647.275000", "094649.275000", "094651.275000", "094653.275000", "094655.275000", "094657.275000", "094659.275000", "094701.275000", "094703.275000", "094705.275000", "094707.275000", "094709.275000", "094711.275000", "094713.275000", "094715.275000", "094717.275000", "094719.275000", "094721.275000", "094723.275000", "094725.275000", "094727.275000", "094729.275000", "094731.275000", "094733.275000", "094735.275000", "094737.275000", "094739.275000", "094741.275000", "094743.275000", "094745.275000", "094747.275000", "094749.275000", "094751.275000", "094753.275000", "094755.275000", "094757.275000", "094759.275000", "094801.275000", "094803.275000", "094805.275000", "094807.275000", "094809.275000", "094811.275000", "094813.275000", "094815.275000", "094817.275000", "094819.275000", "094821.275000", "094823.275000", "094825.275000", "094827.275000", "094829.275000", "094831.275000", "094833.275000", "094835.275000", "094837.275000", "094839.275000", "094841.275000", "094843.275000", "094845.275000", "094847.275000", "094849.275000", "094851.275000", "094853.275000", "094855.275000", "094857.275000", "094859.275000", "094901.275000", "094903.275000", "094905.275000", "094907.275000", "094909.275000", "094911.275000", "094913.275000", "094915.275000"],
      "ContentTime": ["094135.473000", "094136.969000", "094138.968000", "094140.968000", "094142.968000", "094144.968000", "094146.968000", "094148.968000", "094150.968000", "094152.969000", "094154.968000", "094156.968000", "094158.968000", "094200.969000", "094202.969000", "094204.968000", "094206.968000", "094208.968000", "094210.968000", "094212.969000", "094214.968000", "094216.968000", "094218.968000", "094220.969000", "094222.968000", "094224.967000", "094226.968000", "094228.968000", "094230.968000", "094232.969000", "094234.968000", "094236.968000", "094238.968000", "094240.968000", "094242.967000", "094244.969000", "094246.968000", "094248.968000", "094250.968000", "094252.968000", "094254.968000", "094256.969000", "094258.968000", "094300.969000", "094302.968000", "094304.968000", "094306.969000", "094308.968000", "094310.968000", "094312.968000", "094314.969000", "094316.967000", "094318.968000", "094320.968000", "094322.968000", "094324.968000", "094326.968000", "094328.968000", "094330.969000", "094332.968000", "094334.968000", "094336.968000", "094338.968000", "094340.969000", "094342.968000", "094344.968000", "094346.968000", "094348.968000", "094350.969000", "094352.968000", "094354.968000", "094356.968000", "094358.968000", "094400.968000", "094402.968000", "094404.968000", "094406.969000", "094408.969000", "094410.968000", "094412.969000", "094414.968000", "094416.968000", "094418.968000", "094420.968000", "094422.968000", "094424.968000", "094426.967000", "094428.968000", "094430.968000", "094432.968000", "094434.968000", "094436.968000", "094438.969000", "094440.969000", "094442.968000", "094444.967000", "094446.968000", "094448.969000", "094450.968000", "094452.968000", "094454.968000", "094456.968000", "094458.968000", "094500.968000", "094502.968000", "094504.968000", "094506.969000", "094508.968000", "094510.969000", "094512.968000", "094514.968000", "094516.968000", "094518.969000", "094520.968000", "094522.968000", "094524.969000", "094526.968000", "094528.968000", "094530.968000", "094532.968000", "094534.969000", "094536.968000", "094538.969000", "094540.968000", "094542.968000", "094544.968000", "094546.968000", "094548.968000", "094550.969000", "094552.968000", "094554.967000", "094556.968000", "094558.969000", "094600.968000", "094602.968000", "094604.969000", "094606.968000", "094608.968000", "094610.969000", "094612.968000", "094614.968000", "094616.968000", "094618.969000", "094620.969000", "094622.969000", "094624.968000", "094626.968000", "094628.969000", "094630.969000", "094632.969000", "094634.969000", "094636.968000", "094638.968000", "094640.968000", "094642.978000", "094644.968000", "094646.967000", "094648.969000", "094650.969000", "094652.969000", "094654.968000", "094656.968000", "094658.968000", "094700.968000", "094702.968000", "094704.967000", "094706.969000", "094708.968000", "094710.969000", "094712.968000", "094714.968000", "094716.969000", "094718.969000", "094720.968000", "094722.969000", "094724.969000", "094726.968000", "094728.969000", "094730.968000", "094732.968000", "094734.968000", "094736.969000", "094738.968000", "094740.969000", "094742.968000", "094744.968000", "094746.969000", "094748.969000", "094750.969000", "094752.969000", "094754.968000", "094756.968000", "094758.969000", "094800.968000", "094802.969000", "094804.968000", "094806.968000", "094808.968000", "094810.968000", "094812.968000", "094814.968000", "094816.968000", "094818.968000", "094820.969000", "094822.969000", "094824.968000", "094826.969000", "094828.968000", "094830.969000", "094832.969000", "094834.968000", "094836.968000", "094838.968000", "094840.968000", "094842.968000", "094844.969000", "094846.968000", "094848.968000", "094850.969000", "094852.968000", "094854.968000", "094856.969000", "094858.969000", "094900.968000", "094902.969000", "094904.969000", "094906.967000", "094908.968000", "094910.968000", "094912.969000", "094914.969000", "094916.738000"],
      "InstanceCreationTime": ["094135.473000", "094136.969000", "094138.968000", "094140.968000", "094142.968000", "094144.968000", "094146.968000", "094148.968000", "094150.968000", "094152.969000", "094154.968000", "094156.968000", "094158.968000", "094200.969000", "094202.969000", "094204.968000", "094206.968000", "094208.968000", "094210.968000", "094212.969000", "094214.968000", "094216.968000", "094218.968000", "094220.969000", "094222.968000", "094224.967000", "094226.968000", "094228.968000", "094230.968000", "094232.969000", "094234.968000", "094236.968000", "094238.968000", "094240.968000", "094242.967000", "094244.969000", "094246.968000", "094248.968000", "094250.968000", "094252.968000", "094254.968000", "094256.969000", "094258.968000", "094300.969000", "094302.968000", "094304.968000", "094306.969000", "094308.968000", "094310.968000", "094312.968000", "094314.969000", "094316.967000", "094318.968000", "094320.968000", "094322.968000", "094324.968000", "094326.968000", "094328.968000", "094330.969000", "094332.968000", "094334.968000", "094336.968000", "094338.968000", "094340.969000", "094342.968000", "094344.968000", "094346.968000", "094348.968000", "094350.969000", "094352.968000", "094354.968000", "094356.968000", "094358.968000", "094400.968000", "094402.968000", "094404.968000", "094406.969000", "094408.969000", "094410.968000", "094412.969000", "094414.968000", "094416.968000", "094418.968000", "094420.968000", "094422.968000", "094424.968000", "094426.967000", "094428.968000", "094430.968000", "094432.968000", "094434.968000", "094436.968000", "094438.969000", "094440.969000", "094442.968000", "094444.967000", "094446.968000", "094448.969000", "094450.968000", "094452.968000", "094454.968000", "094456.968000", "094458.968000", "094500.968000", "094502.968000", "094504.968000", "094506.969000", "094508.968000", "094510.969000", "094512.968000", "094514.968000", "094516.968000", "094518.969000", "094520.968000", "094522.968000", "094524.969000", "094526.968000", "094528.968000", "094530.968000", "094532.968000", "094534.969000", "094536.968000", "094538.969000", "094540.968000", "094542.968000", "094544.968000", "094546.968000", "094548.968000", "094550.969000", "094552.968000", "094554.967000", "094556.968000", "094558.969000", "094600.968000", "094602.968000", "094604.969000", "094606.968000", "094608.968000", "094610.969000", "094612.968000", "094614.968000", "094616.968000", "094618.969000", "094620.969000", "094622.969000", "094624.968000", "094626.968000", "094628.969000", "094630.969000", "094632.969000", "094634.969000", "094636.968000", "094638.968000", "094640.968000", "094642.978000", "094644.968000", "094646.967000", "094648.969000", "094650.969000", "094652.969000", "094654.968000", "094656.968000", "094658.968000", "094700.968000", "094702.968000", "094704.967000", "094706.969000", "094708.968000", "094710.969000", "094712.968000", "094714.968000", "094716.969000", "094718.969000", "094720.968000", "094722.969000", "094724.969000", "094726.968000", "094728.969000", "094730.968000", "094732.968000", "094734.968000", "094736.969000", "094738.968000", "094740.969000", "094742.968000", "094744.968000", "094746.969000", "094748.969000", "094750.969000", "094752.969000", "094754.968000", "094756.968000", "094758.969000", "094800.968000", "094802.969000", "094804.968000", "094806.968000", "094808.968000", "094810.968000", "094812.968000", "094814.968000", "094816.968000", "094818.968000", "094820.969000", "094822.969000", "094824.968000", "094826.969000", "094828.968000", "094830.969000", "094832.969000", "094834.968000", "094836.968000", "094838.968000", "094840.968000", "094842.968000", "094844.969000", "094846.968000", "094848.968000", "094850.969000", "094852.968000", "094854.968000", "094856.969000", "094858.969000", "094900.968000", "094902.969000", "094904.969000", "094906.967000", "094908.968000", "094910.968000", "094912.969000", "094914.969000", "094916.738000"],
      "InstanceNumber": [1, 2, 3, 4, 5, 6, 7, 8, 9, 10, 11, 12, 13, 14, 15, 16, 17, 18, 19, 20, 21, 22, 23, 24, 25, 26, 27, 28, 29, 30, 31, 32, 33, 34, 35, 36, 37, 38, 39, 40, 41, 42, 43, 44, 45, 46, 47, 48, 49, 50, 51, 52, 53, 54, 55, 56, 57, 58, 59, 60, 61, 62, 63, 64, 65, 66, 67, 68, 69, 70, 71, 72, 73, 74, 75, 76, 77, 78, 79, 80, 81, 82, 83, 84, 85, 86, 87, 88, 89, 90, 91, 92, 93, 94, 95, 96, 97, 98, 99, 100, 101, 102, 103, 104, 105, 106, 107, 108, 109, 110, 111, 112, 113, 114, 115, 116, 117, 118, 119, 120, 121, 122, 123, 124, 125, 126, 127, 128, 129, 130, 131, 132, 133, 134, 135, 136, 137, 138, 139, 140, 141, 142, 143, 144, 145, 146, 147, 148, 149, 150, 151, 152, 153, 154, 155, 156, 157, 158, 159, 160, 161, 162, 163, 164, 165, 166, 167, 168, 169, 170, 171, 172, 173, 174, 175, 176, 177, 178, 179, 180, 181, 182, 183, 184, 185, 186, 187, 188, 189, 190, 191, 192, 193, 194, 195, 196, 197, 198, 199, 200, 201, 202, 203, 204, 205, 206, 207, 208, 209, 210, 211, 212, 213, 214, 215, 216, 217, 218, 219, 220, 221, 222, 223, 224, 225, 226, 227, 228, 229, 230, 231, 232],
      "WindowCenter": [886.0, 883.0, 883.0, 883.0, 884.0, 884.0, 885.0, 885.0, 884.0, 884.0, 885.0, 885.0, 885.0, 884.0, 884.0, 884.0, 885.0, 887.0, 888.0, 888.0, 888.0, 887.0, 887.0, 886.0, 885.0, 883.0, 884.0, 883.0, 884.0, 884.0, 883.0, 885.0, 886.0, 887.0, 887.0, 886.0, 886.0, 887.0, 887.0, 886.0, 885.0, 886.0, 885.0, 885.0, 885.0, 885.0, 885.0, 885.0, 886.0, 886.0, 886.0, 885.0, 884.0, 884.0, 884.0, 885.0, 886.0, 887.0, 888.0, 888.0, 885.0, 883.0, 883.0, 884.0, 885.0, 884.0, 883.0, 883.0, 884.0, 885.0, 885.0, 884.0, 884.0, 885.0, 886.0, 886.0, 885.0, 884.0, 884.0, 885.0, 885.0, 886.0, 885.0, 883.0, 882.0, 882.0, 883.0, 884.0, 883.0, 884.0, 885.0, 886.0, 886.0, 885.0, 884.0, 884.0, 884.0, 885.0, 885.0, 884.0, 883.0, 884.0, 884.0, 884.0, 884.0, 884.0, 883.0, 882.0, 882.0, 882.0, 884.0, 886.0, 886.0, 886.0, 886.0, 886.0, 887.0, 886.0, 885.0, 885.0, 885.0, 885.0, 886.0, 886.0, 885.0, 885.0, 885.0, 884.0, 884.0, 884.0, 884.0, 885.0, 884.0, 883.0, 883.0, 883.0, 884.0, 885.0, 886.0, 886.0, 886.0, 885.0, 886.0, 886.0, 886.0, 887.0, 886.0, 884.0, 883.0, 883.0, 885.0, 886.0, 887.0, 887.0, 887.0, 888.0, 889.0, 888.0, 887.0, 886.0, 886.0, 885.0, 884.0, 883.0, 883.0, 883.0, 884.0, 884.0, 885.0, 886.0, 886.0, 885.0, 884.0, 883.0, 883.0, 884.0, 884.0, 884.0, 883.0, 884.0, 883.0, 884.0, 883.0, 884.0, 884.0, 885.0, 885.0, 884.0, 884.0, 883.0, 884.0, 885.0, 886.0, 887.0, 887.0, 887.0, 886.0, 886.0, 886.0, 885.0, 885.0, 885.0, 884.0, 884.0, 884.0, 883.0, 883.0, 883.0, 884.0, 884.0, 885.0, 885.0, 885.0, 884.0, 884.0, 883.0, 883.0, 884.0, 884.0, 884.0, 884.0, 884.0, 885.0, 886.0, 887.0, 888.0, 888.0, 887.0, 886.0, 885.0, 883.0, 883.0],
      "WindowWidth": [1926.0, 1919.0, 1918.0, 1917.0, 1919.0, 1921.0, 1923.0, 1923.0, 1921.0, 1921.0, 1923.0, 1924.0, 1922.0, 1920.0, 1921.0, 1921.0, 1922.0, 1927.0, 1931.0, 1932.0, 1931.0, 1930.0, 1927.0, 1926.0, 1923.0, 1918.0, 1919.0, 1918.0, 1919.0, 1920.0, 1918.0, 1923.0, 1927.0, 1929.0, 1928.0, 1927.0, 1926.0, 1928.0, 1928.0, 1927.0, 1924.0, 1924.0, 1923.0, 1921.0, 1921.0, 1921.0, 1922.0, 1924.0, 1925.0, 1925.0, 1923.0, 1922.0, 1919.0, 1918.0, 1921.0, 1922.0, 1923.0, 1926.0, 1930.0, 1930.0, 1922.0, 1917.0, 1915.0, 1919.0, 1922.0, 1919.0, 1916.0, 1917.0, 1919.0, 1922.0, 1923.0, 1920.0, 1920.0, 1922.0, 1924.0, 1924.0, 1921.0, 1920.0, 1920.0, 1922.0, 1924.0, 1925.0, 1922.0, 1917.0, 1914.0, 1915.0, 1916.0, 1918.0, 1916.0, 1920.0, 1924.0, 1926.0, 1925.0, 1921.0, 1919.0, 1918.0, 1920.0, 1921.0, 1920.0, 1917.0, 1916.0, 1917.0, 1917.0, 1917.0, 1918.0, 1917.0, 1915.0, 1913.0, 1912.0, 1914.0, 1919.0, 1924.0, 1923.0, 1924.0, 1923.0, 1924.0, 1926.0, 1924.0, 1921.0, 1922.0, 1923.0, 1923.0, 1924.0, 1923.0, 1921.0, 1922.0, 1921.0, 1919.0, 1917.0, 1917.0, 1920.0, 1921.0, 1920.0, 1917.0, 1915.0, 1917.0, 1919.0, 1922.0, 1924.0, 1925.0, 1925.0, 1923.0, 1925.0, 1923.0, 1924.0, 1926.0, 1923.0, 1917.0, 1915.0, 1916.0, 1921.0, 1924.0, 1926.0, 1926.0, 1926.0, 1929.0, 1931.0, 1930.0, 1925.0, 1923.0, 1923.0, 1921.0, 1918.0, 1916.0, 1916.0, 1917.0, 1919.0, 1920.0, 1921.0, 1925.0, 1925.0, 1922.0, 1918.0, 1917.0, 1916.0, 1918.0, 1918.0, 1917.0, 1917.0, 1917.0, 1917.0, 1917.0, 1917.0, 1918.0, 1919.0, 1922.0, 1920.0, 1919.0, 1918.0, 1916.0, 1918.0, 1920.0, 1923.0, 1926.0, 1927.0, 1926.0, 1925.0, 1924.0, 1924.0, 1923.0, 1921.0, 1921.0, 1919.0, 1919.0, 1917.0, 1916.0, 1916.0, 1917.0, 1919.0, 1919.0, 1920.0, 1921.0, 1921.0, 1919.0, 1918.0, 1917.0, 1917.0, 1919.0, 1919.0, 1918.0, 1918.0, 1919.0, 1923.0, 1924.0, 1926.0, 1929.0, 1929.0, 1927.0, 1924.0, 1920.0, 1916.0, 1914.0]
    },
    "slices": {}
  }
}