{
  "AcquisitionMatrixPE": 100,
  "AcquisitionNumber": 1,
  "AcquisitionTime": "09:21:20.655000",
  "BandwidthPerPixelPhaseEncode": 18.519,
  "BaseResolution": 100,
  "BodyPartExamined": "BRAIN",
  "ConsistencyInfo": "N4_VE11C_LATEST_20160120",
  "ConversionSoftware": "dcm2niix",
  "ConversionSoftwareVersion": "v1.0.20180622 GCC4.9.2",
  "DerivedVendorReportedEchoSpacing": 0.000539986,
  "DeviceSerialNumber": "166078",
  "DwellTime": 2.1e-06,
  "EchoTime": 0.034,
  "EchoTrainLength": 100,
  "EffectiveEchoSpacing": 0.000539986,
  "FlipAngle": 90,
  "ImageOrientationPatientDICOM": [1, 0, 0, 0, 1, 0],
  "ImageType": [
    "ORIGINAL",
    "PRIMARY",
    "M",
    "ND",
    "MOSAIC"
],
  "InPlanePhaseEncodingDirectionDICOM": "COL",
  "InstitutionAddress": "Street_StreetNo_Bei_Jing_District_CN_ZIP",
  "InstitutionName": "BeiJing_Normal_University",
  "InstitutionalDepartmentName": "Department",
  "MRAcquisitionType": "2D",
  "MagneticFieldStrength": 3,
  "Manufacturer": "Siemens",
  "ManufacturersModelName": "Prisma",
  "Modality": "MR",
  "MultibandAccelerationFactor": 3,
  "PartialFourier": 1,
  "PatientPosition": "HFS",
  "PercentPhaseFOV": 100,
  "PhaseEncodingDirection": "j-",
  "PhaseEncodingSteps": 100,
  "PhaseResolution": 1,
  "PixelBandwidth": 2380,
  "ProcedureStepDescription": "BNU_P2018_64CH_Liu.Jia",
  "ProtocolName": "bold_100x100_s3_2x2x2_232",
  "PulseSequenceDetails": "%SiemensSeq%_ep2d_bold",
  "ReceiveCoilActiveElements": "HC1-7;NC1",
  "ReceiveCoilName": "HeadNeck_64",
  "ReconMatrixPE": 100,
  "RepetitionTime": 2,
  "SAR": 0.0700738,
  "ScanOptions": "FS",
  "ScanningSequence": "EP",
  "SequenceName": "_epfid2d1_100",
  "SequenceVariant": "SK",
  "SeriesDescription": "bold_100x100_s3_2x2x2_232",
  "SeriesNumber": 4,
  "ShimSetting": [-5474, -11496, -1214, 331, -20, -197, -182, 73],
  "SliceThickness": 2,
  "SliceTiming": [1.4825, 0, 0.9875, 0.0825, 1.07, 0.165, 1.1525, 0.2475, 1.235, 0.33, 1.3175, 0.4125, 1.4, 0.5775, 1.565, 0.6575, 1.6475, 0.74, 1.73, 0.8225, 1.8125, 0.905, 1.895, 0.495, 1.4825, 0, 0.9875, 0.0825, 1.07, 0.165, 1.1525, 0.2475, 1.235, 0.33, 1.3175, 0.4125, 1.4, 0.5775, 1.565, 0.6575, 1.6475, 0.74, 1.73, 0.8225, 1.8125, 0.905, 1.895, 0.495, 1.4825, 0, 0.9875, 0.0825, 1.07, 0.165, 1.1525, 0.2475, 1.235, 0.33, 1.3175, 0.4125, 1.4, 0.5775, 1.565, 0.6575, 1.6475, 0.74, 1.73, 0.8225, 1.8125, 0.905, 1.895, 0.495],
  "SoftwareVersions": "syngo_MR_E11",
  "SpacingBetweenSlices": 2,
  "StationName": "AWP166078",
  "TaskName": "motor",
  "TotalReadoutTime": 0.0534586,
  "TxRefAmp": 222.708,
  "dcmmeta_affine": [
    [-2.0, 0.0, 0.0, 102.02409362792969],
    [0.0, 2.0, 0.0, -91.37349700927734],
    [0.0, 0.0, 2.0, -46.71084213256836],
    [0.0, 0.0, 0.0, 1.0]
],
  "dcmmeta_reorient_transform": [
    [0.0, -1.0, 0.0, 99.0],
    [1.0, 0.0, 0.0, 0.0],
    [0.0, 0.0, 1.0, 0.0],
    [0.0, 0.0, 0.0, 1.0]
],
  "dcmmeta_shape": [100, 100, 72, 232],
  "dcmmeta_slice_dim": 2,
  "dcmmeta_version": 0.6,
  "global": {
    "const": {
      "AcquisitionMatrix": [100, 0, 0, 100],
      "AngioFlag": "N",
      "BitsAllocated": 16,
      "BitsStored": 12,
      "BodyPartExamined": "BRAIN",
      "Columns": 900,
      "EchoNumbers": 1,
      "EchoTime": 34.0,
      "EchoTrainLength": 100,
      "FlipAngle": 90.0,
      "HighBit": 11,
      "ImageOrientationPatient": [1.0, 0.0, 0.0, 0.0, 1.0, 0.0],
      "ImagePositionPatient": [-902.02409648895, -906.62650585175, -46.710842132568],
      "ImageType": [
        "ORIGINAL",
        "PRIMARY",
        "M",
        "ND",
        "MOSAIC"
],
      "ImagedNucleus": "1H",
      "ImagingFrequency": 123.257811,
      "InPlanePhaseEncodingDirection": "COL",
      "LargestImagePixelValue": 4095,
      "MRAcquisitionType": "2D",
      "MagneticFieldStrength": 3.0,
      "Manufacturer": "SIEMENS",
      "ManufacturerModelName": "Prisma",
      "Modality": "MR",
      "NumberOfAverages": 1.0,
      "NumberOfPhaseEncodingSteps": 100,
      "PercentPhaseFieldOfView": 100.0,
      "PercentSampling": 100.0,
      "PerformedProcedureStepStartTime": "090645.996000",
      "PhotometricInterpretation": "MONOCHROME2",
      "PixelBandwidth": 2380.0,
      "PixelRepresentation": 0,
      "PixelSpacing": [2.0, 2.0],
      "ProtocolName": "bold_100x100_s3_2x2x2_232",
      "RepetitionTime": 2000.0,
      "Rows": 900,
      "SAR": 0.07007384061558,
      "SamplesPerPixel": 1,
      "ScanOptions": "FS",
      "ScanningSequence": "EP",
      "SequenceName": "*epfid2d1_100",
      "SequenceVariant": "SK",
      "SeriesDescription": "bold_100x100_s3_2x2x2_232",
      "SeriesNumber": 4,
      "SeriesTime": "092122.878000",
      "SliceLocation": -46.710842132568,
      "SliceThickness": 2.0,
      "SmallestImagePixelValue": 0,
      "SoftwareVersions": "syngo MR E11",
      "SpacingBetweenSlices": 1.9999999462719,
      "SpecificCharacterSet": "ISO_IR 100",
      "StudyID": "1",
      "StudyTime": "090645.912000",
      "TransmitCoilName": "Body",
      "VariableFlipAngleFlag": "N",
      "WindowCenterWidthExplanation": "Algo1",
      "dBdt": 0.0},
    "slices": {}
  },
  "time": {
    "samples": {
      "AcquisitionNumber": [1, 2, 3, 4, 5, 6, 7, 8, 9, 10, 11, 12, 13, 14, 15, 16, 17, 18, 19, 20, 21, 22, 23, 24, 25, 26, 27, 28, 29, 30, 31, 32, 33, 34, 35, 36, 37, 38, 39, 40, 41, 42, 43, 44, 45, 46, 47, 48, 49, 50, 51, 52, 53, 54, 55, 56, 57, 58, 59, 60, 61, 62, 63, 64, 65, 66, 67, 68, 69, 70, 71, 72, 73, 74, 75, 76, 77, 78, 79, 80, 81, 82, 83, 84, 85, 86, 87, 88, 89, 90, 91, 92, 93, 94, 95, 96, 97, 98, 99, 100, 101, 102, 103, 104, 105, 106, 107, 108, 109, 110, 111, 112, 113, 114, 115, 116, 117, 118, 119, 120, 121, 122, 123, 124, 125, 126, 127, 128, 129, 130, 131, 132, 133, 134, 135, 136, 137, 138, 139, 140, 141, 142, 143, 144, 145, 146, 147, 148, 149, 150, 151, 152, 153, 154, 155, 156, 157, 158, 159, 160, 161, 162, 163, 164, 165, 166, 167, 168, 169, 170, 171, 172, 173, 174, 175, 176, 177, 178, 179, 180, 181, 182, 183, 184, 185, 186, 187, 188, 189, 190, 191, 192, 193, 194, 195, 196, 197, 198, 199, 200, 201, 202, 203, 204, 205, 206, 207, 208, 209, 210, 211, 212, 213, 214, 215, 216, 217, 218, 219, 220, 221, 222, 223, 224, 225, 226, 227, 228, 229, 230, 231, 232],
      "AcquisitionTime": ["092120.655000", "092122.655000", "092124.655000", "092126.655000", "092128.655000", "092130.655000", "092132.655000", "092134.655000", "092136.655000", "092138.655000", "092140.655000", "092142.655000", "092144.655000", "092146.655000", "092148.655000", "092150.655000", "092152.655000", "092154.655000", "092156.655000", "092158.655000", "092200.655000", "092202.655000", "092204.655000", "092206.655000", "092208.655000", "092210.655000", "092212.655000", "092214.655000", "092216.655000", "092218.655000", "092220.655000", "092222.655000", "092224.655000", "092226.655000", "092228.655000", "092230.655000", "092232.655000", "092234.655000", "092236.655000", "092238.655000", "092240.655000", "092242.655000", "092244.655000", "092246.655000", "092248.655000", "092250.655000", "092252.655000", "092254.655000", "092256.655000", "092258.655000", "092300.655000", "092302.655000", "092304.655000", "092306.655000", "092308.655000", "092310.655000", "092312.655000", "092314.655000", "092316.655000", "092318.655000", "092320.655000", "092322.655000", "092324.655000", "092326.655000", "092328.655000", "092330.655000", "092332.655000", "092334.655000", "092336.655000", "092338.655000", "092340.655000", "092342.655000", "092344.655000", "092346.655000", "092348.655000", "092350.655000", "092352.655000", "092354.655000", "092356.655000", "092358.655000", "092400.655000", "092402.655000", "092404.655000", "092406.655000", "092408.655000", "092410.655000", "092412.655000", "092414.655000", "092416.655000", "092418.655000", "092420.655000", "092422.655000", "092424.655000", "092426.655000", "092428.655000", "092430.655000", "092432.655000", "092434.655000", "092436.655000", "092438.655000", "092440.655000", "092442.655000", "092444.655000", "092446.655000", "092448.655000", "092450.655000", "092452.655000", "092454.655000", "092456.655000", "092458.655000", "092500.655000", "092502.655000", "092504.655000", "092506.655000", "092508.655000", "092510.655000", "092512.655000", "092514.655000", "092516.655000", "092518.655000", "092520.655000", "092522.655000", "092524.655000", "092526.655000", "092528.655000", "092530.655000", "092532.655000", "092534.655000", "092536.655000", "092538.655000", "092540.655000", "092542.655000", "092544.655000", "092546.655000", "092548.655000", "092550.655000", "092552.655000", "092554.655000", "092556.655000", "092558.655000", "092600.655000", "092602.655000", "092604.655000", "092606.655000", "092608.655000", "092610.655000", "092612.655000", "092614.655000", "092616.655000", "092618.655000", "092620.655000", "092622.655000", "092624.655000", "092626.655000", "092628.655000", "092630.655000", "092632.655000", "092634.655000", "092636.655000", "092638.655000", "092640.655000", "092642.655000", "092644.655000", "092646.655000", "092648.655000", "092650.655000", "092652.655000", "092654.655000", "092656.655000", "092658.655000", "092700.655000", "092702.655000", "092704.655000", "092706.655000", "092708.655000", "092710.655000", "092712.655000", "092714.655000", "092716.655000", "092718.655000", "092720.655000", "092722.655000", "092724.655000", "092726.655000", "092728.655000", "092730.655000", "092732.655000", "092734.655000", "092736.655000", "092738.655000", "092740.655000", "092742.655000", "092744.655000", "092746.655000", "092748.655000", "092750.655000", "092752.655000", "092754.655000", "092756.655000", "092758.655000", "092800.655000", "092802.655000", "092804.655000", "092806.655000", "092808.655000", "092810.655000", "092812.655000", "092814.655000", "092816.655000", "092818.655000", "092820.655000", "092822.655000", "092824.655000", "092826.655000", "092828.655000", "092830.655000", "092832.655000", "092834.655000", "092836.655000", "092838.655000", "092840.655000", "092842.655000", "092844.655000", "092846.655000", "092848.655000", "092850.655000", "092852.655000", "092854.655000", "092856.655000", "092858.655000", "092900.655000", "092902.655000"],
      "ContentTime": ["092122.882000", "092124.377000", "092126.377000", "092128.377000", "092130.377000", "092132.378000", "092134.377000", "092136.377000", "092138.377000", "092140.377000", "092142.377000", "092144.377000", "092146.377000", "092148.377000", "092150.377000", "092152.377000", "092154.377000", "092156.377000", "092158.377000", "092200.377000", "092202.377000", "092204.378000", "092206.377000", "092208.378000", "092210.378000", "092212.377000", "092214.377000", "092216.378000", "092218.377000", "092220.378000", "092222.378000", "092224.378000", "092226.378000", "092228.378000", "092230.378000", "092232.377000", "092234.377000", "092236.377000", "092238.378000", "092240.378000", "092242.377000", "092244.378000", "092246.377000", "092248.377000", "092250.377000", "092252.378000", "092254.377000", "092256.377000", "092258.377000", "092300.377000", "092302.377000", "092304.377000", "092306.377000", "092308.377000", "092310.377000", "092312.377000", "092314.377000", "092316.377000", "092318.378000", "092320.377000", "092322.377000", "092324.378000", "092326.377000", "092328.377000", "092330.377000", "092332.377000", "092334.378000", "092336.378000", "092338.378000", "092340.377000", "092342.378000", "092344.377000", "092346.377000", "092348.377000", "092350.377000", "092352.378000", "092354.377000", "092356.377000", "092358.377000", "092400.378000", "092402.377000", "092404.377000", "092406.378000", "092408.377000", "092410.378000", "092412.377000", "092414.377000", "092416.378000", "092418.378000", "092420.378000", "092422.378000", "092424.378000", "092426.377000", "092428.378000", "092430.377000", "092432.377000", "092434.378000", "092436.378000", "092438.378000", "092440.377000", "092442.377000", "092444.378000", "092446.378000", "092448.377000", "092450.378000", "092452.377000", "092454.378000", "092456.377000", "092458.378000", "092500.377000", "092502.377000", "092504.377000", "092506.378000", "092508.378000", "092510.378000", "092512.378000", "092514.378000", "092516.378000", "092518.377000", "092520.377000", "092522.377000", "092524.378000", "092526.377000", "092528.377000", "092530.377000", "092532.378000", "092534.377000", "092536.377000", "092538.377000", "092540.377000", "092542.378000", "092544.378000", "092546.378000", "092548.377000", "092550.378000", "092552.378000", "092554.377000", "092556.377000", "092558.377000", "092600.377000", "092602.378000", "092604.377000", "092606.377000", "092608.378000", "092610.377000", "092612.377000", "092614.377000", "092616.377000", "092618.377000", "092620.377000", "092622.378000", "092624.378000", "092626.378000", "092628.377000", "092630.378000", "092632.377000", "092634.377000", "092636.377000", "092638.377000", "092640.378000", "092642.377000", "092644.377000", "092646.377000", "092648.377000", "092650.378000", "092652.377000", "092654.378000", "092656.378000", "092658.377000", "092700.377000", "092702.378000", "092704.378000", "092706.378000", "092708.377000", "092710.378000", "092712.378000", "092714.378000", "092716.377000", "092718.377000", "092720.378000", "092722.377000", "092724.377000", "092726.378000", "092728.377000", "092730.377000", "092732.378000", "092734.378000", "092736.378000", "092738.377000", "092740.378000", "092742.378000", "092744.377000", "092746.377000", "092748.378000", "092750.377000", "092752.377000", "092754.377000", "092756.377000", "092758.378000", "092800.377000", "092802.378000", "092804.377000", "092806.377000", "092808.377000", "092810.378000", "092812.377000", "092814.377000", "092816.377000", "092818.377000", "092820.378000", "092822.377000", "092824.378000", "092826.378000", "092828.377000", "092830.378000", "092832.377000", "092834.378000", "092836.378000", "092838.378000", "092840.378000", "092842.378000", "092844.377000", "092846.377000", "092848.377000", "092850.377000", "092852.378000", "092854.378000", "092856.377000", "092858.377000", "092900.377000", "092902.377000", "092903.995000"],
      "InstanceCreationTime": ["092122.882000", "092124.377000", "092126.377000", "092128.377000", "092130.377000", "092132.378000", "092134.377000", "092136.377000", "092138.377000", "092140.377000", "092142.377000", "092144.377000", "092146.377000", "092148.377000", "092150.377000", "092152.377000", "092154.377000", "092156.377000", "092158.377000", "092200.377000", "092202.377000", "092204.378000", "092206.377000", "092208.378000", "092210.378000", "092212.377000", "092214.377000", "092216.378000", "092218.377000", "092220.378000", "092222.378000", "092224.378000", "092226.378000", "092228.378000", "092230.378000", "092232.377000", "092234.377000", "092236.377000", "092238.378000", "092240.378000", "092242.377000", "092244.378000", "092246.377000", "092248.377000", "092250.377000", "092252.378000", "092254.377000", "092256.377000", "092258.377000", "092300.377000", "092302.377000", "092304.377000", "092306.377000", "092308.377000", "092310.377000", "092312.377000", "092314.377000", "092316.377000", "092318.378000", "092320.377000", "092322.377000", "092324.378000", "092326.377000", "092328.377000", "092330.377000", "092332.377000", "092334.378000", "092336.378000", "092338.378000", "092340.377000", "092342.378000", "092344.377000", "092346.377000", "092348.377000", "092350.377000", "092352.378000", "092354.377000", "092356.377000", "092358.377000", "092400.378000", "092402.377000", "092404.377000", "092406.378000", "092408.377000", "092410.378000", "092412.377000", "092414.377000", "092416.378000", "092418.378000", "092420.378000", "092422.378000", "092424.378000", "092426.377000", "092428.378000", "092430.377000", "092432.377000", "092434.378000", "092436.378000", "092438.378000", "092440.377000", "092442.377000", "092444.378000", "092446.378000", "092448.377000", "092450.378000", "092452.377000", "092454.378000", "092456.377000", "092458.378000", "092500.377000", "092502.377000", "092504.377000", "092506.378000", "092508.378000", "092510.378000", "092512.378000", "092514.378000", "092516.378000", "092518.377000", "092520.377000", "092522.377000", "092524.378000", "092526.377000", "092528.377000", "092530.377000", "092532.378000", "092534.377000", "092536.377000", "092538.377000", "092540.377000", "092542.378000", "092544.378000", "092546.378000", "092548.377000", "092550.378000", "092552.378000", "092554.377000", "092556.377000", "092558.377000", "092600.377000", "092602.378000", "092604.377000", "092606.377000", "092608.378000", "092610.377000", "092612.377000", "092614.377000", "092616.377000", "092618.377000", "092620.377000", "092622.378000", "092624.378000", "092626.378000", "092628.377000", "092630.378000", "092632.377000", "092634.377000", "092636.377000", "092638.377000", "092640.378000", "092642.377000", "092644.377000", "092646.377000", "092648.377000", "092650.378000", "092652.377000", "092654.378000", "092656.378000", "092658.377000", "092700.377000", "092702.378000", "092704.378000", "092706.378000", "092708.377000", "092710.378000", "092712.378000", "092714.378000", "092716.377000", "092718.377000", "092720.378000", "092722.377000", "092724.377000", "092726.378000", "092728.377000", "092730.377000", "092732.378000", "092734.378000", "092736.378000", "092738.377000", "092740.378000", "092742.378000", "092744.377000", "092746.377000", "092748.378000", "092750.377000", "092752.377000", "092754.377000", "092756.377000", "092758.378000", "092800.377000", "092802.378000", "092804.377000", "092806.377000", "092808.377000", "092810.378000", "092812.377000", "092814.377000", "092816.377000", "092818.377000", "092820.378000", "092822.377000", "092824.378000", "092826.378000", "092828.377000", "092830.378000", "092832.377000", "092834.378000", "092836.378000", "092838.378000", "092840.378000", "092842.378000", "092844.377000", "092846.377000", "092848.377000", "092850.377000", "092852.378000", "092854.378000", "092856.377000", "092858.377000", "092900.377000", "092902.377000", "092903.995000"],
      "InstanceNumber": [1, 2, 3, 4, 5, 6, 7, 8, 9, 10, 11, 12, 13, 14, 15, 16, 17, 18, 19, 20, 21, 22, 23, 24, 25, 26, 27, 28, 29, 30, 31, 32, 33, 34, 35, 36, 37, 38, 39, 40, 41, 42, 43, 44, 45, 46, 47, 48, 49, 50, 51, 52, 53, 54, 55, 56, 57, 58, 59, 60, 61, 62, 63, 64, 65, 66, 67, 68, 69, 70, 71, 72, 73, 74, 75, 76, 77, 78, 79, 80, 81, 82, 83, 84, 85, 86, 87, 88, 89, 90, 91, 92, 93, 94, 95, 96, 97, 98, 99, 100, 101, 102, 103, 104, 105, 106, 107, 108, 109, 110, 111, 112, 113, 114, 115, 116, 117, 118, 119, 120, 121, 122, 123, 124, 125, 126, 127, 128, 129, 130, 131, 132, 133, 134, 135, 136, 137, 138, 139, 140, 141, 142, 143, 144, 145, 146, 147, 148, 149, 150, 151, 152, 153, 154, 155, 156, 157, 158, 159, 160, 161, 162, 163, 164, 165, 166, 167, 168, 169, 170, 171, 172, 173, 174, 175, 176, 177, 178, 179, 180, 181, 182, 183, 184, 185, 186, 187, 188, 189, 190, 191, 192, 193, 194, 195, 196, 197, 198, 199, 200, 201, 202, 203, 204, 205, 206, 207, 208, 209, 210, 211, 212, 213, 214, 215, 216, 217, 218, 219, 220, 221, 222, 223, 224, 225, 226, 227, 228, 229, 230, 231, 232],
      "WindowCenter": [894.0, 891.0, 891.0, 892.0, 892.0, 893.0, 892.0, 891.0, 891.0, 892.0, 893.0, 892.0, 891.0, 891.0, 891.0, 891.0, 891.0, 892.0, 891.0, 890.0, 890.0, 890.0, 890.0, 891.0, 892.0, 892.0, 892.0, 892.0, 892.0, 892.0, 892.0, 892.0, 891.0, 891.0, 891.0, 891.0, 891.0, 890.0, 890.0, 891.0, 891.0, 890.0, 890.0, 889.0, 889.0, 889.0, 889.0, 889.0, 888.0, 890.0, 889.0, 890.0, 891.0, 892.0, 892.0, 892.0, 892.0, 893.0, 892.0, 890.0, 890.0, 890.0, 889.0, 889.0, 889.0, 889.0, 889.0, 889.0, 889.0, 889.0, 890.0, 890.0, 891.0, 893.0, 893.0, 892.0, 892.0, 891.0, 891.0, 891.0, 890.0, 890.0, 889.0, 889.0, 888.0, 888.0, 888.0, 887.0, 888.0, 888.0, 889.0, 890.0, 890.0, 890.0, 890.0, 891.0, 891.0, 892.0, 891.0, 889.0, 888.0, 888.0, 889.0, 890.0, 891.0, 891.0, 893.0, 893.0, 893.0, 893.0, 891.0, 891.0, 890.0, 890.0, 890.0, 890.0, 890.0, 891.0, 891.0, 890.0, 888.0, 889.0, 890.0, 891.0, 891.0, 891.0, 891.0, 892.0, 892.0, 892.0, 892.0, 892.0, 892.0, 892.0, 892.0, 891.0, 891.0, 891.0, 891.0, 892.0, 892.0, 892.0, 892.0, 891.0, 890.0, 890.0, 889.0, 889.0, 889.0, 890.0, 890.0, 890.0, 889.0, 890.0, 890.0, 891.0, 891.0, 891.0, 891.0, 891.0, 891.0, 891.0, 891.0, 890.0, 889.0, 890.0, 890.0, 890.0, 890.0, 889.0, 889.0, 889.0, 889.0, 888.0, 887.0, 887.0, 887.0, 888.0, 889.0, 890.0, 890.0, 890.0, 890.0, 891.0, 891.0, 890.0, 889.0, 888.0, 888.0, 888.0, 888.0, 889.0, 889.0, 890.0, 890.0, 891.0, 892.0, 893.0, 893.0, 892.0, 891.0, 891.0, 890.0, 888.0, 887.0, 887.0, 888.0, 889.0, 890.0, 890.0, 890.0, 890.0, 890.0, 891.0, 891.0, 892.0, 891.0, 891.0, 891.0, 891.0, 891.0, 891.0, 890.0, 890.0, 891.0, 891.0, 890.0, 889.0, 890.0, 890.0, 891.0, 891.0],
      "WindowWidth": [1949.0, 1941.0, 1941.0, 1943.0, 1945.0, 1946.0, 1944.0, 1940.0, 1942.0, 1944.0, 1945.0, 1943.0, 1942.0, 1941.0, 1942.0, 1943.0, 1942.0, 1944.0, 1942.0, 1940.0, 1938.0, 1938.0, 1939.0, 1941.0, 1944.0, 1945.0, 1944.0, 1945.0, 1943.0, 1944.0, 1945.0, 1943.0, 1940.0, 1940.0, 1942.0, 1942.0, 1941.0, 1940.0, 1940.0, 1941.0, 1942.0, 1940.0, 1938.0, 1937.0, 1936.0, 1936.0, 1935.0, 1936.0, 1934.0, 1938.0, 1937.0, 1940.0, 1942.0, 1945.0, 1946.0, 1946.0, 1946.0, 1947.0, 1945.0, 1940.0, 1938.0, 1938.0, 1938.0, 1937.0, 1936.0, 1936.0, 1937.0, 1937.0, 1937.0, 1936.0, 1938.0, 1940.0, 1943.0, 1946.0, 1947.0, 1945.0, 1944.0, 1943.0, 1943.0, 1941.0, 1939.0, 1939.0, 1936.0, 1936.0, 1933.0, 1933.0, 1932.0, 1931.0, 1932.0, 1934.0, 1936.0, 1938.0, 1939.0, 1939.0, 1940.0, 1941.0, 1942.0, 1943.0, 1940.0, 1935.0, 1933.0, 1934.0, 1937.0, 1939.0, 1942.0, 1940.0, 1948.0, 1946.0, 1948.0, 1946.0, 1941.0, 1940.0, 1940.0, 1939.0, 1938.0, 1938.0, 1939.0, 1942.0, 1940.0, 1937.0, 1934.0, 1936.0, 1940.0, 1941.0, 1942.0, 1941.0, 1941.0, 1943.0, 1944.0, 1944.0, 1945.0, 1944.0, 1943.0, 1943.0, 1942.0, 1941.0, 1940.0, 1941.0, 1942.0, 1943.0, 1944.0, 1944.0, 1945.0, 1942.0, 1939.0, 1938.0, 1936.0, 1936.0, 1936.0, 1938.0, 1938.0, 1937.0, 1936.0, 1936.0, 1938.0, 1940.0, 1941.0, 1941.0, 1940.0, 1941.0, 1941.0, 1942.0, 1941.0, 1937.0, 1936.0, 1937.0, 1937.0, 1938.0, 1937.0, 1936.0, 1936.0, 1937.0, 1936.0, 1934.0, 1931.0, 1930.0, 1931.0, 1934.0, 1936.0, 1937.0, 1938.0, 1939.0, 1939.0, 1941.0, 1942.0, 1939.0, 1935.0, 1932.0, 1932.0, 1933.0, 1932.0, 1934.0, 1935.0, 1938.0, 1938.0, 1940.0, 1944.0, 1946.0, 1946.0, 1943.0, 1940.0, 1939.0, 1937.0, 1933.0, 1930.0, 1929.0, 1933.0, 1935.0, 1936.0, 1937.0, 1936.0, 1938.0, 1938.0, 1940.0, 1940.0, 1942.0, 1941.0, 1941.0, 1941.0, 1940.0, 1941.0, 1940.0, 1939.0, 1939.0, 1939.0, 1939.0, 1936.0, 1935.0, 1936.0, 1937.0, 1939.0, 1939.0]
    },
    "slices": {}
  }
}