{
  "AcquisitionMatrixPE": 100,
  "AcquisitionNumber": 1,
  "AcquisitionTime": "09:12:48.192500",
  "BandwidthPerPixelPhaseEncode": 18.519,
  "BaseResolution": 100,
  "BodyPartExamined": "BRAIN",
  "ConsistencyInfo": "N4_VE11C_LATEST_20160120",
  "ConversionSoftware": "dcm2niix",
  "ConversionSoftwareVersion": "v1.0.20180622 GCC4.9.2",
  "DerivedVendorReportedEchoSpacing": 0.000539986,
  "DeviceSerialNumber": "166078",
  "DwellTime": 2.1e-06,
  "EchoTime": 0.034,
  "EchoTrainLength": 100,
  "EffectiveEchoSpacing": 0.000539986,
  "FlipAngle": 90,
  "ImageOrientationPatientDICOM": [1, 0, 0, 0, 1, 0],
  "ImageType": [
    "ORIGINAL",
    "PRIMARY",
    "M",
    "ND",
    "MOSAIC"
],
  "InPlanePhaseEncodingDirectionDICOM": "COL",
  "InstitutionAddress": "Street_StreetNo_Bei_Jing_District_CN_ZIP",
  "InstitutionName": "BeiJing_Normal_University",
  "InstitutionalDepartmentName": "Department",
  "MRAcquisitionType": "2D",
  "MagneticFieldStrength": 3,
  "Manufacturer": "Siemens",
  "ManufacturersModelName": "Prisma",
  "Modality": "MR",
  "MultibandAccelerationFactor": 3,
  "PartialFourier": 1,
  "PatientPosition": "HFS",
  "PercentPhaseFOV": 100,
  "PhaseEncodingDirection": "j-",
  "PhaseEncodingSteps": 100,
  "PhaseResolution": 1,
  "PixelBandwidth": 2380,
  "ProcedureStepDescription": "BNU_P2018_64CH_Liu.Jia",
  "ProtocolName": "bold_100x100_s3_2x2x2_232",
  "PulseSequenceDetails": "%SiemensSeq%_ep2d_bold",
  "ReceiveCoilActiveElements": "HC1-7;NC1",
  "ReceiveCoilName": "HeadNeck_64",
  "ReconMatrixPE": 100,
  "RepetitionTime": 2,
  "SAR": 0.0700738,
  "ScanOptions": "FS",
  "ScanningSequence": "EP",
  "SequenceName": "_epfid2d1_100",
  "SequenceVariant": "SK",
  "SeriesDescription": "bold_100x100_s3_2x2x2_232",
  "SeriesNumber": 3,
  "ShimSetting": [-5474, -11496, -1214, 331, -20, -197, -182, 73],
  "SliceThickness": 2,
  "SliceTiming": [1.485, 0, 0.99, 0.0825, 1.0725, 0.165, 1.155, 0.2475, 1.2375, 0.33, 1.32, 0.4125, 1.4025, 0.5775, 1.5675, 0.66, 1.65, 0.7425, 1.7325, 0.825, 1.815, 0.9075, 1.8975, 0.495, 1.485, 0, 0.99, 0.0825, 1.0725, 0.165, 1.155, 0.2475, 1.2375, 0.33, 1.32, 0.4125, 1.4025, 0.5775, 1.5675, 0.66, 1.65, 0.7425, 1.7325, 0.825, 1.815, 0.9075, 1.8975, 0.495, 1.485, 0, 0.99, 0.0825, 1.0725, 0.165, 1.155, 0.2475, 1.2375, 0.33, 1.32, 0.4125, 1.4025, 0.5775, 1.5675, 0.66, 1.65, 0.7425, 1.7325, 0.825, 1.815, 0.9075, 1.8975, 0.495],
  "SoftwareVersions": "syngo_MR_E11",
  "SpacingBetweenSlices": 2,
  "StationName": "AWP166078",
  "TaskName": "motor",
  "TotalReadoutTime": 0.0534586,
  "TxRefAmp": 222.708,
  "dcmmeta_affine": [
    [-2.0, 0.0, 0.0, 102.02409362792969],
    [0.0, 2.0, 0.0, -91.37349700927734],
    [0.0, 0.0, 2.0, -46.71084213256836],
    [0.0, 0.0, 0.0, 1.0]
],
  "dcmmeta_reorient_transform": [
    [0.0, -1.0, 0.0, 99.0],
    [1.0, 0.0, 0.0, 0.0],
    [0.0, 0.0, 1.0, 0.0],
    [0.0, 0.0, 0.0, 1.0]
],
  "dcmmeta_shape": [100, 100, 72, 232],
  "dcmmeta_slice_dim": 2,
  "dcmmeta_version": 0.6,
  "global": {
    "const": {
      "AcquisitionMatrix": [100, 0, 0, 100],
      "AngioFlag": "N",
      "BitsAllocated": 16,
      "BitsStored": 12,
      "BodyPartExamined": "BRAIN",
      "Columns": 900,
      "EchoNumbers": 1,
      "EchoTime": 34.0,
      "EchoTrainLength": 100,
      "FlipAngle": 90.0,
      "HighBit": 11,
      "ImageOrientationPatient": [1.0, 0.0, 0.0, 0.0, 1.0, 0.0],
      "ImagePositionPatient": [-902.02409648895, -906.62650585175, -46.710842132568],
      "ImageType": [
        "ORIGINAL",
        "PRIMARY",
        "M",
        "ND",
        "MOSAIC"
],
      "ImagedNucleus": "1H",
      "ImagingFrequency": 123.2578,
      "InPlanePhaseEncodingDirection": "COL",
      "LargestImagePixelValue": 4095,
      "MRAcquisitionType": "2D",
      "MagneticFieldStrength": 3.0,
      "Manufacturer": "SIEMENS",
      "ManufacturerModelName": "Prisma",
      "Modality": "MR",
      "NumberOfAverages": 1.0,
      "NumberOfPhaseEncodingSteps": 100,
      "PercentPhaseFieldOfView": 100.0,
      "PercentSampling": 100.0,
      "PerformedProcedureStepStartTime": "090645.996000",
      "PhotometricInterpretation": "MONOCHROME2",
      "PixelBandwidth": 2380.0,
      "PixelRepresentation": 0,
      "PixelSpacing": [2.0, 2.0],
      "ProtocolName": "bold_100x100_s3_2x2x2_232",
      "RepetitionTime": 2000.0,
      "Rows": 900,
      "SAR": 0.07007384061558,
      "SamplesPerPixel": 1,
      "ScanOptions": "FS",
      "ScanningSequence": "EP",
      "SequenceName": "*epfid2d1_100",
      "SequenceVariant": "SK",
      "SeriesDescription": "bold_100x100_s3_2x2x2_232",
      "SeriesNumber": 3,
      "SeriesTime": "091251.086000",
      "SliceLocation": -46.710842132568,
      "SliceThickness": 2.0,
      "SmallestImagePixelValue": 0,
      "SoftwareVersions": "syngo MR E11",
      "SpacingBetweenSlices": 1.9999999462719,
      "SpecificCharacterSet": "ISO_IR 100",
      "StudyID": "1",
      "StudyTime": "090645.912000",
      "TransmitCoilName": "Body",
      "VariableFlipAngleFlag": "N",
      "WindowCenterWidthExplanation": "Algo1",
      "dBdt": 0.0},
    "slices": {}
  },
  "time": {
    "samples": {
      "AcquisitionNumber": [1, 2, 3, 4, 5, 6, 7, 8, 9, 10, 11, 12, 13, 14, 15, 16, 17, 18, 19, 20, 21, 22, 23, 24, 25, 26, 27, 28, 29, 30, 31, 32, 33, 34, 35, 36, 37, 38, 39, 40, 41, 42, 43, 44, 45, 46, 47, 48, 49, 50, 51, 52, 53, 54, 55, 56, 57, 58, 59, 60, 61, 62, 63, 64, 65, 66, 67, 68, 69, 70, 71, 72, 73, 74, 75, 76, 77, 78, 79, 80, 81, 82, 83, 84, 85, 86, 87, 88, 89, 90, 91, 92, 93, 94, 95, 96, 97, 98, 99, 100, 101, 102, 103, 104, 105, 106, 107, 108, 109, 110, 111, 112, 113, 114, 115, 116, 117, 118, 119, 120, 121, 122, 123, 124, 125, 126, 127, 128, 129, 130, 131, 132, 133, 134, 135, 136, 137, 138, 139, 140, 141, 142, 143, 144, 145, 146, 147, 148, 149, 150, 151, 152, 153, 154, 155, 156, 157, 158, 159, 160, 161, 162, 163, 164, 165, 166, 167, 168, 169, 170, 171, 172, 173, 174, 175, 176, 177, 178, 179, 180, 181, 182, 183, 184, 185, 186, 187, 188, 189, 190, 191, 192, 193, 194, 195, 196, 197, 198, 199, 200, 201, 202, 203, 204, 205, 206, 207, 208, 209, 210, 211, 212, 213, 214, 215, 216, 217, 218, 219, 220, 221, 222, 223, 224, 225, 226, 227, 228, 229, 230, 231, 232],
      "AcquisitionTime": ["091248.192500", "091250.192500", "091252.192500", "091254.192500", "091256.192500", "091258.192500", "091300.192500", "091302.192500", "091304.192500", "091306.192500", "091308.192500", "091310.192500", "091312.192500", "091314.192500", "091316.192500", "091318.192500", "091320.192500", "091322.192500", "091324.192500", "091326.192500", "091328.192500", "091330.192500", "091332.192500", "091334.192500", "091336.192500", "091338.192500", "091340.192500", "091342.192500", "091344.192500", "091346.192500", "091348.192500", "091350.192500", "091352.192500", "091354.192500", "091356.192500", "091358.192500", "091400.192500", "091402.192500", "091404.192500", "091406.192500", "091408.192500", "091410.192500", "091412.192500", "091414.192500", "091416.192500", "091418.192500", "091420.192500", "091422.192500", "091424.192500", "091426.192500", "091428.192500", "091430.192500", "091432.192500", "091434.192500", "091436.192500", "091438.192500", "091440.192500", "091442.192500", "091444.192500", "091446.192500", "091448.192500", "091450.192500", "091452.192500", "091454.192500", "091456.192500", "091458.192500", "091500.192500", "091502.192500", "091504.192500", "091506.192500", "091508.192500", "091510.192500", "091512.192500", "091514.192500", "091516.192500", "091518.192500", "091520.192500", "091522.192500", "091524.192500", "091526.192500", "091528.192500", "091530.192500", "091532.192500", "091534.192500", "091536.192500", "091538.192500", "091540.192500", "091542.192500", "091544.192500", "091546.192500", "091548.192500", "091550.192500", "091552.192500", "091554.192500", "091556.192500", "091558.192500", "091600.192500", "091602.192500", "091604.192500", "091606.192500", "091608.192500", "091610.192500", "091612.192500", "091614.192500", "091616.192500", "091618.192500", "091620.192500", "091622.192500", "091624.192500", "091626.192500", "091628.192500", "091630.192500", "091632.192500", "091634.192500", "091636.192500", "091638.192500", "091640.192500", "091642.192500", "091644.192500", "091646.192500", "091648.192500", "091650.192500", "091652.192500", "091654.192500", "091656.192500", "091658.192500", "091700.192500", "091702.192500", "091704.192500", "091706.192500", "091708.192500", "091710.192500", "091712.192500", "091714.192500", "091716.192500", "091718.192500", "091720.192500", "091722.192500", "091724.192500", "091726.192500", "091728.192500", "091730.192500", "091732.192500", "091734.192500", "091736.192500", "091738.192500", "091740.192500", "091742.192500", "091744.192500", "091746.192500", "091748.192500", "091750.192500", "091752.192500", "091754.192500", "091756.192500", "091758.192500", "091800.192500", "091802.192500", "091804.192500", "091806.192500", "091808.192500", "091810.192500", "091812.192500", "091814.192500", "091816.192500", "091818.192500", "091820.192500", "091822.192500", "091824.192500", "091826.192500", "091828.192500", "091830.192500", "091832.192500", "091834.192500", "091836.192500", "091838.192500", "091840.192500", "091842.192500", "091844.192500", "091846.192500", "091848.192500", "091850.192500", "091852.192500", "091854.192500", "091856.192500", "091858.192500", "091900.192500", "091902.192500", "091904.192500", "091906.192500", "091908.192500", "091910.192500", "091912.192500", "091914.192500", "091916.192500", "091918.192500", "091920.192500", "091922.192500", "091924.192500", "091926.192500", "091928.192500", "091930.192500", "091932.192500", "091934.192500", "091936.192500", "091938.192500", "091940.192500", "091942.192500", "091944.192500", "091946.192500", "091948.192500", "091950.192500", "091952.192500", "091954.192500", "091956.192500", "091958.192500", "092000.192500", "092002.192500", "092004.192500", "092006.192500", "092008.192500", "092010.192500", "092012.192500", "092014.192500", "092016.192500", "092018.192500", "092020.192500", "092022.192500", "092024.192500", "092026.192500", "092028.192500", "092030.192500"],
      "ContentTime": ["091251.090000", "091253.085000", "091254.585000", "091256.585000", "091258.586000", "091300.587000", "091302.587000", "091304.586000", "091306.585000", "091308.586000", "091310.586000", "091312.586000", "091314.586000", "091316.586000", "091318.587000", "091320.587000", "091322.586000", "091324.585000", "091326.585000", "091328.586000", "091330.585000", "091332.585000", "091334.585000", "091336.586000", "091338.586000", "091340.586000", "091342.586000", "091344.585000", "091346.586000", "091348.586000", "091350.585000", "091352.586000", "091354.586000", "091356.586000", "091358.586000", "091400.586000", "091402.585000", "091404.585000", "091406.585000", "091408.585000", "091410.586000", "091412.587000", "091414.587000", "091416.585000", "091418.585000", "091420.585000", "091422.586000", "091424.586000", "091426.586000", "091428.587000", "091430.587000", "091432.586000", "091434.585000", "091436.585000", "091438.586000", "091440.586000", "091442.586000", "091444.585000", "091446.586000", "091448.586000", "091450.586000", "091452.585000", "091454.586000", "091456.586000", "091458.586000", "091500.586000", "091502.586000", "091504.586000", "091506.587000", "091508.587000", "091510.586000", "091512.586000", "091514.586000", "091516.586000", "091518.586000", "091520.587000", "091522.587000", "091524.587000", "091526.586000", "091528.585000", "091530.585000", "091532.585000", "091534.585000", "091536.585000", "091538.586000", "091540.586000", "091542.586000", "091544.585000", "091546.585000", "091548.585000", "091550.585000", "091552.586000", "091554.585000", "091556.586000", "091558.587000", "091600.586000", "091602.585000", "091604.585000", "091606.586000", "091608.585000", "091610.586000", "091612.586000", "091614.586000", "091616.586000", "091618.587000", "091620.586000", "091622.585000", "091624.585000", "091626.585000", "091628.585000", "091630.586000", "091632.587000", "091634.586000", "091636.586000", "091638.586000", "091640.586000", "091642.586000", "091644.586000", "091646.586000", "091648.587000", "091650.587000", "091652.586000", "091654.586000", "091656.586000", "091658.586000", "091700.585000", "091702.586000", "091704.585000", "091706.586000", "091708.586000", "091710.587000", "091712.586000", "091714.585000", "091716.585000", "091718.586000", "091720.585000", "091722.587000", "091724.586000", "091726.586000", "091728.587000", "091730.585000", "091732.586000", "091734.585000", "091736.586000", "091738.585000", "091740.587000", "091742.586000", "091744.586000", "091746.585000", "091748.585000", "091750.585000", "091752.585000", "091754.585000", "091756.585000", "091758.587000", "091800.586000", "091802.586000", "091804.586000", "091806.586000", "091808.585000", "091810.585000", "091812.586000", "091814.585000", "091816.586000", "091818.587000", "091820.600000", "091822.586000", "091824.586000", "091826.585000", "091828.586000", "091830.586000", "091832.586000", "091834.587000", "091836.586000", "091838.586000", "091840.586000", "091842.586000", "091844.585000", "091846.586000", "091848.585000", "091850.587000", "091852.586000", "091854.586000", "091856.586000", "091858.586000", "091900.585000", "091902.586000", "091904.586000", "091906.585000", "091908.586000", "091910.586000", "091912.587000", "091914.585000", "091916.586000", "091918.586000", "091920.586000", "091922.586000", "091924.586000", "091926.586000", "091928.587000", "091930.586000", "091932.585000", "091934.586000", "091936.586000", "091938.585000", "091940.585000", "091942.586000", "091944.587000", "091946.587000", "091948.587000", "091950.585000", "091952.585000", "091954.586000", "091956.586000", "091958.586000", "092000.586000", "092002.586000", "092004.587000", "092006.586000", "092008.586000", "092010.586000", "092012.586000", "092014.585000", "092016.586000", "092018.587000", "092020.587000", "092022.587000", "092024.586000", "092026.585000", "092028.586000", "092030.585000", "092032.197000"],
      "InstanceCreationTime": ["091251.090000", "091253.085000", "091254.585000", "091256.585000", "091258.586000", "091300.587000", "091302.587000", "091304.586000", "091306.585000", "091308.586000", "091310.586000", "091312.586000", "091314.586000", "091316.586000", "091318.587000", "091320.587000", "091322.586000", "091324.585000", "091326.585000", "091328.586000", "091330.585000", "091332.585000", "091334.585000", "091336.586000", "091338.586000", "091340.586000", "091342.586000", "091344.585000", "091346.586000", "091348.586000", "091350.585000", "091352.586000", "091354.586000", "091356.586000", "091358.586000", "091400.586000", "091402.585000", "091404.585000", "091406.585000", "091408.585000", "091410.586000", "091412.587000", "091414.587000", "091416.585000", "091418.585000", "091420.585000", "091422.586000", "091424.586000", "091426.586000", "091428.587000", "091430.587000", "091432.586000", "091434.585000", "091436.585000", "091438.586000", "091440.586000", "091442.586000", "091444.585000", "091446.586000", "091448.586000", "091450.586000", "091452.585000", "091454.586000", "091456.586000", "091458.586000", "091500.586000", "091502.586000", "091504.586000", "091506.587000", "091508.587000", "091510.586000", "091512.586000", "091514.586000", "091516.586000", "091518.586000", "091520.587000", "091522.587000", "091524.587000", "091526.586000", "091528.585000", "091530.585000", "091532.585000", "091534.585000", "091536.585000", "091538.586000", "091540.586000", "091542.586000", "091544.585000", "091546.585000", "091548.585000", "091550.585000", "091552.586000", "091554.585000", "091556.586000", "091558.587000", "091600.586000", "091602.585000", "091604.585000", "091606.586000", "091608.585000", "091610.586000", "091612.586000", "091614.586000", "091616.586000", "091618.587000", "091620.586000", "091622.585000", "091624.585000", "091626.585000", "091628.585000", "091630.586000", "091632.587000", "091634.586000", "091636.586000", "091638.586000", "091640.586000", "091642.586000", "091644.586000", "091646.586000", "091648.587000", "091650.587000", "091652.586000", "091654.586000", "091656.586000", "091658.586000", "091700.585000", "091702.586000", "091704.585000", "091706.586000", "091708.586000", "091710.587000", "091712.586000", "091714.585000", "091716.585000", "091718.586000", "091720.585000", "091722.587000", "091724.586000", "091726.586000", "091728.587000", "091730.585000", "091732.586000", "091734.585000", "091736.586000", "091738.585000", "091740.587000", "091742.586000", "091744.586000", "091746.585000", "091748.585000", "091750.585000", "091752.585000", "091754.585000", "091756.585000", "091758.587000", "091800.586000", "091802.586000", "091804.586000", "091806.586000", "091808.585000", "091810.585000", "091812.586000", "091814.585000", "091816.586000", "091818.587000", "091820.600000", "091822.586000", "091824.586000", "091826.585000", "091828.586000", "091830.586000", "091832.586000", "091834.587000", "091836.586000", "091838.586000", "091840.586000", "091842.586000", "091844.585000", "091846.586000", "091848.585000", "091850.587000", "091852.586000", "091854.586000", "091856.586000", "091858.586000", "091900.585000", "091902.586000", "091904.586000", "091906.585000", "091908.586000", "091910.586000", "091912.587000", "091914.585000", "091916.586000", "091918.586000", "091920.586000", "091922.586000", "091924.586000", "091926.586000", "091928.587000", "091930.586000", "091932.585000", "091934.586000", "091936.586000", "091938.585000", "091940.585000", "091942.586000", "091944.587000", "091946.587000", "091948.587000", "091950.585000", "091952.585000", "091954.586000", "091956.586000", "091958.586000", "092000.586000", "092002.586000", "092004.587000", "092006.586000", "092008.586000", "092010.586000", "092012.586000", "092014.585000", "092016.586000", "092018.587000", "092020.587000", "092022.587000", "092024.586000", "092026.585000", "092028.586000", "092030.585000", "092032.197000"],
      "InstanceNumber": [1, 2, 3, 4, 5, 6, 7, 8, 9, 10, 11, 12, 13, 14, 15, 16, 17, 18, 19, 20, 21, 22, 23, 24, 25, 26, 27, 28, 29, 30, 31, 32, 33, 34, 35, 36, 37, 38, 39, 40, 41, 42, 43, 44, 45, 46, 47, 48, 49, 50, 51, 52, 53, 54, 55, 56, 57, 58, 59, 60, 61, 62, 63, 64, 65, 66, 67, 68, 69, 70, 71, 72, 73, 74, 75, 76, 77, 78, 79, 80, 81, 82, 83, 84, 85, 86, 87, 88, 89, 90, 91, 92, 93, 94, 95, 96, 97, 98, 99, 100, 101, 102, 103, 104, 105, 106, 107, 108, 109, 110, 111, 112, 113, 114, 115, 116, 117, 118, 119, 120, 121, 122, 123, 124, 125, 126, 127, 128, 129, 130, 131, 132, 133, 134, 135, 136, 137, 138, 139, 140, 141, 142, 143, 144, 145, 146, 147, 148, 149, 150, 151, 152, 153, 154, 155, 156, 157, 158, 159, 160, 161, 162, 163, 164, 165, 166, 167, 168, 169, 170, 171, 172, 173, 174, 175, 176, 177, 178, 179, 180, 181, 182, 183, 184, 185, 186, 187, 188, 189, 190, 191, 192, 193, 194, 195, 196, 197, 198, 199, 200, 201, 202, 203, 204, 205, 206, 207, 208, 209, 210, 211, 212, 213, 214, 215, 216, 217, 218, 219, 220, 221, 222, 223, 224, 225, 226, 227, 228, 229, 230, 231, 232],
      "WindowCenter": [893.0, 892.0, 891.0, 890.0, 890.0, 889.0, 889.0, 890.0, 890.0, 891.0, 892.0, 892.0, 892.0, 892.0, 892.0, 892.0, 892.0, 893.0, 893.0, 893.0, 893.0, 893.0, 892.0, 893.0, 893.0, 893.0, 894.0, 894.0, 894.0, 894.0, 894.0, 893.0, 893.0, 893.0, 892.0, 890.0, 889.0, 889.0, 890.0, 890.0, 890.0, 891.0, 892.0, 891.0, 891.0, 890.0, 890.0, 891.0, 891.0, 891.0, 891.0, 891.0, 891.0, 890.0, 890.0, 890.0, 892.0, 892.0, 892.0, 892.0, 892.0, 893.0, 893.0, 892.0, 892.0, 891.0, 892.0, 892.0, 892.0, 891.0, 890.0, 889.0, 890.0, 890.0, 890.0, 891.0, 891.0, 892.0, 891.0, 889.0, 889.0, 890.0, 891.0, 891.0, 891.0, 891.0, 891.0, 891.0, 892.0, 892.0, 893.0, 894.0, 894.0, 894.0, 893.0, 893.0, 893.0, 893.0, 894.0, 894.0, 894.0, 893.0, 894.0, 894.0, 893.0, 893.0, 893.0, 894.0, 895.0, 896.0, 896.0, 895.0, 895.0, 895.0, 895.0, 894.0, 893.0, 891.0, 892.0, 893.0, 893.0, 893.0, 892.0, 893.0, 893.0, 893.0, 893.0, 893.0, 894.0, 893.0, 892.0, 892.0, 891.0, 890.0, 891.0, 891.0, 892.0, 892.0, 893.0, 894.0, 895.0, 895.0, 895.0, 895.0, 895.0, 895.0, 896.0, 896.0, 894.0, 893.0, 893.0, 893.0, 893.0, 894.0, 894.0, 894.0, 893.0, 893.0, 892.0, 891.0, 890.0, 891.0, 893.0, 893.0, 893.0, 892.0, 892.0, 892.0, 892.0, 892.0, 893.0, 892.0, 892.0, 893.0, 892.0, 891.0, 891.0, 891.0, 892.0, 892.0, 893.0, 894.0, 893.0, 893.0, 892.0, 894.0, 894.0, 895.0, 895.0, 895.0, 895.0, 894.0, 893.0, 893.0, 892.0, 892.0, 893.0, 894.0, 893.0, 892.0, 891.0, 892.0, 892.0, 892.0, 892.0, 892.0, 891.0, 890.0, 891.0, 892.0, 892.0, 892.0, 890.0, 890.0, 890.0, 890.0, 891.0, 892.0, 894.0, 895.0, 896.0, 896.0, 895.0, 894.0, 893.0, 893.0, 892.0, 891.0, 891.0, 891.0, 890.0, 890.0],
      "WindowWidth": [1953.0, 1949.0, 1946.0, 1943.0, 1941.0, 1940.0, 1941.0, 1942.0, 1944.0, 1946.0, 1949.0, 1949.0, 1948.0, 1948.0, 1949.0, 1948.0, 1948.0, 1950.0, 1950.0, 1951.0, 1951.0, 1950.0, 1949.0, 1951.0, 1951.0, 1951.0, 1954.0, 1953.0, 1953.0, 1952.0, 1954.0, 1952.0, 1952.0, 1950.0, 1946.0, 1943.0, 1940.0, 1940.0, 1940.0, 1941.0, 1941.0, 1944.0, 1945.0, 1945.0, 1943.0, 1941.0, 1941.0, 1943.0, 1944.0, 1944.0, 1945.0, 1944.0, 1944.0, 1942.0, 1942.0, 1942.0, 1945.0, 1946.0, 1945.0, 1947.0, 1947.0, 1949.0, 1948.0, 1947.0, 1946.0, 1942.0, 1945.0, 1947.0, 1945.0, 1943.0, 1939.0, 1938.0, 1940.0, 1940.0, 1941.0, 1943.0, 1944.0, 1946.0, 1942.0, 1938.0, 1937.0, 1941.0, 1943.0, 1944.0, 1942.0, 1942.0, 1943.0, 1943.0, 1944.0, 1945.0, 1948.0, 1950.0, 1951.0, 1950.0, 1949.0, 1948.0, 1949.0, 1949.0, 1951.0, 1951.0, 1950.0, 1949.0, 1950.0, 1950.0, 1948.0, 1948.0, 1947.0, 1950.0, 1954.0, 1956.0, 1956.0, 1955.0, 1954.0, 1953.0, 1954.0, 1951.0, 1946.0, 1943.0, 1944.0, 1947.0, 1948.0, 1946.0, 1946.0, 1946.0, 1947.0, 1949.0, 1949.0, 1949.0, 1949.0, 1949.0, 1945.0, 1943.0, 1941.0, 1940.0, 1941.0, 1942.0, 1944.0, 1945.0, 1947.0, 1949.0, 1952.0, 1953.0, 1952.0, 1952.0, 1952.0, 1954.0, 1956.0, 1954.0, 1950.0, 1948.0, 1948.0, 1948.0, 1947.0, 1949.0, 1949.0, 1949.0, 1948.0, 1948.0, 1944.0, 1940.0, 1938.0, 1942.0, 1945.0, 1947.0, 1946.0, 1943.0, 1942.0, 1942.0, 1943.0, 1943.0, 1944.0, 1943.0, 1943.0, 1944.0, 1942.0, 1940.0, 1939.0, 1939.0, 1942.0, 1942.0, 1946.0, 1947.0, 1946.0, 1944.0, 1942.0, 1946.0, 1948.0, 1951.0, 1951.0, 1951.0, 1951.0, 1949.0, 1947.0, 1944.0, 1942.0, 1942.0, 1945.0, 1946.0, 1944.0, 1940.0, 1940.0, 1942.0, 1942.0, 1941.0, 1941.0, 1941.0, 1939.0, 1937.0, 1940.0, 1941.0, 1942.0, 1941.0, 1938.0, 1937.0, 1936.0, 1937.0, 1939.0, 1943.0, 1947.0, 1951.0, 1954.0, 1953.0, 1951.0, 1947.0, 1945.0, 1944.0, 1943.0, 1940.0, 1939.0, 1939.0, 1937.0, 1936.0]
    },
    "slices": {}
  }
}