{
  "AcquisitionMatrixPE": 100,
  "AcquisitionNumber": 1,
  "AcquisitionTime": "09:49:53.187500",
  "BandwidthPerPixelPhaseEncode": 18.519,
  "BaseResolution": 100,
  "BodyPartExamined": "BRAIN",
  "ConsistencyInfo": "N4_VE11C_LATEST_20160120",
  "ConversionSoftware": "dcm2niix",
  "ConversionSoftwareVersion": "v1.0.20180622 GCC4.9.2",
  "DerivedVendorReportedEchoSpacing": 0.000539986,
  "DeviceSerialNumber": "166078",
  "DwellTime": 2.1e-06,
  "EchoTime": 0.034,
  "EchoTrainLength": 100,
  "EffectiveEchoSpacing": 0.000539986,
  "FlipAngle": 90,
  "ImageOrientationPatientDICOM": [1, 0, 0, 0, 1, 0],
  "ImageType": [
    "ORIGINAL",
    "PRIMARY",
    "M",
    "ND",
    "MOSAIC"
],
  "InPlanePhaseEncodingDirectionDICOM": "COL",
  "InstitutionAddress": "Street_StreetNo_Bei_Jing_District_CN_ZIP",
  "InstitutionName": "BeiJing_Normal_University",
  "InstitutionalDepartmentName": "Department",
  "MRAcquisitionType": "2D",
  "MagneticFieldStrength": 3,
  "Manufacturer": "Siemens",
  "ManufacturersModelName": "Prisma",
  "Modality": "MR",
  "MultibandAccelerationFactor": 3,
  "PartialFourier": 1,
  "PatientPosition": "HFS",
  "PercentPhaseFOV": 100,
  "PhaseEncodingDirection": "j-",
  "PhaseEncodingSteps": 100,
  "PhaseResolution": 1,
  "PixelBandwidth": 2380,
  "ProcedureStepDescription": "BNU_P2018_64CH_Liu.Jia",
  "ProtocolName": "bold_100x100_s3_2x2x2_232",
  "PulseSequenceDetails": "%SiemensSeq%_ep2d_bold",
  "ReceiveCoilActiveElements": "HC1-7;NC1",
  "ReceiveCoilName": "HeadNeck_64",
  "ReconMatrixPE": 100,
  "RepetitionTime": 2,
  "SAR": 0.0700738,
  "ScanOptions": "FS",
  "ScanningSequence": "EP",
  "SequenceName": "_epfid2d1_100",
  "SequenceVariant": "SK",
  "SeriesDescription": "bold_100x100_s3_2x2x2_232",
  "SeriesNumber": 9,
  "ShimSetting": [-5474, -11496, -1214, 331, -20, -197, -182, 73],
  "SliceThickness": 2,
  "SliceTiming": [1.485, 0, 0.99, 0.0825, 1.0725, 0.165, 1.155, 0.2475, 1.2375, 0.33, 1.32, 0.4125, 1.4025, 0.5775, 1.5675, 0.66, 1.65, 0.7425, 1.7325, 0.825, 1.815, 0.9075, 1.8975, 0.495, 1.485, 0, 0.99, 0.0825, 1.0725, 0.165, 1.155, 0.2475, 1.2375, 0.33, 1.32, 0.4125, 1.4025, 0.5775, 1.5675, 0.66, 1.65, 0.7425, 1.7325, 0.825, 1.815, 0.9075, 1.8975, 0.495, 1.485, 0, 0.99, 0.0825, 1.0725, 0.165, 1.155, 0.2475, 1.2375, 0.33, 1.32, 0.4125, 1.4025, 0.5775, 1.5675, 0.66, 1.65, 0.7425, 1.7325, 0.825, 1.815, 0.9075, 1.8975, 0.495],
  "SoftwareVersions": "syngo_MR_E11",
  "SpacingBetweenSlices": 2,
  "StationName": "AWP166078",
  "TaskName": "motor",
  "TotalReadoutTime": 0.0534586,
  "TxRefAmp": 222.708,
  "dcmmeta_affine": [
    [-2.0, 0.0, 0.0, 102.02409362792969],
    [0.0, 2.0, 0.0, -91.37349700927734],
    [0.0, 0.0, 2.0, -46.71084213256836],
    [0.0, 0.0, 0.0, 1.0]
],
  "dcmmeta_reorient_transform": [
    [0.0, -1.0, 0.0, 99.0],
    [1.0, 0.0, 0.0, 0.0],
    [0.0, 0.0, 1.0, 0.0],
    [0.0, 0.0, 0.0, 1.0]
],
  "dcmmeta_shape": [100, 100, 72, 232],
  "dcmmeta_slice_dim": 2,
  "dcmmeta_version": 0.6,
  "global": {
    "const": {
      "AcquisitionMatrix": [100, 0, 0, 100],
      "AngioFlag": "N",
      "BitsAllocated": 16,
      "BitsStored": 12,
      "BodyPartExamined": "BRAIN",
      "Columns": 900,
      "EchoNumbers": 1,
      "EchoTime": 34.0,
      "EchoTrainLength": 100,
      "FlipAngle": 90.0,
      "HighBit": 11,
      "ImageOrientationPatient": [1.0, 0.0, 0.0, 0.0, 1.0, 0.0],
      "ImagePositionPatient": [-902.02409648895, -906.62650585175, -46.710842132568],
      "ImageType": [
        "ORIGINAL",
        "PRIMARY",
        "M",
        "ND",
        "MOSAIC"
],
      "ImagedNucleus": "1H",
      "ImagingFrequency": 123.257823,
      "InPlanePhaseEncodingDirection": "COL",
      "LargestImagePixelValue": 4095,
      "MRAcquisitionType": "2D",
      "MagneticFieldStrength": 3.0,
      "Manufacturer": "SIEMENS",
      "ManufacturerModelName": "Prisma",
      "Modality": "MR",
      "NumberOfAverages": 1.0,
      "NumberOfPhaseEncodingSteps": 100,
      "PercentPhaseFieldOfView": 100.0,
      "PercentSampling": 100.0,
      "PerformedProcedureStepStartTime": "090645.996000",
      "PhotometricInterpretation": "MONOCHROME2",
      "PixelBandwidth": 2380.0,
      "PixelRepresentation": 0,
      "PixelSpacing": [2.0, 2.0],
      "ProtocolName": "bold_100x100_s3_2x2x2_232",
      "RepetitionTime": 2000.0,
      "Rows": 900,
      "SAR": 0.07007384061558,
      "SamplesPerPixel": 1,
      "ScanOptions": "FS",
      "ScanningSequence": "EP",
      "SequenceName": "*epfid2d1_100",
      "SequenceVariant": "SK",
      "SeriesDescription": "bold_100x100_s3_2x2x2_232",
      "SeriesNumber": 9,
      "SeriesTime": "094955.954000",
      "SliceLocation": -46.710842132568,
      "SliceThickness": 2.0,
      "SmallestImagePixelValue": 0,
      "SoftwareVersions": "syngo MR E11",
      "SpacingBetweenSlices": 1.9999999462719,
      "SpecificCharacterSet": "ISO_IR 100",
      "StudyID": "1",
      "StudyTime": "090645.912000",
      "TransmitCoilName": "Body",
      "VariableFlipAngleFlag": "N",
      "WindowCenterWidthExplanation": "Algo1",
      "dBdt": 0.0},
    "slices": {}
  },
  "time": {
    "samples": {
      "AcquisitionNumber": [1, 2, 3, 4, 5, 6, 7, 8, 9, 10, 11, 12, 13, 14, 15, 16, 17, 18, 19, 20, 21, 22, 23, 24, 25, 26, 27, 28, 29, 30, 31, 32, 33, 34, 35, 36, 37, 38, 39, 40, 41, 42, 43, 44, 45, 46, 47, 48, 49, 50, 51, 52, 53, 54, 55, 56, 57, 58, 59, 60, 61, 62, 63, 64, 65, 66, 67, 68, 69, 70, 71, 72, 73, 74, 75, 76, 77, 78, 79, 80, 81, 82, 83, 84, 85, 86, 87, 88, 89, 90, 91, 92, 93, 94, 95, 96, 97, 98, 99, 100, 101, 102, 103, 104, 105, 106, 107, 108, 109, 110, 111, 112, 113, 114, 115, 116, 117, 118, 119, 120, 121, 122, 123, 124, 125, 126, 127, 128, 129, 130, 131, 132, 133, 134, 135, 136, 137, 138, 139, 140, 141, 142, 143, 144, 145, 146, 147, 148, 149, 150, 151, 152, 153, 154, 155, 156, 157, 158, 159, 160, 161, 162, 163, 164, 165, 166, 167, 168, 169, 170, 171, 172, 173, 174, 175, 176, 177, 178, 179, 180, 181, 182, 183, 184, 185, 186, 187, 188, 189, 190, 191, 192, 193, 194, 195, 196, 197, 198, 199, 200, 201, 202, 203, 204, 205, 206, 207, 208, 209, 210, 211, 212, 213, 214, 215, 216, 217, 218, 219, 220, 221, 222, 223, 224, 225, 226, 227, 228, 229, 230, 231, 232],
      "AcquisitionTime": ["094953.187500", "094955.187500", "094957.187500", "094959.187500", "095001.187500", "095003.187500", "095005.187500", "095007.187500", "095009.187500", "095011.187500", "095013.187500", "095015.187500", "095017.187500", "095019.187500", "095021.187500", "095023.187500", "095025.187500", "095027.187500", "095029.187500", "095031.187500", "095033.187500", "095035.187500", "095037.187500", "095039.187500", "095041.187500", "095043.187500", "095045.187500", "095047.187500", "095049.187500", "095051.187500", "095053.187500", "095055.187500", "095057.187500", "095059.187500", "095101.187500", "095103.187500", "095105.187500", "095107.187500", "095109.187500", "095111.187500", "095113.187500", "095115.187500", "095117.187500", "095119.187500", "095121.187500", "095123.187500", "095125.187500", "095127.187500", "095129.187500", "095131.187500", "095133.187500", "095135.187500", "095137.187500", "095139.187500", "095141.187500", "095143.187500", "095145.187500", "095147.187500", "095149.187500", "095151.187500", "095153.187500", "095155.187500", "095157.187500", "095159.187500", "095201.187500", "095203.187500", "095205.187500", "095207.187500", "095209.187500", "095211.187500", "095213.187500", "095215.187500", "095217.187500", "095219.187500", "095221.187500", "095223.187500", "095225.187500", "095227.187500", "095229.187500", "095231.187500", "095233.187500", "095235.187500", "095237.187500", "095239.187500", "095241.187500", "095243.187500", "095245.187500", "095247.187500", "095249.187500", "095251.187500", "095253.187500", "095255.187500", "095257.187500", "095259.187500", "095301.187500", "095303.187500", "095305.187500", "095307.187500", "095309.187500", "095311.187500", "095313.187500", "095315.187500", "095317.187500", "095319.187500", "095321.187500", "095323.187500", "095325.187500", "095327.187500", "095329.187500", "095331.187500", "095333.187500", "095335.187500", "095337.187500", "095339.187500", "095341.187500", "095343.187500", "095345.187500", "095347.187500", "095349.187500", "095351.187500", "095353.187500", "095355.187500", "095357.187500", "095359.187500", "095401.187500", "095403.187500", "095405.187500", "095407.187500", "095409.187500", "095411.187500", "095413.187500", "095415.187500", "095417.187500", "095419.187500", "095421.187500", "095423.187500", "095425.187500", "095427.187500", "095429.187500", "095431.187500", "095433.187500", "095435.187500", "095437.187500", "095439.187500", "095441.187500", "095443.187500", "095445.187500", "095447.187500", "095449.187500", "095451.187500", "095453.187500", "095455.187500", "095457.187500", "095459.187500", "095501.187500", "095503.187500", "095505.187500", "095507.187500", "095509.187500", "095511.187500", "095513.187500", "095515.187500", "095517.187500", "095519.187500", "095521.187500", "095523.187500", "095525.187500", "095527.187500", "095529.187500", "095531.187500", "095533.187500", "095535.187500", "095537.187500", "095539.187500", "095541.187500", "095543.187500", "095545.187500", "095547.187500", "095549.187500", "095551.187500", "095553.187500", "095555.187500", "095557.187500", "095559.187500", "095601.187500", "095603.187500", "095605.187500", "095607.187500", "095609.187500", "095611.187500", "095613.187500", "095615.187500", "095617.187500", "095619.187500", "095621.187500", "095623.187500", "095625.187500", "095627.187500", "095629.187500", "095631.187500", "095633.187500", "095635.187500", "095637.187500", "095639.187500", "095641.187500", "095643.187500", "095645.187500", "095647.187500", "095649.187500", "095651.187500", "095653.187500", "095655.187500", "095657.187500", "095659.187500", "095701.187500", "095703.187500", "095705.187500", "095707.187500", "095709.187500", "095711.187500", "095713.187500", "095715.187500", "095717.187500", "095719.187500", "095721.187500", "095723.187500", "095725.187500", "095727.187500", "095729.187500", "095731.187500", "095733.187500", "095735.187500"],
      "ContentTime": ["094955.957000", "094957.454000", "094959.453000", "095001.454000", "095003.454000", "095005.454000", "095007.455000", "095009.454000", "095011.453000", "095013.453000", "095015.453000", "095017.453000", "095019.454000", "095021.454000", "095023.454000", "095025.454000", "095027.454000", "095029.454000", "095031.453000", "095033.454000", "095035.454000", "095037.455000", "095039.455000", "095041.454000", "095043.455000", "095045.454000", "095047.454000", "095049.453000", "095051.454000", "095053.454000", "095055.454000", "095057.454000", "095059.454000", "095101.455000", "095103.454000", "095105.453000", "095107.453000", "095109.453000", "095111.454000", "095113.454000", "095115.455000", "095117.455000", "095119.454000", "095121.453000", "095123.453000", "095125.453000", "095127.453000", "095129.454000", "095131.455000", "095133.454000", "095135.455000", "095137.454000", "095139.453000", "095141.454000", "095143.453000", "095145.455000", "095147.454000", "095149.455000", "095151.454000", "095153.454000", "095155.453000", "095157.453000", "095159.453000", "095201.454000", "095203.454000", "095205.455000", "095207.454000", "095209.454000", "095211.454000", "095213.454000", "095215.454000", "095217.453000", "095219.454000", "095221.455000", "095223.455000", "095225.455000", "095227.454000", "095229.455000", "095231.454000", "095233.453000", "095235.454000", "095237.454000", "095239.454000", "095241.454000", "095243.455000", "095245.454000", "095247.454000", "095249.453000", "095251.453000", "095253.453000", "095255.454000", "095257.454000", "095259.454000", "095301.455000", "095303.454000", "095305.453000", "095307.453000", "095309.454000", "095311.453000", "095313.454000", "095315.454000", "095317.454000", "095319.455000", "095321.455000", "095323.454000", "095325.454000", "095327.453000", "095329.453000", "095331.454000", "095333.454000", "095335.454000", "095337.454000", "095339.455000", "095341.454000", "095343.454000", "095345.454000", "095347.453000", "095349.454000", "095351.454000", "095353.454000", "095355.455000", "095357.454000", "095359.454000", "095401.453000", "095403.453000", "095405.454000", "095407.454000", "095409.455000", "095411.455000", "095413.454000", "095415.453000", "095417.453000", "095419.453000", "095421.453000", "095423.454000", "095425.455000", "095427.455000", "095429.455000", "095431.455000", "095433.454000", "095435.454000", "095437.454000", "095439.453000", "095441.454000", "095443.455000", "095445.454000", "095447.454000", "095449.454000", "095451.453000", "095453.453000", "095455.453000", "095457.453000", "095459.455000", "095501.454000", "095503.454000", "095505.454000", "095507.454000", "095509.453000", "095511.453000", "095513.453000", "095515.455000", "095517.455000", "095519.454000", "095521.454000", "095523.454000", "095525.454000", "095527.453000", "095529.453000", "095531.454000", "095533.454000", "095535.455000", "095537.455000", "095539.455000", "095541.455000", "095543.454000", "095545.454000", "095547.453000", "095549.453000", "095551.454000", "095553.455000", "095555.455000", "095557.455000", "095559.455000", "095601.454000", "095603.454000", "095605.454000", "095607.453000", "095609.468000", "095611.454000", "095613.455000", "095615.455000", "095617.454000", "095619.453000", "095621.454000", "095623.454000", "095625.454000", "095627.454000", "095629.455000", "095631.454000", "095633.455000", "095635.453000", "095637.454000", "095639.453000", "095641.454000", "095643.454000", "095645.455000", "095647.455000", "095649.455000", "095651.455000", "095653.453000", "095655.453000", "095657.453000", "095659.454000", "095701.454000", "095703.455000", "095705.455000", "095707.455000", "095709.455000", "095711.454000", "095713.453000", "095715.453000", "095717.455000", "095719.455000", "095721.455000", "095723.455000", "095725.455000", "095727.455000", "095729.453000", "095731.454000", "095733.453000", "095735.455000", "095737.083000"],
      "InstanceCreationTime": ["094955.957000", "094957.454000", "094959.453000", "095001.454000", "095003.454000", "095005.454000", "095007.455000", "095009.454000", "095011.453000", "095013.453000", "095015.453000", "095017.453000", "095019.454000", "095021.454000", "095023.454000", "095025.454000", "095027.454000", "095029.454000", "095031.453000", "095033.454000", "095035.454000", "095037.455000", "095039.455000", "095041.454000", "095043.455000", "095045.454000", "095047.454000", "095049.453000", "095051.454000", "095053.454000", "095055.454000", "095057.454000", "095059.454000", "095101.455000", "095103.454000", "095105.453000", "095107.453000", "095109.453000", "095111.454000", "095113.454000", "095115.455000", "095117.455000", "095119.454000", "095121.453000", "095123.453000", "095125.453000", "095127.453000", "095129.454000", "095131.455000", "095133.454000", "095135.455000", "095137.454000", "095139.453000", "095141.454000", "095143.453000", "095145.455000", "095147.454000", "095149.455000", "095151.454000", "095153.454000", "095155.453000", "095157.453000", "095159.453000", "095201.454000", "095203.454000", "095205.455000", "095207.454000", "095209.454000", "095211.454000", "095213.454000", "095215.454000", "095217.453000", "095219.454000", "095221.455000", "095223.455000", "095225.455000", "095227.454000", "095229.455000", "095231.454000", "095233.453000", "095235.454000", "095237.454000", "095239.454000", "095241.454000", "095243.455000", "095245.454000", "095247.454000", "095249.453000", "095251.453000", "095253.453000", "095255.454000", "095257.454000", "095259.454000", "095301.455000", "095303.454000", "095305.453000", "095307.453000", "095309.454000", "095311.453000", "095313.454000", "095315.454000", "095317.454000", "095319.455000", "095321.455000", "095323.454000", "095325.454000", "095327.453000", "095329.453000", "095331.454000", "095333.454000", "095335.454000", "095337.454000", "095339.455000", "095341.454000", "095343.454000", "095345.454000", "095347.453000", "095349.454000", "095351.454000", "095353.454000", "095355.455000", "095357.454000", "095359.454000", "095401.453000", "095403.453000", "095405.454000", "095407.454000", "095409.455000", "095411.455000", "095413.454000", "095415.453000", "095417.453000", "095419.453000", "095421.453000", "095423.454000", "095425.455000", "095427.455000", "095429.455000", "095431.455000", "095433.454000", "095435.454000", "095437.454000", "095439.453000", "095441.454000", "095443.455000", "095445.454000", "095447.454000", "095449.454000", "095451.453000", "095453.453000", "095455.453000", "095457.453000", "095459.455000", "095501.454000", "095503.454000", "095505.454000", "095507.454000", "095509.453000", "095511.453000", "095513.453000", "095515.455000", "095517.455000", "095519.454000", "095521.454000", "095523.454000", "095525.454000", "095527.453000", "095529.453000", "095531.454000", "095533.454000", "095535.455000", "095537.455000", "095539.455000", "095541.455000", "095543.454000", "095545.454000", "095547.453000", "095549.453000", "095551.454000", "095553.455000", "095555.455000", "095557.455000", "095559.455000", "095601.454000", "095603.454000", "095605.454000", "095607.453000", "095609.468000", "095611.454000", "095613.455000", "095615.455000", "095617.454000", "095619.453000", "095621.454000", "095623.454000", "095625.454000", "095627.454000", "095629.455000", "095631.454000", "095633.455000", "095635.453000", "095637.454000", "095639.453000", "095641.454000", "095643.454000", "095645.455000", "095647.455000", "095649.455000", "095651.455000", "095653.453000", "095655.453000", "095657.453000", "095659.454000", "095701.454000", "095703.455000", "095705.455000", "095707.455000", "095709.455000", "095711.454000", "095713.453000", "095715.453000", "095717.455000", "095719.455000", "095721.455000", "095723.455000", "095725.455000", "095727.455000", "095729.453000", "095731.454000", "095733.453000", "095735.455000", "095737.083000"],
      "InstanceNumber": [1, 2, 3, 4, 5, 6, 7, 8, 9, 10, 11, 12, 13, 14, 15, 16, 17, 18, 19, 20, 21, 22, 23, 24, 25, 26, 27, 28, 29, 30, 31, 32, 33, 34, 35, 36, 37, 38, 39, 40, 41, 42, 43, 44, 45, 46, 47, 48, 49, 50, 51, 52, 53, 54, 55, 56, 57, 58, 59, 60, 61, 62, 63, 64, 65, 66, 67, 68, 69, 70, 71, 72, 73, 74, 75, 76, 77, 78, 79, 80, 81, 82, 83, 84, 85, 86, 87, 88, 89, 90, 91, 92, 93, 94, 95, 96, 97, 98, 99, 100, 101, 102, 103, 104, 105, 106, 107, 108, 109, 110, 111, 112, 113, 114, 115, 116, 117, 118, 119, 120, 121, 122, 123, 124, 125, 126, 127, 128, 129, 130, 131, 132, 133, 134, 135, 136, 137, 138, 139, 140, 141, 142, 143, 144, 145, 146, 147, 148, 149, 150, 151, 152, 153, 154, 155, 156, 157, 158, 159, 160, 161, 162, 163, 164, 165, 166, 167, 168, 169, 170, 171, 172, 173, 174, 175, 176, 177, 178, 179, 180, 181, 182, 183, 184, 185, 186, 187, 188, 189, 190, 191, 192, 193, 194, 195, 196, 197, 198, 199, 200, 201, 202, 203, 204, 205, 206, 207, 208, 209, 210, 211, 212, 213, 214, 215, 216, 217, 218, 219, 220, 221, 222, 223, 224, 225, 226, 227, 228, 229, 230, 231, 232],
      "WindowCenter": [886.0, 884.0, 882.0, 882.0, 884.0, 884.0, 883.0, 883.0, 884.0, 884.0, 885.0, 885.0, 885.0, 885.0, 885.0, 885.0, 884.0, 883.0, 884.0, 885.0, 885.0, 885.0, 884.0, 883.0, 883.0, 883.0, 883.0, 883.0, 883.0, 884.0, 885.0, 885.0, 887.0, 888.0, 887.0, 887.0, 887.0, 885.0, 885.0, 884.0, 885.0, 885.0, 886.0, 886.0, 886.0, 886.0, 885.0, 885.0, 885.0, 885.0, 884.0, 884.0, 884.0, 883.0, 884.0, 884.0, 885.0, 885.0, 885.0, 884.0, 884.0, 884.0, 885.0, 884.0, 884.0, 884.0, 885.0, 885.0, 884.0, 884.0, 884.0, 884.0, 884.0, 884.0, 883.0, 882.0, 882.0, 883.0, 883.0, 883.0, 884.0, 884.0, 884.0, 884.0, 883.0, 882.0, 881.0, 881.0, 883.0, 885.0, 885.0, 885.0, 884.0, 883.0, 883.0, 884.0, 883.0, 883.0, 882.0, 882.0, 883.0, 884.0, 884.0, 883.0, 883.0, 884.0, 886.0, 887.0, 885.0, 883.0, 883.0, 882.0, 884.0, 884.0, 884.0, 883.0, 883.0, 882.0, 883.0, 883.0, 884.0, 884.0, 885.0, 885.0, 884.0, 884.0, 884.0, 885.0, 884.0, 884.0, 884.0, 884.0, 885.0, 885.0, 885.0, 885.0, 885.0, 886.0, 886.0, 886.0, 887.0, 886.0, 885.0, 884.0, 883.0, 883.0, 883.0, 884.0, 885.0, 884.0, 884.0, 885.0, 887.0, 887.0, 886.0, 885.0, 885.0, 885.0, 885.0, 885.0, 885.0, 886.0, 886.0, 887.0, 886.0, 885.0, 885.0, 885.0, 885.0, 886.0, 884.0, 884.0, 883.0, 882.0, 881.0, 880.0, 880.0, 881.0, 883.0, 884.0, 886.0, 886.0, 884.0, 882.0, 881.0, 881.0, 882.0, 883.0, 885.0, 885.0, 885.0, 885.0, 886.0, 886.0, 887.0, 886.0, 884.0, 885.0, 886.0, 886.0, 886.0, 886.0, 886.0, 886.0, 886.0, 886.0, 886.0, 884.0, 884.0, 884.0, 884.0, 885.0, 885.0, 884.0, 883.0, 883.0, 884.0, 885.0, 886.0, 885.0, 883.0, 884.0, 883.0, 884.0, 881.0, 880.0, 881.0, 881.0, 882.0, 882.0, 883.0, 883.0],
      "WindowWidth": [1925.0, 1919.0, 1915.0, 1915.0, 1919.0, 1919.0, 1917.0, 1916.0, 1918.0, 1919.0, 1922.0, 1923.0, 1922.0, 1923.0, 1924.0, 1923.0, 1919.0, 1917.0, 1918.0, 1922.0, 1922.0, 1923.0, 1919.0, 1916.0, 1917.0, 1917.0, 1917.0, 1918.0, 1918.0, 1920.0, 1922.0, 1922.0, 1927.0, 1929.0, 1929.0, 1929.0, 1927.0, 1922.0, 1921.0, 1920.0, 1922.0, 1923.0, 1925.0, 1926.0, 1926.0, 1924.0, 1923.0, 1922.0, 1922.0, 1921.0, 1920.0, 1920.0, 1919.0, 1917.0, 1918.0, 1920.0, 1920.0, 1921.0, 1921.0, 1918.0, 1919.0, 1920.0, 1921.0, 1920.0, 1918.0, 1919.0, 1921.0, 1922.0, 1920.0, 1920.0, 1920.0, 1920.0, 1919.0, 1919.0, 1916.0, 1915.0, 1915.0, 1915.0, 1916.0, 1917.0, 1920.0, 1920.0, 1918.0, 1918.0, 1916.0, 1912.0, 1910.0, 1912.0, 1916.0, 1921.0, 1922.0, 1921.0, 1919.0, 1917.0, 1917.0, 1918.0, 1916.0, 1916.0, 1914.0, 1915.0, 1916.0, 1918.0, 1918.0, 1916.0, 1917.0, 1919.0, 1926.0, 1926.0, 1920.0, 1917.0, 1915.0, 1915.0, 1918.0, 1919.0, 1918.0, 1915.0, 1915.0, 1914.0, 1916.0, 1917.0, 1920.0, 1920.0, 1921.0, 1921.0, 1918.0, 1920.0, 1918.0, 1921.0, 1918.0, 1918.0, 1918.0, 1919.0, 1921.0, 1921.0, 1921.0, 1921.0, 1923.0, 1924.0, 1924.0, 1924.0, 1927.0, 1925.0, 1922.0, 1919.0, 1917.0, 1915.0, 1916.0, 1919.0, 1920.0, 1918.0, 1918.0, 1921.0, 1925.0, 1925.0, 1923.0, 1919.0, 1921.0, 1920.0, 1920.0, 1919.0, 1921.0, 1922.0, 1924.0, 1926.0, 1924.0, 1922.0, 1922.0, 1921.0, 1921.0, 1923.0, 1919.0, 1917.0, 1916.0, 1913.0, 1910.0, 1906.0, 1907.0, 1910.0, 1915.0, 1919.0, 1923.0, 1922.0, 1918.0, 1913.0, 1909.0, 1911.0, 1913.0, 1916.0, 1920.0, 1921.0, 1921.0, 1922.0, 1922.0, 1925.0, 1926.0, 1922.0, 1918.0, 1921.0, 1922.0, 1924.0, 1923.0, 1923.0, 1923.0, 1923.0, 1922.0, 1923.0, 1923.0, 1919.0, 1918.0, 1918.0, 1919.0, 1921.0, 1920.0, 1918.0, 1917.0, 1917.0, 1918.0, 1922.0, 1924.0, 1920.0, 1917.0, 1918.0, 1916.0, 1917.0, 1911.0, 1909.0, 1909.0, 1909.0, 1913.0, 1915.0, 1917.0, 1917.0]
    },
    "slices": {}
  }
}