{
  "AcquisitionMatrixPE": 100,
  "AcquisitionNumber": 1,
  "AcquisitionTime": "12:53:8.227500",
  "BandwidthPerPixelPhaseEncode": 18.519,
  "BaseResolution": 100,
  "BodyPartExamined": "BRAIN",
  "ConsistencyInfo": "N4_VE11C_LATEST_20160120",
  "ConversionSoftware": "dcm2niix",
  "ConversionSoftwareVersion": "v1.0.20180622 GCC4.9.2",
  "DerivedVendorReportedEchoSpacing": 0.000539986,
  "DeviceSerialNumber": "166078",
  "DwellTime": 2.1e-06,
  "EchoTime": 0.034,
  "EchoTrainLength": 100,
  "EffectiveEchoSpacing": 0.000539986,
  "FlipAngle": 90,
  "ImageOrientationPatientDICOM": [0.999067, 0.0165138, -0.0399142, -0.0296516, 0.934126, -0.35571],
  "ImageType": [
    "ORIGINAL",
    "PRIMARY",
    "M",
    "ND",
    "MOSAIC"
],
  "InPlanePhaseEncodingDirectionDICOM": "COL",
  "InstitutionAddress": "Street_StreetNo_Bei_Jing_District_CN_ZIP",
  "InstitutionName": "BeiJing_Normal_University",
  "InstitutionalDepartmentName": "Department",
  "MRAcquisitionType": "2D",
  "MagneticFieldStrength": 3,
  "Manufacturer": "Siemens",
  "ManufacturersModelName": "Prisma",
  "Modality": "MR",
  "MultibandAccelerationFactor": 3,
  "PartialFourier": 1,
  "PatientPosition": "HFS",
  "PercentPhaseFOV": 100,
  "PhaseEncodingDirection": "j-",
  "PhaseEncodingSteps": 100,
  "PhaseResolution": 1,
  "PixelBandwidth": 2380,
  "ProcedureStepDescription": "BNU_P2018_64CH_Liu.Jia",
  "ProtocolName": "bold_100x100_s3_2x2x2_232",
  "PulseSequenceDetails": "%SiemensSeq%_ep2d_bold",
  "ReceiveCoilActiveElements": "HC1-7;NC1",
  "ReceiveCoilName": "HeadNeck_64",
  "ReconMatrixPE": 100,
  "RepetitionTime": 2,
  "SAR": 0.066756,
  "ScanOptions": "FS",
  "ScanningSequence": "EP",
  "SequenceName": "_epfid2d1_100",
  "SequenceVariant": "SK",
  "SeriesDescription": "bold_100x100_s3_2x2x2_232",
  "SeriesNumber": 3,
  "ShimSetting": [-5471, -11475, -1297, 335, 14, -193, -207, 105],
  "SliceThickness": 2,
  "SliceTiming": [1.485, 0, 0.99, 0.0825, 1.0725, 0.165, 1.155, 0.2475, 1.2375, 0.33, 1.32, 0.4125, 1.4025, 0.5775, 1.5675, 0.66, 1.65, 0.7425, 1.7325, 0.825, 1.815, 0.9075, 1.8975, 0.495, 1.485, 0, 0.99, 0.0825, 1.0725, 0.165, 1.155, 0.2475, 1.2375, 0.33, 1.32, 0.4125, 1.4025, 0.5775, 1.5675, 0.66, 1.65, 0.7425, 1.7325, 0.825, 1.815, 0.9075, 1.8975, 0.495, 1.485, 0, 0.99, 0.0825, 1.0725, 0.165, 1.155, 0.2475, 1.2375, 0.33, 1.32, 0.4125, 1.4025, 0.5775, 1.5675, 0.66, 1.65, 0.7425, 1.7325, 0.825, 1.815, 0.9075, 1.8975, 0.495],
  "SoftwareVersions": "syngo_MR_E11",
  "SpacingBetweenSlices": 2,
  "StationName": "AWP166078",
  "TaskName": "motor",
  "TotalReadoutTime": 0.0534586,
  "TxRefAmp": 235.033,
  "dcmmeta_affine": [
    [-1.9981333017349243, -0.05930311232805252, -0.06282153725624084, 107.7414779663086],
    [-0.033027615398168564, 1.8682514429092407, -0.7131239175796509, -64.4469223022461],
    [-0.07982844859361649, 0.7114208936691284, 1.8674869537353516, -108.11338806152344],
    [0.0, 0.0, 0.0, 1.0]
],
  "dcmmeta_reorient_transform": [
    [0.0, -1.0, 0.0, 99.0],
    [1.0, 0.0, 0.0, 0.0],
    [0.0, 0.0, 1.0, 0.0],
    [0.0, 0.0, 0.0, 1.0]
],
  "dcmmeta_shape": [100, 100, 72, 232],
  "dcmmeta_slice_dim": 2,
  "dcmmeta_version": 0.6,
  "global": {
    "const": {
      "AcquisitionMatrix": [100, 0, 0, 100],
      "AngioFlag": "N",
      "BitsAllocated": 16,
      "BitsStored": 12,
      "BodyPartExamined": "BRAIN",
      "Columns": 900,
      "EchoNumbers": 1,
      "EchoTime": 34.0,
      "EchoTrainLength": 100,
      "FlipAngle": 90.0,
      "HighBit": 11,
      "ImageOrientationPatient": [0.99906663884947, 0.01651380848154, -0.0399142238739, -0.0296515555323, 0.93412571847181, -0.3557104543643],
      "ImagePositionPatient": [-877.40253387829, -881.02159438436, 278.8170245623],
      "ImageType": [
        "ORIGINAL",
        "PRIMARY",
        "M",
        "ND",
        "MOSAIC"
],
      "ImagedNucleus": "1H",
      "ImagingFrequency": 123.257843,
      "InPlanePhaseEncodingDirection": "COL",
      "MRAcquisitionType": "2D",
      "MagneticFieldStrength": 3.0,
      "Manufacturer": "SIEMENS",
      "ManufacturerModelName": "Prisma",
      "Modality": "MR",
      "NumberOfAverages": 1.0,
      "NumberOfPhaseEncodingSteps": 100,
      "PercentPhaseFieldOfView": 100.0,
      "PercentSampling": 100.0,
      "PerformedProcedureStepStartTime": "124938.487000",
      "PhotometricInterpretation": "MONOCHROME2",
      "PixelBandwidth": 2380.0,
      "PixelRepresentation": 0,
      "PixelSpacing": [2.0, 2.0],
      "ProtocolName": "bold_100x100_s3_2x2x2_232",
      "RepetitionTime": 2000.0,
      "Rows": 900,
      "SAR": 0.06675597811519,
      "SamplesPerPixel": 1,
      "ScanOptions": "FS",
      "ScanningSequence": "EP",
      "SequenceName": "*epfid2d1_100",
      "SequenceVariant": "SK",
      "SeriesDescription": "bold_100x100_s3_2x2x2_232",
      "SeriesNumber": 3,
      "SeriesTime": "125310.461000",
      "SliceLocation": -81.355095717574,
      "SliceThickness": 2.0,
      "SmallestImagePixelValue": 0,
      "SoftwareVersions": "syngo MR E11",
      "SpacingBetweenSlices": 1.999999979616,
      "SpecificCharacterSet": "ISO_IR 100",
      "StudyID": "1",
      "StudyTime": "124938.408000",
      "TransmitCoilName": "Body",
      "VariableFlipAngleFlag": "N",
      "WindowCenterWidthExplanation": "Algo1",
      "dBdt": 0.0},
    "slices": {}
  },
  "time": {
    "samples": {
      "AcquisitionNumber": [1, 2, 3, 4, 5, 6, 7, 8, 9, 10, 11, 12, 13, 14, 15, 16, 17, 18, 19, 20, 21, 22, 23, 24, 25, 26, 27, 28, 29, 30, 31, 32, 33, 34, 35, 36, 37, 38, 39, 40, 41, 42, 43, 44, 45, 46, 47, 48, 49, 50, 51, 52, 53, 54, 55, 56, 57, 58, 59, 60, 61, 62, 63, 64, 65, 66, 67, 68, 69, 70, 71, 72, 73, 74, 75, 76, 77, 78, 79, 80, 81, 82, 83, 84, 85, 86, 87, 88, 89, 90, 91, 92, 93, 94, 95, 96, 97, 98, 99, 100, 101, 102, 103, 104, 105, 106, 107, 108, 109, 110, 111, 112, 113, 114, 115, 116, 117, 118, 119, 120, 121, 122, 123, 124, 125, 126, 127, 128, 129, 130, 131, 132, 133, 134, 135, 136, 137, 138, 139, 140, 141, 142, 143, 144, 145, 146, 147, 148, 149, 150, 151, 152, 153, 154, 155, 156, 157, 158, 159, 160, 161, 162, 163, 164, 165, 166, 167, 168, 169, 170, 171, 172, 173, 174, 175, 176, 177, 178, 179, 180, 181, 182, 183, 184, 185, 186, 187, 188, 189, 190, 191, 192, 193, 194, 195, 196, 197, 198, 199, 200, 201, 202, 203, 204, 205, 206, 207, 208, 209, 210, 211, 212, 213, 214, 215, 216, 217, 218, 219, 220, 221, 222, 223, 224, 225, 226, 227, 228, 229, 230, 231, 232],
      "AcquisitionTime": ["125308.227500", "125310.227500", "125312.227500", "125314.227500", "125316.227500", "125318.227500", "125320.227500", "125322.227500", "125324.227500", "125326.227500", "125328.227500", "125330.227500", "125332.227500", "125334.227500", "125336.227500", "125338.227500", "125340.227500", "125342.227500", "125344.227500", "125346.227500", "125348.227500", "125350.227500", "125352.227500", "125354.227500", "125356.227500", "125358.227500", "125400.227500", "125402.227500", "125404.227500", "125406.227500", "125408.227500", "125410.227500", "125412.227500", "125414.227500", "125416.227500", "125418.227500", "125420.227500", "125422.227500", "125424.227500", "125426.227500", "125428.227500", "125430.227500", "125432.227500", "125434.227500", "125436.227500", "125438.227500", "125440.227500", "125442.227500", "125444.227500", "125446.227500", "125448.227500", "125450.227500", "125452.227500", "125454.227500", "125456.227500", "125458.227500", "125500.227500", "125502.227500", "125504.227500", "125506.227500", "125508.227500", "125510.227500", "125512.227500", "125514.227500", "125516.227500", "125518.227500", "125520.227500", "125522.227500", "125524.227500", "125526.227500", "125528.227500", "125530.227500", "125532.227500", "125534.227500", "125536.227500", "125538.227500", "125540.227500", "125542.227500", "125544.227500", "125546.227500", "125548.227500", "125550.227500", "125552.227500", "125554.227500", "125556.227500", "125558.227500", "125600.227500", "125602.227500", "125604.227500", "125606.227500", "125608.227500", "125610.227500", "125612.227500", "125614.227500", "125616.227500", "125618.227500", "125620.227500", "125622.227500", "125624.227500", "125626.227500", "125628.227500", "125630.227500", "125632.227500", "125634.227500", "125636.227500", "125638.227500", "125640.227500", "125642.227500", "125644.227500", "125646.227500", "125648.227500", "125650.227500", "125652.227500", "125654.227500", "125656.227500", "125658.227500", "125700.227500", "125702.227500", "125704.227500", "125706.227500", "125708.227500", "125710.227500", "125712.227500", "125714.227500", "125716.227500", "125718.227500", "125720.227500", "125722.227500", "125724.227500", "125726.227500", "125728.227500", "125730.227500", "125732.227500", "125734.227500", "125736.227500", "125738.227500", "125740.227500", "125742.227500", "125744.227500", "125746.227500", "125748.227500", "125750.227500", "125752.227500", "125754.227500", "125756.227500", "125758.227500", "125800.227500", "125802.227500", "125804.227500", "125806.227500", "125808.227500", "125810.227500", "125812.227500", "125814.227500", "125816.227500", "125818.227500", "125820.227500", "125822.227500", "125824.227500", "125826.227500", "125828.227500", "125830.227500", "125832.227500", "125834.227500", "125836.227500", "125838.227500", "125840.227500", "125842.227500", "125844.227500", "125846.227500", "125848.227500", "125850.227500", "125852.227500", "125854.227500", "125856.227500", "125858.227500", "125900.227500", "125902.227500", "125904.227500", "125906.227500", "125908.227500", "125910.227500", "125912.227500", "125914.227500", "125916.227500", "125918.227500", "125920.227500", "125922.227500", "125924.227500", "125926.227500", "125928.227500", "125930.227500", "125932.227500", "125934.227500", "125936.227500", "125938.227500", "125940.227500", "125942.227500", "125944.227500", "125946.227500", "125948.227500", "125950.227500", "125952.227500", "125954.227500", "125956.227500", "125958.227500", "130000.227500", "130002.227500", "130004.227500", "130006.227500", "130008.227500", "130010.227500", "130012.227500", "130014.227500", "130016.227500", "130018.227500", "130020.227500", "130022.227500", "130024.227500", "130026.227500", "130028.227500", "130030.227500", "130032.227500", "130034.227500", "130036.227500", "130038.227500", "130040.227500", "130042.227500", "130044.227500", "130046.227500", "130048.227500", "130050.227500"],
      "ContentTime": ["125310.464000", "125311.959000", "125313.959000", "125315.960000", "125317.959000", "125319.959000", "125321.961000", "125323.960000", "125325.960000", "125327.960000", "125329.959000", "125331.959000", "125333.959000", "125335.959000", "125337.959000", "125339.960000", "125341.961000", "125343.961000", "125345.960000", "125347.960000", "125349.959000", "125351.960000", "125353.959000", "125355.959000", "125357.960000", "125359.960000", "125401.960000", "125403.959000", "125405.959000", "125407.959000", "125409.959000", "125411.960000", "125413.961000", "125415.960000", "125417.960000", "125419.960000", "125421.960000", "125423.960000", "125425.959000", "125427.959000", "125429.959000", "125431.960000", "125433.960000", "125435.960000", "125437.960000", "125439.960000", "125441.959000", "125443.959000", "125445.959000", "125447.960000", "125449.960000", "125451.960000", "125453.960000", "125455.961000", "125457.959000", "125459.960000", "125501.960000", "125503.960000", "125505.959000", "125507.960000", "125509.960000", "125511.960000", "125513.960000", "125515.959000", "125517.960000", "125519.959000", "125521.959000", "125523.960000", "125525.960000", "125527.960000", "125529.960000", "125531.959000", "125533.960000", "125535.960000", "125537.959000", "125539.960000", "125541.960000", "125543.960000", "125545.961000", "125547.960000", "125549.959000", "125551.960000", "125553.959000", "125555.959000", "125557.959000", "125559.961000", "125601.960000", "125603.961000", "125605.961000", "125607.959000", "125609.959000", "125611.959000", "125613.959000", "125615.959000", "125617.961000", "125619.960000", "125621.960000", "125623.959000", "125625.959000", "125627.959000", "125629.959000", "125631.959000", "125633.960000", "125635.960000", "125637.960000", "125639.960000", "125641.959000", "125643.959000", "125645.959000", "125647.959000", "125649.960000", "125651.961000", "125653.961000", "125655.961000", "125657.960000", "125659.959000", "125701.959000", "125703.959000", "125705.959000", "125707.959000", "125709.960000", "125711.961000", "125713.960000", "125715.961000", "125717.959000", "125719.959000", "125721.959000", "125723.960000", "125725.960000", "125727.960000", "125729.960000", "125731.961000", "125733.960000", "125735.959000", "125737.959000", "125739.959000", "125741.960000", "125743.961000", "125745.960000", "125747.960000", "125749.961000", "125751.959000", "125753.960000", "125755.960000", "125757.959000", "125759.959000", "125801.960000", "125803.960000", "125805.961000", "125807.960000", "125809.960000", "125811.960000", "125813.960000", "125815.959000", "125817.960000", "125819.960000", "125821.960000", "125823.960000", "125825.961000", "125827.959000", "125829.960000", "125831.960000", "125833.959000", "125835.960000", "125837.960000", "125839.960000", "125841.960000", "125843.959000", "125845.960000", "125847.959000", "125849.959000", "125851.960000", "125853.961000", "125855.960000", "125857.960000", "125859.960000", "125901.959000", "125903.960000", "125905.959000", "125907.959000", "125909.960000", "125911.960000", "125913.961000", "125915.960000", "125917.960000", "125919.959000", "125921.959000", "125923.959000", "125925.959000", "125927.960000", "125929.960000", "125931.961000", "125933.960000", "125935.960000", "125937.959000", "125939.959000", "125941.979000", "125943.960000", "125945.976000", "125947.960000", "125949.961000", "125951.960000", "125953.959000", "125955.960000", "125957.959000", "125959.960000", "130001.960000", "130003.960000", "130005.961000", "130007.960000", "130009.961000", "130011.960000", "130013.960000", "130015.960000", "130017.960000", "130019.960000", "130021.960000", "130023.960000", "130025.961000", "130027.961000", "130029.959000", "130031.960000", "130033.960000", "130035.960000", "130037.960000", "130039.962000", "130041.961000", "130043.961000", "130045.960000", "130047.959000", "130049.960000", "130051.651000"],
      "InstanceCreationTime": ["125310.464000", "125311.959000", "125313.959000", "125315.960000", "125317.959000", "125319.959000", "125321.961000", "125323.960000", "125325.960000", "125327.960000", "125329.959000", "125331.959000", "125333.959000", "125335.959000", "125337.959000", "125339.960000", "125341.961000", "125343.961000", "125345.960000", "125347.960000", "125349.959000", "125351.960000", "125353.959000", "125355.959000", "125357.960000", "125359.960000", "125401.960000", "125403.959000", "125405.959000", "125407.959000", "125409.959000", "125411.960000", "125413.961000", "125415.960000", "125417.960000", "125419.960000", "125421.960000", "125423.960000", "125425.959000", "125427.959000", "125429.959000", "125431.960000", "125433.960000", "125435.960000", "125437.960000", "125439.960000", "125441.959000", "125443.959000", "125445.959000", "125447.960000", "125449.960000", "125451.960000", "125453.960000", "125455.961000", "125457.959000", "125459.960000", "125501.960000", "125503.960000", "125505.959000", "125507.960000", "125509.960000", "125511.960000", "125513.960000", "125515.959000", "125517.960000", "125519.959000", "125521.959000", "125523.960000", "125525.960000", "125527.960000", "125529.960000", "125531.959000", "125533.960000", "125535.960000", "125537.959000", "125539.960000", "125541.960000", "125543.960000", "125545.961000", "125547.960000", "125549.959000", "125551.960000", "125553.959000", "125555.959000", "125557.959000", "125559.961000", "125601.960000", "125603.961000", "125605.961000", "125607.959000", "125609.959000", "125611.959000", "125613.959000", "125615.959000", "125617.961000", "125619.960000", "125621.960000", "125623.959000", "125625.959000", "125627.959000", "125629.959000", "125631.959000", "125633.960000", "125635.960000", "125637.960000", "125639.960000", "125641.959000", "125643.959000", "125645.959000", "125647.959000", "125649.960000", "125651.961000", "125653.961000", "125655.961000", "125657.960000", "125659.959000", "125701.959000", "125703.959000", "125705.959000", "125707.959000", "125709.960000", "125711.961000", "125713.960000", "125715.961000", "125717.959000", "125719.959000", "125721.959000", "125723.960000", "125725.960000", "125727.960000", "125729.960000", "125731.961000", "125733.960000", "125735.959000", "125737.959000", "125739.959000", "125741.960000", "125743.961000", "125745.960000", "125747.960000", "125749.961000", "125751.959000", "125753.960000", "125755.960000", "125757.959000", "125759.959000", "125801.960000", "125803.960000", "125805.961000", "125807.960000", "125809.960000", "125811.960000", "125813.960000", "125815.959000", "125817.960000", "125819.960000", "125821.960000", "125823.960000", "125825.961000", "125827.959000", "125829.960000", "125831.960000", "125833.959000", "125835.960000", "125837.960000", "125839.960000", "125841.960000", "125843.959000", "125845.960000", "125847.959000", "125849.959000", "125851.960000", "125853.961000", "125855.960000", "125857.960000", "125859.960000", "125901.959000", "125903.960000", "125905.959000", "125907.959000", "125909.960000", "125911.960000", "125913.961000", "125915.960000", "125917.960000", "125919.959000", "125921.959000", "125923.959000", "125925.959000", "125927.960000", "125929.960000", "125931.961000", "125933.960000", "125935.960000", "125937.959000", "125939.959000", "125941.979000", "125943.960000", "125945.976000", "125947.960000", "125949.961000", "125951.960000", "125953.959000", "125955.960000", "125957.959000", "125959.960000", "130001.960000", "130003.960000", "130005.961000", "130007.960000", "130009.961000", "130011.960000", "130013.960000", "130015.960000", "130017.960000", "130019.960000", "130021.960000", "130023.960000", "130025.961000", "130027.961000", "130029.959000", "130031.960000", "130033.960000", "130035.960000", "130037.960000", "130039.962000", "130041.961000", "130043.961000", "130045.960000", "130047.959000", "130049.960000", "130051.651000"],
      "InstanceNumber": [1, 2, 3, 4, 5, 6, 7, 8, 9, 10, 11, 12, 13, 14, 15, 16, 17, 18, 19, 20, 21, 22, 23, 24, 25, 26, 27, 28, 29, 30, 31, 32, 33, 34, 35, 36, 37, 38, 39, 40, 41, 42, 43, 44, 45, 46, 47, 48, 49, 50, 51, 52, 53, 54, 55, 56, 57, 58, 59, 60, 61, 62, 63, 64, 65, 66, 67, 68, 69, 70, 71, 72, 73, 74, 75, 76, 77, 78, 79, 80, 81, 82, 83, 84, 85, 86, 87, 88, 89, 90, 91, 92, 93, 94, 95, 96, 97, 98, 99, 100, 101, 102, 103, 104, 105, 106, 107, 108, 109, 110, 111, 112, 113, 114, 115, 116, 117, 118, 119, 120, 121, 122, 123, 124, 125, 126, 127, 128, 129, 130, 131, 132, 133, 134, 135, 136, 137, 138, 139, 140, 141, 142, 143, 144, 145, 146, 147, 148, 149, 150, 151, 152, 153, 154, 155, 156, 157, 158, 159, 160, 161, 162, 163, 164, 165, 166, 167, 168, 169, 170, 171, 172, 173, 174, 175, 176, 177, 178, 179, 180, 181, 182, 183, 184, 185, 186, 187, 188, 189, 190, 191, 192, 193, 194, 195, 196, 197, 198, 199, 200, 201, 202, 203, 204, 205, 206, 207, 208, 209, 210, 211, 212, 213, 214, 215, 216, 217, 218, 219, 220, 221, 222, 223, 224, 225, 226, 227, 228, 229, 230, 231, 232],
      "LargestImagePixelValue": [3403, 3366, 3356, 3353, 3366, 3354, 3363, 3345, 3366, 3362, 3342, 3346, 3292, 3277, 3319, 3300, 3320, 3324, 3299, 3274, 3299, 3272, 3294, 3342, 3333, 3274, 3250, 3285, 3347, 3372, 3329, 3350, 3347, 3205, 3229, 3431, 3228, 3413, 3308, 3555, 3714, 3381, 3348, 3316, 3254, 3102, 3211, 3191, 3265, 3210, 3292, 3234, 3236, 3189, 3172, 3085, 3240, 3222, 3245, 3179, 3157, 3163, 3160, 3130, 3137, 3153, 3152, 3140, 3149, 3153, 3143, 3107, 3133, 3144, 3184, 3146, 3171, 3199, 3210, 3225, 3167, 3204, 3168, 3210, 3248, 3256, 3239, 3243, 3230, 3221, 3197, 3223, 3211, 3246, 3223, 3218, 3206, 3225, 3174, 3171, 3113, 3318, 3315, 3212, 3050, 3389, 3217, 3202, 3206, 3274, 3258, 3188, 3204, 3217, 3274, 3246, 3279, 3276, 3268, 3272, 3276, 3250, 3288, 3210, 3215, 3231, 3220, 3259, 3245, 3228, 3261, 3285, 3286, 3346, 3161, 3315, 3196, 3217, 3150, 3177, 3213, 3201, 3233, 3186, 3224, 3248, 3173, 3229, 3230, 3239, 3263, 3250, 3224, 3219, 3239, 3195, 3225, 3209, 3205, 3258, 3220, 3286, 3221, 3209, 3217, 3248, 3221, 3238, 3251, 3203, 3194, 3210, 3212, 3207, 3194, 3151, 3204, 3194, 3185, 3150, 3160, 3163, 3184, 3197, 3195, 3241, 3242, 3294, 3243, 3225, 3202, 3205, 3204, 3259, 3436, 3260, 3333, 3225, 3356, 3190, 3195, 3171, 3210, 3230, 3245, 3211, 3186, 3205, 3195, 3199, 3189, 3205, 3219, 3217, 3198, 3211, 3212, 3227, 3239, 3202, 3244, 3237, 3260, 3226, 3281, 3261, 3251, 3263, 3227, 3275, 3228, 3260],
      "WindowCenter": [788.0, 787.0, 786.0, 786.0, 786.0, 788.0, 789.0, 787.0, 786.0, 786.0, 787.0, 787.0, 787.0, 786.0, 787.0, 786.0, 786.0, 786.0, 787.0, 788.0, 788.0, 787.0, 786.0, 785.0, 785.0, 786.0, 788.0, 787.0, 786.0, 785.0, 784.0, 785.0, 786.0, 780.0, 778.0, 787.0, 781.0, 782.0, 779.0, 781.0, 777.0, 783.0, 784.0, 783.0, 781.0, 780.0, 781.0, 781.0, 781.0, 780.0, 780.0, 780.0, 779.0, 778.0, 781.0, 781.0, 781.0, 782.0, 783.0, 783.0, 782.0, 782.0, 780.0, 779.0, 779.0, 779.0, 779.0, 779.0, 778.0, 778.0, 779.0, 778.0, 778.0, 778.0, 779.0, 777.0, 778.0, 779.0, 779.0, 781.0, 780.0, 780.0, 779.0, 778.0, 776.0, 779.0, 778.0, 778.0, 779.0, 778.0, 778.0, 780.0, 780.0, 780.0, 779.0, 778.0, 777.0, 770.0, 777.0, 777.0, 775.0, 781.0, 780.0, 774.0, 769.0, 779.0, 780.0, 780.0, 780.0, 781.0, 781.0, 780.0, 778.0, 777.0, 779.0, 780.0, 779.0, 778.0, 777.0, 778.0, 779.0, 778.0, 779.0, 779.0, 779.0, 778.0, 777.0, 777.0, 777.0, 772.0, 777.0, 780.0, 778.0, 777.0, 778.0, 779.0, 777.0, 777.0, 777.0, 779.0, 779.0, 780.0, 781.0, 780.0, 779.0, 779.0, 778.0, 777.0, 776.0, 778.0, 781.0, 781.0, 780.0, 779.0, 780.0, 780.0, 780.0, 779.0, 778.0, 778.0, 778.0, 779.0, 780.0, 780.0, 780.0, 779.0, 779.0, 779.0, 780.0, 780.0, 779.0, 779.0, 778.0, 778.0, 778.0, 778.0, 778.0, 778.0, 778.0, 779.0, 779.0, 779.0, 779.0, 780.0, 780.0, 781.0, 780.0, 780.0, 780.0, 778.0, 777.0, 776.0, 774.0, 777.0, 779.0, 774.0, 778.0, 771.0, 775.0, 770.0, 779.0, 777.0, 778.0, 778.0, 778.0, 778.0, 778.0, 778.0, 777.0, 779.0, 779.0, 780.0, 780.0, 780.0, 779.0, 780.0, 781.0, 780.0, 780.0, 778.0, 776.0, 776.0, 778.0, 778.0, 780.0, 780.0, 780.0, 780.0, 779.0, 779.0, 779.0, 779.0],
      "WindowWidth": [1685.0, 1683.0, 1680.0, 1678.0, 1680.0, 1684.0, 1687.0, 1682.0, 1679.0, 1678.0, 1682.0, 1683.0, 1682.0, 1680.0, 1682.0, 1680.0, 1678.0, 1680.0, 1682.0, 1685.0, 1684.0, 1682.0, 1679.0, 1677.0, 1678.0, 1679.0, 1684.0, 1683.0, 1679.0, 1678.0, 1675.0, 1677.0, 1678.0, 1664.0, 1660.0, 1684.0, 1668.0, 1671.0, 1662.0, 1668.0, 1660.0, 1670.0, 1674.0, 1672.0, 1667.0, 1664.0, 1665.0, 1665.0, 1664.0, 1662.0, 1663.0, 1663.0, 1659.0, 1659.0, 1664.0, 1664.0, 1665.0, 1667.0, 1668.0, 1669.0, 1668.0, 1666.0, 1663.0, 1660.0, 1659.0, 1659.0, 1660.0, 1659.0, 1658.0, 1657.0, 1658.0, 1658.0, 1658.0, 1656.0, 1659.0, 1655.0, 1656.0, 1660.0, 1660.0, 1664.0, 1663.0, 1661.0, 1660.0, 1657.0, 1654.0, 1660.0, 1658.0, 1660.0, 1659.0, 1658.0, 1658.0, 1662.0, 1663.0, 1663.0, 1660.0, 1657.0, 1655.0, 1639.0, 1656.0, 1656.0, 1650.0, 1667.0, 1662.0, 1650.0, 1636.0, 1662.0, 1663.0, 1664.0, 1664.0, 1666.0, 1665.0, 1662.0, 1658.0, 1656.0, 1660.0, 1663.0, 1661.0, 1656.0, 1655.0, 1656.0, 1659.0, 1658.0, 1660.0, 1660.0, 1659.0, 1658.0, 1656.0, 1655.0, 1654.0, 1642.0, 1655.0, 1664.0, 1658.0, 1654.0, 1657.0, 1660.0, 1656.0, 1656.0, 1655.0, 1659.0, 1662.0, 1663.0, 1665.0, 1663.0, 1661.0, 1660.0, 1659.0, 1656.0, 1654.0, 1658.0, 1666.0, 1665.0, 1662.0, 1661.0, 1662.0, 1663.0, 1662.0, 1661.0, 1658.0, 1657.0, 1657.0, 1660.0, 1662.0, 1662.0, 1662.0, 1660.0, 1660.0, 1660.0, 1661.0, 1662.0, 1660.0, 1659.0, 1658.0, 1657.0, 1658.0, 1658.0, 1657.0, 1657.0, 1658.0, 1659.0, 1661.0, 1660.0, 1660.0, 1663.0, 1663.0, 1664.0, 1664.0, 1663.0, 1663.0, 1658.0, 1655.0, 1654.0, 1648.0, 1655.0, 1661.0, 1648.0, 1657.0, 1640.0, 1652.0, 1639.0, 1659.0, 1655.0, 1656.0, 1657.0, 1658.0, 1658.0, 1657.0, 1657.0, 1656.0, 1659.0, 1661.0, 1662.0, 1663.0, 1661.0, 1661.0, 1663.0, 1665.0, 1663.0, 1662.0, 1656.0, 1654.0, 1653.0, 1658.0, 1658.0, 1662.0, 1661.0, 1662.0, 1661.0, 1659.0, 1659.0, 1658.0, 1660.0]
    },
    "slices": {}
  }
}