{
  "AcquisitionMatrixPE": 100,
  "AcquisitionNumber": 1,
  "AcquisitionTime": "13:40:53.880000",
  "BandwidthPerPixelPhaseEncode": 18.519,
  "BaseResolution": 100,
  "BodyPartExamined": "BRAIN",
  "ConsistencyInfo": "N4_VE11C_LATEST_20160120",
  "ConversionSoftware": "dcm2niix",
  "ConversionSoftwareVersion": "v1.0.20180622 GCC4.9.2",
  "DerivedVendorReportedEchoSpacing": 0.000539986,
  "DeviceSerialNumber": "166078",
  "DwellTime": 2.1e-06,
  "EchoTime": 0.034,
  "EchoTrainLength": 100,
  "EffectiveEchoSpacing": 0.000539986,
  "FlipAngle": 90,
  "ImageOrientationPatientDICOM": [0.999067, 0.0165138, -0.0399142, -0.0296516, 0.934126, -0.35571],
  "ImageType": [
    "ORIGINAL",
    "PRIMARY",
    "M",
    "ND",
    "MOSAIC"
],
  "InPlanePhaseEncodingDirectionDICOM": "COL",
  "InstitutionAddress": "Street_StreetNo_Bei_Jing_District_CN_ZIP",
  "InstitutionName": "BeiJing_Normal_University",
  "InstitutionalDepartmentName": "Department",
  "MRAcquisitionType": "2D",
  "MagneticFieldStrength": 3,
  "Manufacturer": "Siemens",
  "ManufacturersModelName": "Prisma",
  "Modality": "MR",
  "MultibandAccelerationFactor": 3,
  "PartialFourier": 1,
  "PatientPosition": "HFS",
  "PercentPhaseFOV": 100,
  "PhaseEncodingDirection": "j-",
  "PhaseEncodingSteps": 100,
  "PhaseResolution": 1,
  "PixelBandwidth": 2380,
  "ProcedureStepDescription": "BNU_P2018_64CH_Liu.Jia",
  "ProtocolName": "bold_100x100_s3_2x2x2_232",
  "PulseSequenceDetails": "%SiemensSeq%_ep2d_bold",
  "ReceiveCoilActiveElements": "HC1-7;NC1",
  "ReceiveCoilName": "HeadNeck_64",
  "ReconMatrixPE": 100,
  "RepetitionTime": 2,
  "SAR": 0.066756,
  "ScanOptions": "FS",
  "ScanningSequence": "EP",
  "SequenceName": "_epfid2d1_100",
  "SequenceVariant": "SK",
  "SeriesDescription": "bold_100x100_s3_2x2x2_232",
  "SeriesNumber": 10,
  "ShimSetting": [-5471, -11475, -1297, 335, 14, -193, -207, 105],
  "SliceThickness": 2,
  "SliceTiming": [1.485, 0, 0.99, 0.0825, 1.0725, 0.165, 1.155, 0.2475, 1.2375, 0.33, 1.32, 0.4125, 1.4025, 0.5775, 1.5675, 0.66, 1.65, 0.7425, 1.7325, 0.825, 1.815, 0.9075, 1.8975, 0.495, 1.485, 0, 0.99, 0.0825, 1.0725, 0.165, 1.155, 0.2475, 1.2375, 0.33, 1.32, 0.4125, 1.4025, 0.5775, 1.5675, 0.66, 1.65, 0.7425, 1.7325, 0.825, 1.815, 0.9075, 1.8975, 0.495, 1.485, 0, 0.99, 0.0825, 1.0725, 0.165, 1.155, 0.2475, 1.2375, 0.33, 1.32, 0.4125, 1.4025, 0.5775, 1.5675, 0.66, 1.65, 0.7425, 1.7325, 0.825, 1.815, 0.9075, 1.8975, 0.495],
  "SoftwareVersions": "syngo_MR_E11",
  "SpacingBetweenSlices": 2,
  "StationName": "AWP166078",
  "TaskName": "motor",
  "TotalReadoutTime": 0.0534586,
  "TxRefAmp": 235.033,
  "dcmmeta_affine": [
    [-1.9981333017349243, -0.05930311232805252, -0.06282153725624084, 107.7414779663086],
    [-0.033027615398168564, 1.8682514429092407, -0.7131239175796509, -64.4469223022461],
    [-0.07982844859361649, 0.7114208936691284, 1.8674869537353516, -108.11338806152344],
    [0.0, 0.0, 0.0, 1.0]
],
  "dcmmeta_reorient_transform": [
    [0.0, -1.0, 0.0, 99.0],
    [1.0, 0.0, 0.0, 0.0],
    [0.0, 0.0, 1.0, 0.0],
    [0.0, 0.0, 0.0, 1.0]
],
  "dcmmeta_shape": [100, 100, 72, 232],
  "dcmmeta_slice_dim": 2,
  "dcmmeta_version": 0.6,
  "global": {
    "const": {
      "AcquisitionMatrix": [100, 0, 0, 100],
      "AngioFlag": "N",
      "BitsAllocated": 16,
      "BitsStored": 12,
      "BodyPartExamined": "BRAIN",
      "Columns": 900,
      "EchoNumbers": 1,
      "EchoTime": 34.0,
      "EchoTrainLength": 100,
      "FlipAngle": 90.0,
      "HighBit": 11,
      "ImageOrientationPatient": [0.99906663884947, 0.01651380848154, -0.0399142238739, -0.0296515555323, 0.93412571847181, -0.3557104543643],
      "ImagePositionPatient": [-877.40253387829, -881.02159438436, 278.8170245623],
      "ImageType": [
        "ORIGINAL",
        "PRIMARY",
        "M",
        "ND",
        "MOSAIC"
],
      "ImagedNucleus": "1H",
      "ImagingFrequency": 123.257862,
      "InPlanePhaseEncodingDirection": "COL",
      "MRAcquisitionType": "2D",
      "MagneticFieldStrength": 3.0,
      "Manufacturer": "SIEMENS",
      "ManufacturerModelName": "Prisma",
      "Modality": "MR",
      "NumberOfAverages": 1.0,
      "NumberOfPhaseEncodingSteps": 100,
      "PercentPhaseFieldOfView": 100.0,
      "PercentSampling": 100.0,
      "PerformedProcedureStepStartTime": "124938.487000",
      "PhotometricInterpretation": "MONOCHROME2",
      "PixelBandwidth": 2380.0,
      "PixelRepresentation": 0,
      "PixelSpacing": [2.0, 2.0],
      "ProtocolName": "bold_100x100_s3_2x2x2_232",
      "RepetitionTime": 2000.0,
      "Rows": 900,
      "SAR": 0.06675597811519,
      "SamplesPerPixel": 1,
      "ScanOptions": "FS",
      "ScanningSequence": "EP",
      "SequenceName": "*epfid2d1_100",
      "SequenceVariant": "SK",
      "SeriesDescription": "bold_100x100_s3_2x2x2_232",
      "SeriesNumber": 10,
      "SeriesTime": "134056.672000",
      "SliceLocation": -81.355095717574,
      "SliceThickness": 2.0,
      "SmallestImagePixelValue": 0,
      "SoftwareVersions": "syngo MR E11",
      "SpacingBetweenSlices": 1.999999979616,
      "SpecificCharacterSet": "ISO_IR 100",
      "StudyID": "1",
      "StudyTime": "124938.408000",
      "TransmitCoilName": "Body",
      "VariableFlipAngleFlag": "N",
      "WindowCenterWidthExplanation": "Algo1",
      "dBdt": 0.0},
    "slices": {}
  },
  "time": {
    "samples": {
      "AcquisitionNumber": [1, 2, 3, 4, 5, 6, 7, 8, 9, 10, 11, 12, 13, 14, 15, 16, 17, 18, 19, 20, 21, 22, 23, 24, 25, 26, 27, 28, 29, 30, 31, 32, 33, 34, 35, 36, 37, 38, 39, 40, 41, 42, 43, 44, 45, 46, 47, 48, 49, 50, 51, 52, 53, 54, 55, 56, 57, 58, 59, 60, 61, 62, 63, 64, 65, 66, 67, 68, 69, 70, 71, 72, 73, 74, 75, 76, 77, 78, 79, 80, 81, 82, 83, 84, 85, 86, 87, 88, 89, 90, 91, 92, 93, 94, 95, 96, 97, 98, 99, 100, 101, 102, 103, 104, 105, 106, 107, 108, 109, 110, 111, 112, 113, 114, 115, 116, 117, 118, 119, 120, 121, 122, 123, 124, 125, 126, 127, 128, 129, 130, 131, 132, 133, 134, 135, 136, 137, 138, 139, 140, 141, 142, 143, 144, 145, 146, 147, 148, 149, 150, 151, 152, 153, 154, 155, 156, 157, 158, 159, 160, 161, 162, 163, 164, 165, 166, 167, 168, 169, 170, 171, 172, 173, 174, 175, 176, 177, 178, 179, 180, 181, 182, 183, 184, 185, 186, 187, 188, 189, 190, 191, 192, 193, 194, 195, 196, 197, 198, 199, 200, 201, 202, 203, 204, 205, 206, 207, 208, 209, 210, 211, 212, 213, 214, 215, 216, 217, 218, 219, 220, 221, 222, 223, 224, 225, 226, 227, 228, 229, 230, 231, 232],
      "AcquisitionTime": ["134053.880000", "134055.880000", "134057.880000", "134059.880000", "134101.880000", "134103.880000", "134105.880000", "134107.880000", "134109.880000", "134111.880000", "134113.880000", "134115.880000", "134117.880000", "134119.880000", "134121.880000", "134123.880000", "134125.880000", "134127.880000", "134129.880000", "134131.880000", "134133.880000", "134135.880000", "134137.880000", "134139.880000", "134141.880000", "134143.880000", "134145.880000", "134147.880000", "134149.880000", "134151.880000", "134153.880000", "134155.880000", "134157.880000", "134159.880000", "134201.880000", "134203.880000", "134205.880000", "134207.880000", "134209.880000", "134211.880000", "134213.880000", "134215.880000", "134217.880000", "134219.880000", "134221.880000", "134223.880000", "134225.880000", "134227.880000", "134229.880000", "134231.880000", "134233.880000", "134235.880000", "134237.880000", "134239.880000", "134241.880000", "134243.880000", "134245.880000", "134247.880000", "134249.880000", "134251.880000", "134253.880000", "134255.880000", "134257.880000", "134259.880000", "134301.880000", "134303.880000", "134305.880000", "134307.880000", "134309.880000", "134311.880000", "134313.880000", "134315.880000", "134317.880000", "134319.880000", "134321.880000", "134323.880000", "134325.880000", "134327.880000", "134329.880000", "134331.880000", "134333.880000", "134335.880000", "134337.880000", "134339.880000", "134341.880000", "134343.880000", "134345.880000", "134347.880000", "134349.880000", "134351.880000", "134353.880000", "134355.880000", "134357.880000", "134359.880000", "134401.880000", "134403.880000", "134405.880000", "134407.880000", "134409.880000", "134411.880000", "134413.880000", "134415.880000", "134417.880000", "134419.880000", "134421.880000", "134423.880000", "134425.880000", "134427.880000", "134429.880000", "134431.880000", "134433.880000", "134435.880000", "134437.880000", "134439.880000", "134441.880000", "134443.880000", "134445.880000", "134447.880000", "134449.880000", "134451.880000", "134453.880000", "134455.880000", "134457.880000", "134459.880000", "134501.880000", "134503.880000", "134505.880000", "134507.880000", "134509.880000", "134511.880000", "134513.880000", "134515.880000", "134517.880000", "134519.880000", "134521.880000", "134523.880000", "134525.880000", "134527.880000", "134529.880000", "134531.880000", "134533.880000", "134535.880000", "134537.880000", "134539.880000", "134541.880000", "134543.880000", "134545.880000", "134547.880000", "134549.880000", "134551.880000", "134553.880000", "134555.880000", "134557.880000", "134559.880000", "134601.880000", "134603.880000", "134605.880000", "134607.880000", "134609.880000", "134611.880000", "134613.880000", "134615.880000", "134617.880000", "134619.880000", "134621.880000", "134623.880000", "134625.880000", "134627.880000", "134629.880000", "134631.880000", "134633.880000", "134635.880000", "134637.880000", "134639.880000", "134641.880000", "134643.880000", "134645.880000", "134647.880000", "134649.880000", "134651.880000", "134653.880000", "134655.880000", "134657.880000", "134659.880000", "134701.880000", "134703.880000", "134705.880000", "134707.880000", "134709.880000", "134711.880000", "134713.880000", "134715.880000", "134717.880000", "134719.880000", "134721.880000", "134723.880000", "134725.880000", "134727.880000", "134729.880000", "134731.880000", "134733.880000", "134735.880000", "134737.880000", "134739.880000", "134741.880000", "134743.880000", "134745.880000", "134747.880000", "134749.880000", "134751.880000", "134753.880000", "134755.880000", "134757.880000", "134759.880000", "134801.880000", "134803.880000", "134805.880000", "134807.880000", "134809.880000", "134811.880000", "134813.880000", "134815.880000", "134817.880000", "134819.880000", "134821.880000", "134823.880000", "134825.880000", "134827.880000", "134829.880000", "134831.880000", "134833.880000", "134835.880000"],
      "ContentTime": ["134056.676000", "134058.171000", "134100.171000", "134102.171000", "134104.171000", "134106.170000", "134108.171000", "134110.172000", "134112.171000", "134114.171000", "134116.171000", "134118.171000", "134120.171000", "134122.171000", "134124.170000", "134126.171000", "134128.172000", "134130.171000", "134132.172000", "134134.172000", "134136.171000", "134138.171000", "134140.171000", "134142.170000", "134144.171000", "134146.171000", "134148.171000", "134150.171000", "134152.172000", "134154.171000", "134156.171000", "134158.171000", "134200.171000", "134202.171000", "134204.171000", "134206.171000", "134208.171000", "134210.172000", "134212.171000", "134214.171000", "134216.171000", "134218.170000", "134220.171000", "134222.171000", "134224.171000", "134226.171000", "134228.172000", "134230.171000", "134232.171000", "134234.171000", "134236.171000", "134238.171000", "134240.172000", "134242.171000", "134244.171000", "134246.171000", "134248.171000", "134250.171000", "134252.170000", "134254.171000", "134256.171000", "134258.171000", "134300.171000", "134302.172000", "134304.171000", "134306.172000", "134308.171000", "134310.170000", "134312.172000", "134314.172000", "134316.172000", "134318.172000", "134320.171000", "134322.171000", "134324.171000", "134326.170000", "134328.170000", "134330.171000", "134332.171000", "134334.171000", "134336.171000", "134338.171000", "134340.171000", "134342.171000", "134344.170000", "134346.171000", "134348.172000", "134350.172000", "134352.171000", "134354.172000", "134356.171000", "134358.171000", "134400.172000", "134402.170000", "134404.171000", "134406.171000", "134408.171000", "134410.171000", "134412.171000", "134414.171000", "134416.171000", "134418.171000", "134420.170000", "134422.172000", "134424.171000", "134426.171000", "134428.171000", "134430.172000", "134432.171000", "134434.171000", "134436.170000", "134438.170000", "134440.171000", "134442.172000", "134444.172000", "134446.171000", "134448.171000", "134450.171000", "134452.171000", "134454.171000", "134456.172000", "134458.171000", "134500.171000", "134502.171000", "134504.172000", "134506.171000", "134508.171000", "134510.171000", "134512.170000", "134514.172000", "134516.171000", "134518.171000", "134520.172000", "134522.171000", "134524.172000", "134526.172000", "134528.171000", "134530.170000", "134532.172000", "134534.171000", "134536.172000", "134538.171000", "134540.172000", "134542.180000", "134544.171000", "134546.170000", "134548.171000", "134550.171000", "134552.171000", "134554.171000", "134556.171000", "134558.171000", "134600.171000", "134602.171000", "134604.171000", "134606.171000", "134608.171000", "134610.172000", "134612.171000", "134614.171000", "134616.171000", "134618.171000", "134620.171000", "134622.170000", "134624.171000", "134626.172000", "134628.171000", "134630.171000", "134632.171000", "134634.171000", "134636.171000", "134638.171000", "134640.171000", "134642.171000", "134644.172000", "134646.171000", "134648.172000", "134650.191000", "134652.171000", "134654.171000", "134656.170000", "134658.172000", "134700.172000", "134702.172000", "134704.172000", "134706.171000", "134708.172000", "134710.171000", "134712.171000", "134714.171000", "134716.171000", "134718.172000", "134720.172000", "134722.171000", "134724.172000", "134726.171000", "134728.171000", "134730.171000", "134732.170000", "134734.172000", "134736.171000", "134738.171000", "134740.172000", "134742.171000", "134744.171000", "134746.172000", "134748.172000", "134750.170000", "134752.171000", "134754.171000", "134756.171000", "134758.171000", "134800.172000", "134802.171000", "134804.171000", "134806.170000", "134808.172000", "134810.171000", "134812.171000", "134814.172000", "134816.172000", "134818.171000", "134820.172000", "134822.172000", "134824.170000", "134826.171000", "134828.171000", "134830.172000", "134832.171000", "134834.171000", "134836.172000", "134837.985000"],
      "InstanceCreationTime": ["134056.676000", "134058.171000", "134100.171000", "134102.171000", "134104.171000", "134106.170000", "134108.171000", "134110.172000", "134112.171000", "134114.171000", "134116.171000", "134118.171000", "134120.171000", "134122.171000", "134124.170000", "134126.171000", "134128.172000", "134130.171000", "134132.172000", "134134.172000", "134136.171000", "134138.171000", "134140.171000", "134142.170000", "134144.171000", "134146.171000", "134148.171000", "134150.171000", "134152.172000", "134154.171000", "134156.171000", "134158.171000", "134200.171000", "134202.171000", "134204.171000", "134206.171000", "134208.171000", "134210.172000", "134212.171000", "134214.171000", "134216.171000", "134218.170000", "134220.171000", "134222.171000", "134224.171000", "134226.171000", "134228.172000", "134230.171000", "134232.171000", "134234.171000", "134236.171000", "134238.171000", "134240.172000", "134242.171000", "134244.171000", "134246.171000", "134248.171000", "134250.171000", "134252.170000", "134254.171000", "134256.171000", "134258.171000", "134300.171000", "134302.172000", "134304.171000", "134306.172000", "134308.171000", "134310.170000", "134312.172000", "134314.172000", "134316.172000", "134318.172000", "134320.171000", "134322.171000", "134324.171000", "134326.170000", "134328.170000", "134330.171000", "134332.171000", "134334.171000", "134336.171000", "134338.171000", "134340.171000", "134342.171000", "134344.170000", "134346.171000", "134348.172000", "134350.172000", "134352.171000", "134354.172000", "134356.171000", "134358.171000", "134400.172000", "134402.170000", "134404.171000", "134406.171000", "134408.171000", "134410.171000", "134412.171000", "134414.171000", "134416.171000", "134418.171000", "134420.170000", "134422.172000", "134424.171000", "134426.171000", "134428.171000", "134430.172000", "134432.171000", "134434.171000", "134436.170000", "134438.170000", "134440.171000", "134442.172000", "134444.172000", "134446.171000", "134448.171000", "134450.171000", "134452.171000", "134454.171000", "134456.172000", "134458.171000", "134500.171000", "134502.171000", "134504.172000", "134506.171000", "134508.171000", "134510.171000", "134512.170000", "134514.172000", "134516.171000", "134518.171000", "134520.172000", "134522.171000", "134524.172000", "134526.172000", "134528.171000", "134530.170000", "134532.172000", "134534.171000", "134536.172000", "134538.171000", "134540.172000", "134542.180000", "134544.171000", "134546.170000", "134548.171000", "134550.171000", "134552.171000", "134554.171000", "134556.171000", "134558.171000", "134600.171000", "134602.171000", "134604.171000", "134606.171000", "134608.171000", "134610.172000", "134612.171000", "134614.171000", "134616.171000", "134618.171000", "134620.171000", "134622.170000", "134624.171000", "134626.172000", "134628.171000", "134630.171000", "134632.171000", "134634.171000", "134636.171000", "134638.171000", "134640.171000", "134642.171000", "134644.172000", "134646.171000", "134648.172000", "134650.191000", "134652.171000", "134654.171000", "134656.170000", "134658.172000", "134700.172000", "134702.172000", "134704.172000", "134706.171000", "134708.172000", "134710.171000", "134712.171000", "134714.171000", "134716.171000", "134718.172000", "134720.172000", "134722.171000", "134724.172000", "134726.171000", "134728.171000", "134730.171000", "134732.170000", "134734.172000", "134736.171000", "134738.171000", "134740.172000", "134742.171000", "134744.171000", "134746.172000", "134748.172000", "134750.170000", "134752.171000", "134754.171000", "134756.171000", "134758.171000", "134800.172000", "134802.171000", "134804.171000", "134806.170000", "134808.172000", "134810.171000", "134812.171000", "134814.172000", "134816.172000", "134818.171000", "134820.172000", "134822.172000", "134824.170000", "134826.171000", "134828.171000", "134830.172000", "134832.171000", "134834.171000", "134836.172000", "134837.985000"],
      "InstanceNumber": [1, 2, 3, 4, 5, 6, 7, 8, 9, 10, 11, 12, 13, 14, 15, 16, 17, 18, 19, 20, 21, 22, 23, 24, 25, 26, 27, 28, 29, 30, 31, 32, 33, 34, 35, 36, 37, 38, 39, 40, 41, 42, 43, 44, 45, 46, 47, 48, 49, 50, 51, 52, 53, 54, 55, 56, 57, 58, 59, 60, 61, 62, 63, 64, 65, 66, 67, 68, 69, 70, 71, 72, 73, 74, 75, 76, 77, 78, 79, 80, 81, 82, 83, 84, 85, 86, 87, 88, 89, 90, 91, 92, 93, 94, 95, 96, 97, 98, 99, 100, 101, 102, 103, 104, 105, 106, 107, 108, 109, 110, 111, 112, 113, 114, 115, 116, 117, 118, 119, 120, 121, 122, 123, 124, 125, 126, 127, 128, 129, 130, 131, 132, 133, 134, 135, 136, 137, 138, 139, 140, 141, 142, 143, 144, 145, 146, 147, 148, 149, 150, 151, 152, 153, 154, 155, 156, 157, 158, 159, 160, 161, 162, 163, 164, 165, 166, 167, 168, 169, 170, 171, 172, 173, 174, 175, 176, 177, 178, 179, 180, 181, 182, 183, 184, 185, 186, 187, 188, 189, 190, 191, 192, 193, 194, 195, 196, 197, 198, 199, 200, 201, 202, 203, 204, 205, 206, 207, 208, 209, 210, 211, 212, 213, 214, 215, 216, 217, 218, 219, 220, 221, 222, 223, 224, 225, 226, 227, 228, 229, 230, 231, 232],
      "LargestImagePixelValue": [3238, 3165, 3131, 3139, 3168, 3143, 3131, 3144, 3152, 3138, 3126, 3159, 3135, 3146, 3123, 3126, 3156, 3173, 3175, 3376, 3274, 3111, 3253, 3074, 3116, 3109, 3123, 3124, 3180, 3127, 3141, 3094, 3126, 3140, 3044, 3088, 3073, 3087, 3071, 3139, 3126, 3113, 3132, 3069, 3134, 3113, 3099, 3131, 3077, 3114, 3118, 3102, 3079, 3113, 3127, 3106, 3094, 3091, 3090, 3091, 3109, 3085, 3087, 3096, 3090, 3118, 3088, 3104, 3086, 3057, 3096, 3077, 3099, 3161, 3106, 3095, 3083, 3089, 3101, 3103, 3082, 3086, 3114, 3080, 3091, 3074, 3113, 3120, 3107, 3137, 3105, 3103, 3132, 3095, 3080, 3109, 3110, 3071, 3154, 3053, 3141, 3011, 3160, 3246, 3156, 3126, 3164, 3133, 3128, 3114, 3137, 3104, 3156, 3166, 3158, 3184, 3153, 3182, 3147, 3180, 3145, 3211, 3128, 3118, 3150, 3148, 3165, 3145, 3131, 3166, 3205, 3212, 3166, 3090, 3178, 3094, 3349, 3127, 3093, 3103, 3119, 3119, 3135, 3123, 3137, 3116, 3121, 3110, 3111, 3078, 3088, 3118, 3072, 3076, 3172, 3137, 3069, 3079, 3138, 3208, 3181, 3187, 3117, 3052, 3022, 3051, 3039, 3091, 3074, 3117, 3136, 3076, 3127, 3070, 3142, 3121, 3147, 3126, 3098, 3141, 3112, 3149, 3113, 3046, 3045, 3044, 3033, 3005, 3032, 3067, 3020, 3068, 3084, 3040, 3116, 3034, 3004, 3004, 2975, 3003, 2994, 3034, 3037, 3023, 3087, 3003, 3027, 2983, 3003, 3130, 3167, 3065, 3187, 3271, 3172, 3203, 3172, 3115, 3048, 3084, 3042, 3066, 3095, 3103, 3063, 3051, 3058, 3075, 3055, 3082, 3093, 3067],
      "WindowCenter": [781.0, 778.0, 778.0, 777.0, 779.0, 779.0, 778.0, 777.0, 777.0, 777.0, 777.0, 777.0, 779.0, 780.0, 780.0, 779.0, 778.0, 771.0, 780.0, 781.0, 776.0, 771.0, 774.0, 773.0, 779.0, 778.0, 779.0, 779.0, 779.0, 778.0, 778.0, 779.0, 779.0, 777.0, 778.0, 778.0, 778.0, 778.0, 777.0, 776.0, 775.0, 776.0, 777.0, 775.0, 775.0, 775.0, 776.0, 778.0, 777.0, 777.0, 777.0, 777.0, 776.0, 775.0, 774.0, 772.0, 773.0, 774.0, 779.0, 780.0, 779.0, 777.0, 776.0, 776.0, 778.0, 779.0, 779.0, 778.0, 777.0, 778.0, 779.0, 778.0, 777.0, 778.0, 777.0, 778.0, 777.0, 778.0, 778.0, 779.0, 780.0, 779.0, 778.0, 777.0, 778.0, 777.0, 777.0, 777.0, 778.0, 779.0, 778.0, 777.0, 777.0, 777.0, 778.0, 778.0, 777.0, 775.0, 783.0, 775.0, 778.0, 777.0, 772.0, 778.0, 782.0, 779.0, 781.0, 780.0, 780.0, 781.0, 782.0, 781.0, 780.0, 780.0, 780.0, 780.0, 780.0, 780.0, 780.0, 780.0, 780.0, 779.0, 778.0, 778.0, 778.0, 777.0, 779.0, 780.0, 779.0, 777.0, 778.0, 774.0, 772.0, 779.0, 776.0, 774.0, 777.0, 777.0, 779.0, 779.0, 779.0, 778.0, 778.0, 778.0, 778.0, 777.0, 778.0, 779.0, 779.0, 778.0, 775.0, 774.0, 773.0, 772.0, 772.0, 774.0, 775.0, 774.0, 773.0, 775.0, 775.0, 778.0, 780.0, 780.0, 779.0, 779.0, 778.0, 779.0, 778.0, 779.0, 779.0, 779.0, 778.0, 777.0, 775.0, 774.0, 775.0, 776.0, 776.0, 775.0, 775.0, 775.0, 776.0, 776.0, 777.0, 779.0, 780.0, 780.0, 779.0, 777.0, 776.0, 776.0, 777.0, 777.0, 779.0, 778.0, 777.0, 776.0, 774.0, 773.0, 772.0, 774.0, 774.0, 774.0, 775.0, 775.0, 775.0, 775.0, 775.0, 771.0, 779.0, 773.0, 775.0, 777.0, 775.0, 776.0, 777.0, 779.0, 777.0, 777.0, 777.0, 777.0, 778.0, 778.0, 777.0, 777.0, 779.0, 779.0, 778.0, 776.0, 776.0, 777.0],
      "WindowWidth": [1661.0, 1655.0, 1654.0, 1653.0, 1657.0, 1656.0, 1654.0, 1651.0, 1652.0, 1651.0, 1653.0, 1653.0, 1656.0, 1659.0, 1658.0, 1656.0, 1654.0, 1638.0, 1661.0, 1663.0, 1651.0, 1638.0, 1646.0, 1644.0, 1658.0, 1654.0, 1657.0, 1657.0, 1656.0, 1655.0, 1655.0, 1658.0, 1656.0, 1652.0, 1654.0, 1655.0, 1655.0, 1654.0, 1652.0, 1649.0, 1647.0, 1650.0, 1651.0, 1647.0, 1646.0, 1647.0, 1649.0, 1654.0, 1651.0, 1651.0, 1650.0, 1650.0, 1650.0, 1647.0, 1644.0, 1639.0, 1643.0, 1644.0, 1656.0, 1659.0, 1657.0, 1652.0, 1648.0, 1649.0, 1654.0, 1656.0, 1657.0, 1654.0, 1652.0, 1653.0, 1656.0, 1654.0, 1651.0, 1653.0, 1650.0, 1653.0, 1651.0, 1653.0, 1654.0, 1658.0, 1658.0, 1657.0, 1654.0, 1652.0, 1654.0, 1652.0, 1652.0, 1652.0, 1655.0, 1656.0, 1653.0, 1652.0, 1652.0, 1652.0, 1654.0, 1653.0, 1653.0, 1648.0, 1667.0, 1647.0, 1655.0, 1653.0, 1640.0, 1657.0, 1664.0, 1656.0, 1661.0, 1659.0, 1660.0, 1662.0, 1664.0, 1661.0, 1660.0, 1659.0, 1658.0, 1659.0, 1659.0, 1660.0, 1659.0, 1659.0, 1657.0, 1657.0, 1654.0, 1654.0, 1654.0, 1653.0, 1656.0, 1658.0, 1657.0, 1652.0, 1656.0, 1645.0, 1641.0, 1658.0, 1651.0, 1645.0, 1653.0, 1651.0, 1655.0, 1655.0, 1655.0, 1653.0, 1654.0, 1654.0, 1653.0, 1652.0, 1654.0, 1657.0, 1656.0, 1653.0, 1647.0, 1644.0, 1641.0, 1639.0, 1640.0, 1645.0, 1646.0, 1644.0, 1642.0, 1646.0, 1647.0, 1653.0, 1659.0, 1659.0, 1657.0, 1655.0, 1653.0, 1655.0, 1652.0, 1656.0, 1656.0, 1656.0, 1653.0, 1650.0, 1646.0, 1645.0, 1646.0, 1649.0, 1647.0, 1645.0, 1645.0, 1646.0, 1649.0, 1648.0, 1651.0, 1656.0, 1660.0, 1659.0, 1656.0, 1652.0, 1649.0, 1649.0, 1651.0, 1651.0, 1655.0, 1655.0, 1652.0, 1648.0, 1644.0, 1641.0, 1639.0, 1644.0, 1645.0, 1645.0, 1647.0, 1646.0, 1646.0, 1647.0, 1646.0, 1638.0, 1656.0, 1644.0, 1647.0, 1652.0, 1647.0, 1650.0, 1653.0, 1657.0, 1651.0, 1652.0, 1651.0, 1651.0, 1654.0, 1654.0, 1651.0, 1652.0, 1656.0, 1656.0, 1652.0, 1649.0, 1649.0, 1650.0]
    },
    "slices": {}
  }
}