{
  "AcquisitionMatrixPE": 100,
  "AcquisitionNumber": 1,
  "AcquisitionTime": "13:01:58.622500",
  "BandwidthPerPixelPhaseEncode": 18.519,
  "BaseResolution": 100,
  "BodyPartExamined": "BRAIN",
  "ConsistencyInfo": "N4_VE11C_LATEST_20160120",
  "ConversionSoftware": "dcm2niix",
  "ConversionSoftwareVersion": "v1.0.20180622 GCC4.9.2",
  "DerivedVendorReportedEchoSpacing": 0.000539986,
  "DeviceSerialNumber": "166078",
  "DwellTime": 2.1e-06,
  "EchoTime": 0.034,
  "EchoTrainLength": 100,
  "EffectiveEchoSpacing": 0.000539986,
  "FlipAngle": 90,
  "ImageOrientationPatientDICOM": [0.999067, 0.0165138, -0.0399142, -0.0296516, 0.934126, -0.35571],
  "ImageType": [
    "ORIGINAL",
    "PRIMARY",
    "M",
    "ND",
    "MOSAIC"
],
  "InPlanePhaseEncodingDirectionDICOM": "COL",
  "InstitutionAddress": "Street_StreetNo_Bei_Jing_District_CN_ZIP",
  "InstitutionName": "BeiJing_Normal_University",
  "InstitutionalDepartmentName": "Department",
  "MRAcquisitionType": "2D",
  "MagneticFieldStrength": 3,
  "Manufacturer": "Siemens",
  "ManufacturersModelName": "Prisma",
  "Modality": "MR",
  "MultibandAccelerationFactor": 3,
  "PartialFourier": 1,
  "PatientPosition": "HFS",
  "PercentPhaseFOV": 100,
  "PhaseEncodingDirection": "j-",
  "PhaseEncodingSteps": 100,
  "PhaseResolution": 1,
  "PixelBandwidth": 2380,
  "ProcedureStepDescription": "BNU_P2018_64CH_Liu.Jia",
  "ProtocolName": "bold_100x100_s3_2x2x2_232",
  "PulseSequenceDetails": "%SiemensSeq%_ep2d_bold",
  "ReceiveCoilActiveElements": "HC1-7;NC1",
  "ReceiveCoilName": "HeadNeck_64",
  "ReconMatrixPE": 100,
  "RepetitionTime": 2,
  "SAR": 0.066756,
  "ScanOptions": "FS",
  "ScanningSequence": "EP",
  "SequenceName": "_epfid2d1_100",
  "SequenceVariant": "SK",
  "SeriesDescription": "bold_100x100_s3_2x2x2_232",
  "SeriesNumber": 4,
  "ShimSetting": [-5471, -11475, -1297, 335, 14, -193, -207, 105],
  "SliceThickness": 2,
  "SliceTiming": [1.485, 0, 0.99, 0.0825, 1.0725, 0.165, 1.155, 0.2475, 1.2375, 0.33, 1.32, 0.4125, 1.4025, 0.5775, 1.5675, 0.66, 1.65, 0.7425, 1.7325, 0.825, 1.815, 0.9075, 1.8975, 0.495, 1.485, 0, 0.99, 0.0825, 1.0725, 0.165, 1.155, 0.2475, 1.2375, 0.33, 1.32, 0.4125, 1.4025, 0.5775, 1.5675, 0.66, 1.65, 0.7425, 1.7325, 0.825, 1.815, 0.9075, 1.8975, 0.495, 1.485, 0, 0.99, 0.0825, 1.0725, 0.165, 1.155, 0.2475, 1.2375, 0.33, 1.32, 0.4125, 1.4025, 0.5775, 1.5675, 0.66, 1.65, 0.7425, 1.7325, 0.825, 1.815, 0.9075, 1.8975, 0.495],
  "SoftwareVersions": "syngo_MR_E11",
  "SpacingBetweenSlices": 2,
  "StationName": "AWP166078",
  "TaskName": "motor",
  "TotalReadoutTime": 0.0534586,
  "TxRefAmp": 235.033,
  "dcmmeta_affine": [
    [-1.9981333017349243, -0.05930311232805252, -0.06282153725624084, 107.7414779663086],
    [-0.033027615398168564, 1.8682514429092407, -0.7131239175796509, -64.4469223022461],
    [-0.07982844859361649, 0.7114208936691284, 1.8674869537353516, -108.11338806152344],
    [0.0, 0.0, 0.0, 1.0]
],
  "dcmmeta_reorient_transform": [
    [0.0, -1.0, 0.0, 99.0],
    [1.0, 0.0, 0.0, 0.0],
    [0.0, 0.0, 1.0, 0.0],
    [0.0, 0.0, 0.0, 1.0]
],
  "dcmmeta_shape": [100, 100, 72, 232],
  "dcmmeta_slice_dim": 2,
  "dcmmeta_version": 0.6,
  "global": {
    "const": {
      "AcquisitionMatrix": [100, 0, 0, 100],
      "AngioFlag": "N",
      "BitsAllocated": 16,
      "BitsStored": 12,
      "BodyPartExamined": "BRAIN",
      "Columns": 900,
      "EchoNumbers": 1,
      "EchoTime": 34.0,
      "EchoTrainLength": 100,
      "FlipAngle": 90.0,
      "HighBit": 11,
      "ImageOrientationPatient": [0.99906663884947, 0.01651380848154, -0.0399142238739, -0.0296515555323, 0.93412571847181, -0.3557104543643],
      "ImagePositionPatient": [-877.40253387829, -881.02159438436, 278.8170245623],
      "ImageType": [
        "ORIGINAL",
        "PRIMARY",
        "M",
        "ND",
        "MOSAIC"
],
      "ImagedNucleus": "1H",
      "ImagingFrequency": 123.25785,
      "InPlanePhaseEncodingDirection": "COL",
      "MRAcquisitionType": "2D",
      "MagneticFieldStrength": 3.0,
      "Manufacturer": "SIEMENS",
      "ManufacturerModelName": "Prisma",
      "Modality": "MR",
      "NumberOfAverages": 1.0,
      "NumberOfPhaseEncodingSteps": 100,
      "PercentPhaseFieldOfView": 100.0,
      "PercentSampling": 100.0,
      "PerformedProcedureStepStartTime": "124938.487000",
      "PhotometricInterpretation": "MONOCHROME2",
      "PixelBandwidth": 2380.0,
      "PixelRepresentation": 0,
      "PixelSpacing": [2.0, 2.0],
      "ProtocolName": "bold_100x100_s3_2x2x2_232",
      "RepetitionTime": 2000.0,
      "Rows": 900,
      "SAR": 0.06675597811519,
      "SamplesPerPixel": 1,
      "ScanOptions": "FS",
      "ScanningSequence": "EP",
      "SequenceName": "*epfid2d1_100",
      "SequenceVariant": "SK",
      "SeriesDescription": "bold_100x100_s3_2x2x2_232",
      "SeriesNumber": 4,
      "SeriesTime": "130201.343000",
      "SliceLocation": -81.355095717574,
      "SliceThickness": 2.0,
      "SmallestImagePixelValue": 0,
      "SoftwareVersions": "syngo MR E11",
      "SpacingBetweenSlices": 1.999999979616,
      "SpecificCharacterSet": "ISO_IR 100",
      "StudyID": "1",
      "StudyTime": "124938.408000",
      "TransmitCoilName": "Body",
      "VariableFlipAngleFlag": "N",
      "WindowCenterWidthExplanation": "Algo1",
      "dBdt": 0.0},
    "slices": {}
  },
  "time": {
    "samples": {
      "AcquisitionNumber": [1, 2, 3, 4, 5, 6, 7, 8, 9, 10, 11, 12, 13, 14, 15, 16, 17, 18, 19, 20, 21, 22, 23, 24, 25, 26, 27, 28, 29, 30, 31, 32, 33, 34, 35, 36, 37, 38, 39, 40, 41, 42, 43, 44, 45, 46, 47, 48, 49, 50, 51, 52, 53, 54, 55, 56, 57, 58, 59, 60, 61, 62, 63, 64, 65, 66, 67, 68, 69, 70, 71, 72, 73, 74, 75, 76, 77, 78, 79, 80, 81, 82, 83, 84, 85, 86, 87, 88, 89, 90, 91, 92, 93, 94, 95, 96, 97, 98, 99, 100, 101, 102, 103, 104, 105, 106, 107, 108, 109, 110, 111, 112, 113, 114, 115, 116, 117, 118, 119, 120, 121, 122, 123, 124, 125, 126, 127, 128, 129, 130, 131, 132, 133, 134, 135, 136, 137, 138, 139, 140, 141, 142, 143, 144, 145, 146, 147, 148, 149, 150, 151, 152, 153, 154, 155, 156, 157, 158, 159, 160, 161, 162, 163, 164, 165, 166, 167, 168, 169, 170, 171, 172, 173, 174, 175, 176, 177, 178, 179, 180, 181, 182, 183, 184, 185, 186, 187, 188, 189, 190, 191, 192, 193, 194, 195, 196, 197, 198, 199, 200, 201, 202, 203, 204, 205, 206, 207, 208, 209, 210, 211, 212, 213, 214, 215, 216, 217, 218, 219, 220, 221, 222, 223, 224, 225, 226, 227, 228, 229, 230, 231, 232],
      "AcquisitionTime": ["130158.622500", "130200.622500", "130202.622500", "130204.622500", "130206.622500", "130208.622500", "130210.622500", "130212.622500", "130214.622500", "130216.622500", "130218.622500", "130220.622500", "130222.622500", "130224.622500", "130226.622500", "130228.622500", "130230.622500", "130232.622500", "130234.622500", "130236.622500", "130238.622500", "130240.622500", "130242.622500", "130244.622500", "130246.622500", "130248.622500", "130250.622500", "130252.622500", "130254.622500", "130256.622500", "130258.622500", "130300.622500", "130302.622500", "130304.622500", "130306.622500", "130308.622500", "130310.622500", "130312.622500", "130314.622500", "130316.622500", "130318.622500", "130320.622500", "130322.622500", "130324.622500", "130326.622500", "130328.622500", "130330.622500", "130332.622500", "130334.622500", "130336.622500", "130338.622500", "130340.622500", "130342.622500", "130344.622500", "130346.622500", "130348.622500", "130350.622500", "130352.622500", "130354.622500", "130356.622500", "130358.622500", "130400.622500", "130402.622500", "130404.622500", "130406.622500", "130408.622500", "130410.622500", "130412.622500", "130414.622500", "130416.622500", "130418.622500", "130420.622500", "130422.622500", "130424.622500", "130426.622500", "130428.622500", "130430.622500", "130432.622500", "130434.622500", "130436.622500", "130438.622500", "130440.622500", "130442.622500", "130444.622500", "130446.622500", "130448.622500", "130450.622500", "130452.622500", "130454.622500", "130456.622500", "130458.622500", "130500.622500", "130502.622500", "130504.622500", "130506.622500", "130508.622500", "130510.622500", "130512.622500", "130514.622500", "130516.622500", "130518.622500", "130520.622500", "130522.622500", "130524.622500", "130526.622500", "130528.622500", "130530.622500", "130532.622500", "130534.622500", "130536.622500", "130538.622500", "130540.622500", "130542.622500", "130544.622500", "130546.622500", "130548.622500", "130550.622500", "130552.622500", "130554.622500", "130556.622500", "130558.622500", "130600.622500", "130602.622500", "130604.622500", "130606.622500", "130608.622500", "130610.622500", "130612.622500", "130614.622500", "130616.622500", "130618.622500", "130620.622500", "130622.622500", "130624.622500", "130626.622500", "130628.622500", "130630.622500", "130632.622500", "130634.622500", "130636.622500", "130638.622500", "130640.622500", "130642.622500", "130644.622500", "130646.622500", "130648.622500", "130650.622500", "130652.622500", "130654.622500", "130656.622500", "130658.622500", "130700.622500", "130702.622500", "130704.622500", "130706.622500", "130708.622500", "130710.622500", "130712.622500", "130714.622500", "130716.622500", "130718.622500", "130720.622500", "130722.622500", "130724.622500", "130726.622500", "130728.622500", "130730.622500", "130732.622500", "130734.622500", "130736.622500", "130738.622500", "130740.622500", "130742.622500", "130744.622500", "130746.622500", "130748.622500", "130750.622500", "130752.622500", "130754.622500", "130756.622500", "130758.622500", "130800.622500", "130802.622500", "130804.622500", "130806.622500", "130808.622500", "130810.622500", "130812.622500", "130814.622500", "130816.622500", "130818.622500", "130820.622500", "130822.622500", "130824.622500", "130826.622500", "130828.622500", "130830.622500", "130832.622500", "130834.622500", "130836.622500", "130838.622500", "130840.622500", "130842.622500", "130844.622500", "130846.622500", "130848.622500", "130850.622500", "130852.622500", "130854.622500", "130856.622500", "130858.622500", "130900.622500", "130902.622500", "130904.622500", "130906.622500", "130908.622500", "130910.622500", "130912.622500", "130914.622500", "130916.622500", "130918.622500", "130920.622500", "130922.622500", "130924.622500", "130926.622500", "130928.622500", "130930.622500", "130932.622500", "130934.622500", "130936.622500", "130938.622500", "130940.622500"],
      "ContentTime": ["130201.347000", "130202.842000", "130204.842000", "130206.842000", "130208.843000", "130210.843000", "130212.843000", "130214.842000", "130216.842000", "130218.842000", "130220.842000", "130222.842000", "130224.842000", "130226.842000", "130228.843000", "130230.842000", "130232.843000", "130234.843000", "130236.842000", "130238.841000", "130240.843000", "130242.843000", "130244.842000", "130246.843000", "130248.842000", "130250.843000", "130252.842000", "130254.842000", "130256.842000", "130258.843000", "130300.843000", "130302.842000", "130304.842000", "130306.843000", "130308.843000", "130310.842000", "130312.841000", "130314.842000", "130316.842000", "130318.843000", "130320.842000", "130322.843000", "130324.843000", "130326.842000", "130328.843000", "130330.842000", "130332.841000", "130334.842000", "130336.842000", "130338.843000", "130340.842000", "130342.842000", "130344.842000", "130346.842000", "130348.841000", "130350.842000", "130352.843000", "130354.842000", "130356.843000", "130358.842000", "130400.842000", "130402.842000", "130404.842000", "130406.842000", "130408.843000", "130410.843000", "130412.843000", "130414.843000", "130416.843000", "130418.842000", "130420.842000", "130422.841000", "130424.842000", "130426.842000", "130428.843000", "130430.842000", "130432.842000", "130434.842000", "130436.842000", "130438.842000", "130440.842000", "130442.842000", "130444.843000", "130446.843000", "130448.843000", "130450.843000", "130452.842000", "130454.843000", "130456.842000", "130458.842000", "130500.842000", "130502.842000", "130504.842000", "130506.843000", "130508.843000", "130510.842000", "130512.843000", "130514.842000", "130516.841000", "130518.842000", "130520.842000", "130522.842000", "130524.843000", "130526.843000", "130528.842000", "130530.843000", "130532.841000", "130534.841000", "130536.843000", "130538.842000", "130540.842000", "130542.842000", "130544.843000", "130546.842000", "130548.842000", "130550.842000", "130552.841000", "130554.842000", "130556.843000", "130558.843000", "130600.843000", "130602.842000", "130604.842000", "130606.842000", "130608.841000", "130610.842000", "130612.843000", "130614.843000", "130616.843000", "130618.843000", "130620.843000", "130622.842000", "130624.843000", "130626.841000", "130628.843000", "130630.842000", "130632.842000", "130634.842000", "130636.842000", "130638.842000", "130640.842000", "130642.842000", "130644.842000", "130646.843000", "130648.842000", "130650.842000", "130652.843000", "130654.842000", "130656.842000", "130658.843000", "130700.842000", "130702.841000", "130704.842000", "130706.842000", "130708.842000", "130710.842000", "130712.843000", "130714.842000", "130716.842000", "130718.841000", "130720.842000", "130722.843000", "130724.842000", "130726.842000", "130728.843000", "130730.843000", "130732.842000", "130734.843000", "130736.841000", "130738.842000", "130740.842000", "130742.842000", "130744.842000", "130746.842000", "130748.843000", "130750.843000", "130752.841000", "130754.842000", "130756.843000", "130758.842000", "130800.843000", "130802.842000", "130804.843000", "130806.843000", "130808.843000", "130810.841000", "130812.842000", "130814.842000", "130816.842000", "130818.843000", "130820.843000", "130822.842000", "130824.842000", "130826.842000", "130828.842000", "130830.843000", "130832.842000", "130834.843000", "130836.843000", "130838.843000", "130840.842000", "130842.843000", "130844.843000", "130846.842000", "130848.843000", "130850.842000", "130852.843000", "130854.843000", "130856.843000", "130858.843000", "130900.843000", "130902.841000", "130904.842000", "130906.843000", "130908.842000", "130910.843000", "130912.843000", "130914.842000", "130916.843000", "130918.843000", "130920.841000", "130922.843000", "130924.843000", "130926.842000", "130928.842000", "130930.843000", "130932.842000", "130934.842000", "130936.842000", "130938.841000", "130940.842000", "130942.409000"],
      "InstanceCreationTime": ["130201.347000", "130202.842000", "130204.842000", "130206.842000", "130208.843000", "130210.843000", "130212.843000", "130214.842000", "130216.842000", "130218.842000", "130220.842000", "130222.842000", "130224.842000", "130226.842000", "130228.843000", "130230.842000", "130232.843000", "130234.843000", "130236.842000", "130238.841000", "130240.843000", "130242.843000", "130244.842000", "130246.843000", "130248.842000", "130250.843000", "130252.842000", "130254.842000", "130256.842000", "130258.843000", "130300.843000", "130302.842000", "130304.842000", "130306.843000", "130308.843000", "130310.842000", "130312.841000", "130314.842000", "130316.842000", "130318.843000", "130320.842000", "130322.843000", "130324.843000", "130326.842000", "130328.843000", "130330.842000", "130332.841000", "130334.842000", "130336.842000", "130338.843000", "130340.842000", "130342.842000", "130344.842000", "130346.842000", "130348.841000", "130350.842000", "130352.843000", "130354.842000", "130356.843000", "130358.842000", "130400.842000", "130402.842000", "130404.842000", "130406.842000", "130408.843000", "130410.843000", "130412.843000", "130414.843000", "130416.843000", "130418.842000", "130420.842000", "130422.841000", "130424.842000", "130426.842000", "130428.843000", "130430.842000", "130432.842000", "130434.842000", "130436.842000", "130438.842000", "130440.842000", "130442.842000", "130444.843000", "130446.843000", "130448.843000", "130450.843000", "130452.842000", "130454.843000", "130456.842000", "130458.842000", "130500.842000", "130502.842000", "130504.842000", "130506.843000", "130508.843000", "130510.842000", "130512.843000", "130514.842000", "130516.841000", "130518.842000", "130520.842000", "130522.842000", "130524.843000", "130526.843000", "130528.842000", "130530.843000", "130532.841000", "130534.841000", "130536.843000", "130538.842000", "130540.842000", "130542.842000", "130544.843000", "130546.842000", "130548.842000", "130550.842000", "130552.841000", "130554.842000", "130556.843000", "130558.843000", "130600.843000", "130602.842000", "130604.842000", "130606.842000", "130608.841000", "130610.842000", "130612.843000", "130614.843000", "130616.843000", "130618.843000", "130620.843000", "130622.842000", "130624.843000", "130626.841000", "130628.843000", "130630.842000", "130632.842000", "130634.842000", "130636.842000", "130638.842000", "130640.842000", "130642.842000", "130644.842000", "130646.843000", "130648.842000", "130650.842000", "130652.843000", "130654.842000", "130656.842000", "130658.843000", "130700.842000", "130702.841000", "130704.842000", "130706.842000", "130708.842000", "130710.842000", "130712.843000", "130714.842000", "130716.842000", "130718.841000", "130720.842000", "130722.843000", "130724.842000", "130726.842000", "130728.843000", "130730.843000", "130732.842000", "130734.843000", "130736.841000", "130738.842000", "130740.842000", "130742.842000", "130744.842000", "130746.842000", "130748.843000", "130750.843000", "130752.841000", "130754.842000", "130756.843000", "130758.842000", "130800.843000", "130802.842000", "130804.843000", "130806.843000", "130808.843000", "130810.841000", "130812.842000", "130814.842000", "130816.842000", "130818.843000", "130820.843000", "130822.842000", "130824.842000", "130826.842000", "130828.842000", "130830.843000", "130832.842000", "130834.843000", "130836.843000", "130838.843000", "130840.842000", "130842.843000", "130844.843000", "130846.842000", "130848.843000", "130850.842000", "130852.843000", "130854.843000", "130856.843000", "130858.843000", "130900.843000", "130902.841000", "130904.842000", "130906.843000", "130908.842000", "130910.843000", "130912.843000", "130914.842000", "130916.843000", "130918.843000", "130920.841000", "130922.843000", "130924.843000", "130926.842000", "130928.842000", "130930.843000", "130932.842000", "130934.842000", "130936.842000", "130938.841000", "130940.842000", "130942.409000"],
      "InstanceNumber": [1, 2, 3, 4, 5, 6, 7, 8, 9, 10, 11, 12, 13, 14, 15, 16, 17, 18, 19, 20, 21, 22, 23, 24, 25, 26, 27, 28, 29, 30, 31, 32, 33, 34, 35, 36, 37, 38, 39, 40, 41, 42, 43, 44, 45, 46, 47, 48, 49, 50, 51, 52, 53, 54, 55, 56, 57, 58, 59, 60, 61, 62, 63, 64, 65, 66, 67, 68, 69, 70, 71, 72, 73, 74, 75, 76, 77, 78, 79, 80, 81, 82, 83, 84, 85, 86, 87, 88, 89, 90, 91, 92, 93, 94, 95, 96, 97, 98, 99, 100, 101, 102, 103, 104, 105, 106, 107, 108, 109, 110, 111, 112, 113, 114, 115, 116, 117, 118, 119, 120, 121, 122, 123, 124, 125, 126, 127, 128, 129, 130, 131, 132, 133, 134, 135, 136, 137, 138, 139, 140, 141, 142, 143, 144, 145, 146, 147, 148, 149, 150, 151, 152, 153, 154, 155, 156, 157, 158, 159, 160, 161, 162, 163, 164, 165, 166, 167, 168, 169, 170, 171, 172, 173, 174, 175, 176, 177, 178, 179, 180, 181, 182, 183, 184, 185, 186, 187, 188, 189, 190, 191, 192, 193, 194, 195, 196, 197, 198, 199, 200, 201, 202, 203, 204, 205, 206, 207, 208, 209, 210, 211, 212, 213, 214, 215, 216, 217, 218, 219, 220, 221, 222, 223, 224, 225, 226, 227, 228, 229, 230, 231, 232],
      "LargestImagePixelValue": [3382, 3320, 3279, 3311, 3289, 3261, 3260, 3282, 3259, 3305, 3282, 3265, 3247, 3258, 3257, 3264, 3240, 3258, 3273, 3292, 3277, 3256, 3240, 3295, 3256, 3268, 3249, 3252, 3246, 3297, 3263, 3257, 3289, 3262, 3229, 3246, 3239, 3250, 3279, 3288, 3260, 3246, 3326, 3275, 3259, 3214, 3278, 3241, 3244, 3200, 3230, 3240, 3276, 3261, 3252, 3254, 3267, 3270, 3261, 3260, 3291, 3303, 3288, 3296, 3287, 3288, 3311, 3277, 3299, 3245, 3268, 3295, 3298, 3240, 3259, 3241, 3229, 3220, 3253, 3241, 3267, 3271, 3266, 3247, 3292, 3243, 3286, 3305, 3283, 3250, 3269, 3274, 3244, 3235, 3235, 3262, 3284, 3293, 3304, 3294, 3243, 3251, 3248, 3256, 3240, 3261, 3244, 3250, 3335, 3657, 3388, 3255, 3433, 3224, 3201, 3198, 3222, 3224, 3235, 3291, 3289, 3434, 3321, 3262, 3391, 3249, 3315, 3309, 3269, 3184, 3171, 3208, 3223, 3274, 3255, 3280, 3279, 3210, 3195, 3186, 3208, 3241, 3265, 3243, 3235, 3235, 3235, 3228, 3260, 3261, 3239, 3230, 3218, 3267, 3262, 3261, 3252, 3270, 3293, 3263, 3276, 3268, 3269, 3287, 3271, 3260, 3259, 3278, 3265, 3238, 3238, 3254, 3258, 3274, 3256, 3278, 3274, 3274, 3246, 3290, 3309, 3261, 3262, 3240, 3268, 3299, 3263, 3266, 3355, 3268, 3350, 3280, 3204, 3278, 3217, 3226, 3238, 3234, 3230, 3242, 3248, 3292, 3247, 3240, 3255, 3243, 3251, 3282, 3232, 3259, 3257, 3249, 3220, 3233, 3230, 3252, 3278, 3276, 3260, 3268, 3209, 3214, 3254, 3270, 3262, 3244, 3265, 3232, 3280, 3285, 3312, 3284],
      "WindowCenter": [784.0, 782.0, 781.0, 781.0, 782.0, 782.0, 781.0, 781.0, 781.0, 782.0, 782.0, 782.0, 781.0, 782.0, 781.0, 781.0, 781.0, 781.0, 780.0, 781.0, 781.0, 781.0, 781.0, 782.0, 782.0, 781.0, 781.0, 781.0, 780.0, 779.0, 779.0, 780.0, 781.0, 783.0, 784.0, 784.0, 782.0, 781.0, 780.0, 780.0, 780.0, 777.0, 782.0, 777.0, 783.0, 781.0, 781.0, 781.0, 782.0, 781.0, 782.0, 782.0, 782.0, 782.0, 782.0, 781.0, 782.0, 782.0, 783.0, 784.0, 783.0, 781.0, 780.0, 780.0, 781.0, 781.0, 781.0, 782.0, 784.0, 783.0, 783.0, 782.0, 781.0, 782.0, 783.0, 783.0, 783.0, 782.0, 782.0, 781.0, 781.0, 781.0, 782.0, 781.0, 780.0, 779.0, 779.0, 779.0, 780.0, 782.0, 784.0, 784.0, 783.0, 782.0, 782.0, 782.0, 783.0, 782.0, 783.0, 782.0, 782.0, 783.0, 781.0, 782.0, 781.0, 778.0, 783.0, 778.0, 780.0, 784.0, 778.0, 776.0, 784.0, 781.0, 782.0, 784.0, 785.0, 783.0, 779.0, 777.0, 778.0, 779.0, 779.0, 780.0, 782.0, 778.0, 778.0, 780.0, 780.0, 780.0, 782.0, 782.0, 782.0, 782.0, 781.0, 780.0, 782.0, 783.0, 784.0, 784.0, 784.0, 785.0, 785.0, 785.0, 784.0, 785.0, 785.0, 784.0, 783.0, 782.0, 782.0, 782.0, 783.0, 783.0, 784.0, 785.0, 784.0, 784.0, 785.0, 783.0, 784.0, 785.0, 785.0, 785.0, 784.0, 784.0, 784.0, 784.0, 784.0, 786.0, 788.0, 788.0, 787.0, 786.0, 784.0, 784.0, 784.0, 784.0, 784.0, 784.0, 782.0, 782.0, 782.0, 780.0, 783.0, 783.0, 785.0, 780.0, 786.0, 782.0, 785.0, 782.0, 785.0, 786.0, 785.0, 785.0, 784.0, 784.0, 785.0, 784.0, 784.0, 783.0, 783.0, 783.0, 783.0, 781.0, 782.0, 783.0, 784.0, 785.0, 784.0, 783.0, 783.0, 783.0, 783.0, 783.0, 783.0, 783.0, 784.0, 785.0, 784.0, 784.0, 783.0, 783.0, 783.0, 783.0, 784.0, 785.0, 784.0, 783.0, 782.0, 782.0],
      "WindowWidth": [1673.0, 1667.0, 1665.0, 1666.0, 1668.0, 1669.0, 1667.0, 1664.0, 1666.0, 1667.0, 1667.0, 1668.0, 1666.0, 1667.0, 1666.0, 1666.0, 1665.0, 1664.0, 1663.0, 1665.0, 1666.0, 1667.0, 1666.0, 1668.0, 1668.0, 1666.0, 1665.0, 1666.0, 1663.0, 1661.0, 1661.0, 1662.0, 1667.0, 1670.0, 1673.0, 1673.0, 1669.0, 1666.0, 1663.0, 1662.0, 1662.0, 1657.0, 1669.0, 1657.0, 1670.0, 1666.0, 1667.0, 1666.0, 1669.0, 1666.0, 1668.0, 1668.0, 1669.0, 1668.0, 1667.0, 1666.0, 1668.0, 1667.0, 1670.0, 1672.0, 1671.0, 1666.0, 1663.0, 1663.0, 1664.0, 1664.0, 1665.0, 1667.0, 1673.0, 1672.0, 1670.0, 1668.0, 1666.0, 1667.0, 1669.0, 1670.0, 1670.0, 1668.0, 1667.0, 1666.0, 1666.0, 1665.0, 1668.0, 1665.0, 1664.0, 1661.0, 1660.0, 1661.0, 1664.0, 1669.0, 1672.0, 1672.0, 1670.0, 1669.0, 1668.0, 1669.0, 1669.0, 1668.0, 1670.0, 1669.0, 1668.0, 1670.0, 1666.0, 1668.0, 1666.0, 1658.0, 1671.0, 1659.0, 1663.0, 1674.0, 1659.0, 1653.0, 1673.0, 1664.0, 1668.0, 1673.0, 1676.0, 1669.0, 1660.0, 1656.0, 1657.0, 1660.0, 1661.0, 1663.0, 1668.0, 1659.0, 1659.0, 1662.0, 1664.0, 1662.0, 1668.0, 1668.0, 1668.0, 1668.0, 1666.0, 1662.0, 1667.0, 1670.0, 1673.0, 1673.0, 1674.0, 1676.0, 1675.0, 1675.0, 1674.0, 1674.0, 1675.0, 1672.0, 1671.0, 1668.0, 1668.0, 1667.0, 1670.0, 1671.0, 1673.0, 1675.0, 1673.0, 1673.0, 1674.0, 1671.0, 1674.0, 1676.0, 1674.0, 1674.0, 1673.0, 1672.0, 1672.0, 1673.0, 1674.0, 1679.0, 1683.0, 1684.0, 1680.0, 1676.0, 1672.0, 1672.0, 1672.0, 1673.0, 1672.0, 1671.0, 1669.0, 1669.0, 1667.0, 1664.0, 1669.0, 1670.0, 1677.0, 1664.0, 1678.0, 1668.0, 1675.0, 1669.0, 1676.0, 1678.0, 1676.0, 1675.0, 1673.0, 1674.0, 1675.0, 1674.0, 1671.0, 1671.0, 1669.0, 1671.0, 1669.0, 1665.0, 1667.0, 1669.0, 1673.0, 1674.0, 1671.0, 1670.0, 1670.0, 1671.0, 1670.0, 1672.0, 1671.0, 1671.0, 1672.0, 1674.0, 1673.0, 1672.0, 1670.0, 1670.0, 1671.0, 1670.0, 1673.0, 1674.0, 1673.0, 1669.0, 1667.0, 1666.0]
    },
    "slices": {}
  }
}