{
  "AcquisitionMatrixPE": 100,
  "AcquisitionNumber": 1,
  "AcquisitionTime": "11:54:6.365000",
  "BandwidthPerPixelPhaseEncode": 18.519,
  "BaseResolution": 100,
  "BodyPartExamined": "BRAIN",
  "ConsistencyInfo": "N4_VE11C_LATEST_20160120",
  "ConversionSoftware": "dcm2niix",
  "ConversionSoftwareVersion": "v1.0.20180622 GCC4.9.2",
  "DerivedVendorReportedEchoSpacing": 0.000539986,
  "DeviceSerialNumber": "166078",
  "DwellTime": 2.1e-06,
  "EchoTime": 0.034,
  "EchoTrainLength": 100,
  "EffectiveEchoSpacing": 0.000539986,
  "FlipAngle": 90,
  "ImageOrientationPatientDICOM": [1, 0, 0, 0, 0.989526, -0.144356],
  "ImageType": [
    "ORIGINAL",
    "PRIMARY",
    "M",
    "ND",
    "MOSAIC"
],
  "InPlanePhaseEncodingDirectionDICOM": "COL",
  "InstitutionAddress": "Street_StreetNo_Bei_Jing_District_CN_ZIP",
  "InstitutionName": "BeiJing_Normal_University",
  "InstitutionalDepartmentName": "Department",
  "MRAcquisitionType": "2D",
  "MagneticFieldStrength": 3,
  "Manufacturer": "Siemens",
  "ManufacturersModelName": "Prisma",
  "Modality": "MR",
  "MultibandAccelerationFactor": 3,
  "PartialFourier": 1,
  "PatientPosition": "HFS",
  "PercentPhaseFOV": 100,
  "PhaseEncodingDirection": "j-",
  "PhaseEncodingSteps": 100,
  "PhaseResolution": 1,
  "PixelBandwidth": 2380,
  "ProcedureStepDescription": "BNU_P2018_64CH_Liu.Jia",
  "ProtocolName": "bold_100x100_s3_2x2x2_232",
  "PulseSequenceDetails": "%SiemensSeq%_ep2d_bold",
  "ReceiveCoilActiveElements": "HC1-7;NC1",
  "ReceiveCoilName": "HeadNeck_64",
  "ReconMatrixPE": 100,
  "RepetitionTime": 2,
  "SAR": 0.0787864,
  "ScanOptions": "FS",
  "ScanningSequence": "EP",
  "SequenceName": "_epfid2d1_100",
  "SequenceVariant": "SK",
  "SeriesDescription": "bold_100x100_s3_2x2x2_232",
  "SeriesNumber": 8,
  "ShimSetting": [-5460, -11497, -1271, 390, -29, -193, -106, 17],
  "SliceThickness": 2,
  "SliceTiming": [1.485, 0, 0.99, 0.0825, 1.0725, 0.165, 1.155, 0.2475, 1.2375, 0.33, 1.32, 0.4125, 1.4025, 0.5775, 1.5675, 0.66, 1.65, 0.7425, 1.7325, 0.825, 1.815, 0.9075, 1.8975, 0.495, 1.485, 0, 0.99, 0.0825, 1.0725, 0.165, 1.155, 0.2475, 1.2375, 0.33, 1.32, 0.4125, 1.4025, 0.5775, 1.5675, 0.66, 1.65, 0.7425, 1.7325, 0.825, 1.815, 0.9075, 1.8975, 0.495, 1.485, 0, 0.99, 0.0825, 1.0725, 0.165, 1.155, 0.2475, 1.2375, 0.33, 1.32, 0.4125, 1.4025, 0.5775, 1.5675, 0.66, 1.65, 0.7425, 1.7325, 0.825, 1.815, 0.9075, 1.8975, 0.495],
  "SoftwareVersions": "syngo_MR_E11",
  "SpacingBetweenSlices": 2,
  "StationName": "AWP166078",
  "TaskName": "motor",
  "TotalReadoutTime": 0.0534586,
  "TxRefAmp": 221.584,
  "dcmmeta_affine": [
    [-2.0, 0.0, 0.0, 100.0],
    [0.0, 1.9790515899658203, -0.28871238231658936, -78.57483673095703],
    [0.0, 0.28871238231658936, 1.9790515899658203, -85.02010345458984],
    [0.0, 0.0, 0.0, 1.0]
],
  "dcmmeta_reorient_transform": [
    [0.0, -1.0, 0.0, 99.0],
    [1.0, 0.0, 0.0, 0.0],
    [0.0, 0.0, 1.0, 0.0],
    [0.0, 0.0, 0.0, 1.0]
],
  "dcmmeta_shape": [100, 100, 72, 232],
  "dcmmeta_slice_dim": 2,
  "dcmmeta_version": 0.6,
  "global": {
    "const": {
      "AcquisitionMatrix": [100, 0, 0, 100],
      "AngioFlag": "N",
      "BitsAllocated": 16,
      "BitsStored": 12,
      "BodyPartExamined": "BRAIN",
      "Columns": 900,
      "EchoNumbers": 1,
      "EchoTime": 34.0,
      "EchoTrainLength": 100,
      "FlipAngle": 90.0,
      "HighBit": 11,
      "ImageOrientationPatient": [1.0, 0.0, 0.0, 0.0, 0.98952579014058, -0.1443561936554],
      "ImagePositionPatient": [-900.0, -908.97189848919, 59.047374826951],
      "ImageType": [
        "ORIGINAL",
        "PRIMARY",
        "M",
        "ND",
        "MOSAIC"
],
      "ImagedNucleus": "1H",
      "ImagingFrequency": 123.257825,
      "InPlanePhaseEncodingDirection": "COL",
      "MRAcquisitionType": "2D",
      "MagneticFieldStrength": 3.0,
      "Manufacturer": "SIEMENS",
      "ManufacturerModelName": "Prisma",
      "Modality": "MR",
      "NumberOfAverages": 1.0,
      "NumberOfPhaseEncodingSteps": 100,
      "PercentPhaseFieldOfView": 100.0,
      "PercentSampling": 100.0,
      "PerformedProcedureStepStartTime": "112242.400000",
      "PhotometricInterpretation": "MONOCHROME2",
      "PixelBandwidth": 2380.0,
      "PixelRepresentation": 0,
      "PixelSpacing": [2.0, 2.0],
      "ProtocolName": "bold_100x100_s3_2x2x2_232",
      "RepetitionTime": 2000.0,
      "Rows": 900,
      "SAR": 0.07878641696396,
      "SamplesPerPixel": 1,
      "ScanOptions": "FS",
      "ScanningSequence": "EP",
      "SequenceName": "*epfid2d1_100",
      "SequenceVariant": "SK",
      "SeriesDescription": "bold_100x100_s3_2x2x2_232",
      "SeriesNumber": 8,
      "SeriesTime": "115408.632000",
      "SliceLocation": -72.786823174238,
      "SliceThickness": 2.0,
      "SmallestImagePixelValue": 0,
      "SoftwareVersions": "syngo MR E11",
      "SpacingBetweenSlices": 2.0000000371416,
      "SpecificCharacterSet": "ISO_IR 100",
      "StudyID": "1",
      "StudyTime": "112242.348000",
      "TransmitCoilName": "Body",
      "VariableFlipAngleFlag": "N",
      "WindowCenterWidthExplanation": "Algo1",
      "dBdt": 0.0},
    "slices": {}
  },
  "time": {
    "samples": {
      "AcquisitionNumber": [1, 2, 3, 4, 5, 6, 7, 8, 9, 10, 11, 12, 13, 14, 15, 16, 17, 18, 19, 20, 21, 22, 23, 24, 25, 26, 27, 28, 29, 30, 31, 32, 33, 34, 35, 36, 37, 38, 39, 40, 41, 42, 43, 44, 45, 46, 47, 48, 49, 50, 51, 52, 53, 54, 55, 56, 57, 58, 59, 60, 61, 62, 63, 64, 65, 66, 67, 68, 69, 70, 71, 72, 73, 74, 75, 76, 77, 78, 79, 80, 81, 82, 83, 84, 85, 86, 87, 88, 89, 90, 91, 92, 93, 94, 95, 96, 97, 98, 99, 100, 101, 102, 103, 104, 105, 106, 107, 108, 109, 110, 111, 112, 113, 114, 115, 116, 117, 118, 119, 120, 121, 122, 123, 124, 125, 126, 127, 128, 129, 130, 131, 132, 133, 134, 135, 136, 137, 138, 139, 140, 141, 142, 143, 144, 145, 146, 147, 148, 149, 150, 151, 152, 153, 154, 155, 156, 157, 158, 159, 160, 161, 162, 163, 164, 165, 166, 167, 168, 169, 170, 171, 172, 173, 174, 175, 176, 177, 178, 179, 180, 181, 182, 183, 184, 185, 186, 187, 188, 189, 190, 191, 192, 193, 194, 195, 196, 197, 198, 199, 200, 201, 202, 203, 204, 205, 206, 207, 208, 209, 210, 211, 212, 213, 214, 215, 216, 217, 218, 219, 220, 221, 222, 223, 224, 225, 226, 227, 228, 229, 230, 231, 232],
      "AcquisitionTime": ["115406.365000", "115408.365000", "115410.365000", "115412.365000", "115414.365000", "115416.365000", "115418.365000", "115420.365000", "115422.365000", "115424.365000", "115426.365000", "115428.365000", "115430.365000", "115432.365000", "115434.365000", "115436.365000", "115438.365000", "115440.365000", "115442.365000", "115444.365000", "115446.365000", "115448.365000", "115450.365000", "115452.365000", "115454.365000", "115456.365000", "115458.365000", "115500.365000", "115502.365000", "115504.365000", "115506.365000", "115508.365000", "115510.365000", "115512.365000", "115514.365000", "115516.365000", "115518.365000", "115520.365000", "115522.365000", "115524.365000", "115526.365000", "115528.365000", "115530.365000", "115532.365000", "115534.365000", "115536.365000", "115538.365000", "115540.365000", "115542.365000", "115544.365000", "115546.365000", "115548.365000", "115550.365000", "115552.365000", "115554.365000", "115556.365000", "115558.365000", "115600.365000", "115602.365000", "115604.365000", "115606.365000", "115608.365000", "115610.365000", "115612.365000", "115614.365000", "115616.365000", "115618.365000", "115620.365000", "115622.365000", "115624.365000", "115626.365000", "115628.365000", "115630.365000", "115632.365000", "115634.365000", "115636.365000", "115638.365000", "115640.365000", "115642.365000", "115644.365000", "115646.365000", "115648.365000", "115650.365000", "115652.365000", "115654.365000", "115656.365000", "115658.365000", "115700.365000", "115702.365000", "115704.365000", "115706.365000", "115708.365000", "115710.365000", "115712.365000", "115714.365000", "115716.365000", "115718.365000", "115720.365000", "115722.365000", "115724.365000", "115726.365000", "115728.365000", "115730.365000", "115732.365000", "115734.365000", "115736.365000", "115738.365000", "115740.365000", "115742.365000", "115744.365000", "115746.365000", "115748.365000", "115750.365000", "115752.365000", "115754.365000", "115756.365000", "115758.365000", "115800.365000", "115802.365000", "115804.365000", "115806.365000", "115808.365000", "115810.365000", "115812.365000", "115814.365000", "115816.365000", "115818.365000", "115820.365000", "115822.365000", "115824.365000", "115826.365000", "115828.365000", "115830.365000", "115832.365000", "115834.365000", "115836.365000", "115838.365000", "115840.365000", "115842.365000", "115844.365000", "115846.365000", "115848.365000", "115850.365000", "115852.365000", "115854.365000", "115856.365000", "115858.365000", "115900.365000", "115902.365000", "115904.365000", "115906.365000", "115908.365000", "115910.365000", "115912.365000", "115914.365000", "115916.365000", "115918.365000", "115920.365000", "115922.365000", "115924.365000", "115926.365000", "115928.365000", "115930.365000", "115932.365000", "115934.365000", "115936.365000", "115938.365000", "115940.365000", "115942.365000", "115944.365000", "115946.365000", "115948.365000", "115950.365000", "115952.365000", "115954.365000", "115956.365000", "115958.365000", "120000.365000", "120002.365000", "120004.365000", "120006.365000", "120008.365000", "120010.365000", "120012.365000", "120014.365000", "120016.365000", "120018.365000", "120020.365000", "120022.365000", "120024.365000", "120026.365000", "120028.365000", "120030.365000", "120032.365000", "120034.365000", "120036.365000", "120038.365000", "120040.365000", "120042.365000", "120044.365000", "120046.365000", "120048.365000", "120050.365000", "120052.365000", "120054.365000", "120056.365000", "120058.365000", "120100.365000", "120102.365000", "120104.365000", "120106.365000", "120108.365000", "120110.365000", "120112.365000", "120114.365000", "120116.365000", "120118.365000", "120120.365000", "120122.365000", "120124.365000", "120126.365000", "120128.365000", "120130.365000", "120132.365000", "120134.365000", "120136.365000", "120138.365000", "120140.365000", "120142.365000", "120144.365000", "120146.365000", "120148.365000"],
      "ContentTime": ["115408.636000", "115410.131000", "115412.132000", "115414.132000", "115416.133000", "115418.132000", "115420.132000", "115422.132000", "115424.132000", "115426.131000", "115428.131000", "115430.132000", "115432.133000", "115434.132000", "115436.133000", "115438.132000", "115440.131000", "115442.131000", "115444.131000", "115446.132000", "115448.132000", "115450.132000", "115452.132000", "115454.132000", "115456.132000", "115458.131000", "115500.131000", "115502.131000", "115504.133000", "115506.132000", "115508.132000", "115510.133000", "115512.132000", "115514.132000", "115516.131000", "115518.131000", "115520.131000", "115522.132000", "115524.132000", "115526.132000", "115528.132000", "115530.132000", "115532.132000", "115534.132000", "115536.132000", "115538.131000", "115540.133000", "115542.132000", "115544.133000", "115546.133000", "115548.132000", "115550.131000", "115552.131000", "115554.131000", "115556.132000", "115558.132000", "115600.132000", "115602.132000", "115604.133000", "115606.132000", "115608.131000", "115610.131000", "115612.131000", "115614.132000", "115616.133000", "115618.133000", "115620.133000", "115622.132000", "115624.133000", "115626.131000", "115628.131000", "115630.131000", "115632.132000", "115634.133000", "115636.133000", "115638.132000", "115640.133000", "115642.132000", "115644.131000", "115646.132000", "115648.131000", "115650.133000", "115652.133000", "115654.132000", "115656.132000", "115658.132000", "115700.131000", "115702.131000", "115704.131000", "115706.132000", "115708.133000", "115710.132000", "115712.132000", "115714.132000", "115716.132000", "115718.132000", "115720.132000", "115722.131000", "115724.132000", "115726.132000", "115728.132000", "115730.133000", "115732.132000", "115734.132000", "115736.131000", "115738.131000", "115740.131000", "115742.132000", "115744.133000", "115746.132000", "115748.132000", "115750.133000", "115752.132000", "115754.131000", "115756.132000", "115758.132000", "115800.132000", "115802.132000", "115804.132000", "115806.132000", "115808.132000", "115810.131000", "115812.132000", "115814.131000", "115816.133000", "115818.133000", "115820.132000", "115822.133000", "115824.132000", "115826.132000", "115828.131000", "115830.131000", "115832.131000", "115834.133000", "115836.132000", "115838.132000", "115840.132000", "115842.133000", "115844.132000", "115846.131000", "115848.131000", "115850.132000", "115852.132000", "115854.133000", "115856.133000", "115858.132000", "115900.132000", "115902.133000", "115904.132000", "115906.131000", "115908.132000", "115910.132000", "115912.132000", "115914.132000", "115916.133000", "115918.132000", "115920.132000", "115922.131000", "115924.131000", "115926.132000", "115928.133000", "115930.132000", "115932.132000", "115934.133000", "115936.132000", "115938.132000", "115940.131000", "115942.131000", "115944.132000", "115946.132000", "115948.132000", "115950.132000", "115952.132000", "115954.132000", "115956.131000", "115958.131000", "120000.143000", "120002.133000", "120004.133000", "120006.132000", "120008.132000", "120010.132000", "120012.133000", "120014.132000", "120016.131000", "120018.132000", "120020.132000", "120022.132000", "120024.132000", "120026.132000", "120028.132000", "120030.131000", "120032.131000", "120034.131000", "120036.132000", "120038.132000", "120040.133000", "120042.132000", "120044.133000", "120046.132000", "120048.131000", "120050.131000", "120052.132000", "120054.133000", "120056.133000", "120058.133000", "120100.132000", "120102.132000", "120104.133000", "120106.131000", "120108.131000", "120110.132000", "120112.132000", "120114.133000", "120116.132000", "120118.132000", "120120.132000", "120122.132000", "120124.131000", "120126.631000", "120128.132000", "120130.132000", "120132.132000", "120134.132000", "120136.132000", "120138.132000", "120140.132000", "120142.131000", "120144.131000", "120146.133000", "120148.132000", "120150.019000"],
      "InstanceCreationTime": ["115408.636000", "115410.131000", "115412.132000", "115414.132000", "115416.133000", "115418.132000", "115420.132000", "115422.132000", "115424.132000", "115426.131000", "115428.131000", "115430.132000", "115432.133000", "115434.132000", "115436.133000", "115438.132000", "115440.131000", "115442.131000", "115444.131000", "115446.132000", "115448.132000", "115450.132000", "115452.132000", "115454.132000", "115456.132000", "115458.131000", "115500.131000", "115502.131000", "115504.133000", "115506.132000", "115508.132000", "115510.133000", "115512.132000", "115514.132000", "115516.131000", "115518.131000", "115520.131000", "115522.132000", "115524.132000", "115526.132000", "115528.132000", "115530.132000", "115532.132000", "115534.132000", "115536.132000", "115538.131000", "115540.133000", "115542.132000", "115544.133000", "115546.133000", "115548.132000", "115550.131000", "115552.131000", "115554.131000", "115556.132000", "115558.132000", "115600.132000", "115602.132000", "115604.133000", "115606.132000", "115608.131000", "115610.131000", "115612.131000", "115614.132000", "115616.133000", "115618.133000", "115620.133000", "115622.132000", "115624.133000", "115626.131000", "115628.131000", "115630.131000", "115632.132000", "115634.133000", "115636.133000", "115638.132000", "115640.133000", "115642.132000", "115644.131000", "115646.132000", "115648.131000", "115650.133000", "115652.133000", "115654.132000", "115656.132000", "115658.132000", "115700.131000", "115702.131000", "115704.131000", "115706.132000", "115708.133000", "115710.132000", "115712.132000", "115714.132000", "115716.132000", "115718.132000", "115720.132000", "115722.131000", "115724.132000", "115726.132000", "115728.132000", "115730.133000", "115732.132000", "115734.132000", "115736.131000", "115738.131000", "115740.131000", "115742.132000", "115744.133000", "115746.132000", "115748.132000", "115750.133000", "115752.132000", "115754.131000", "115756.132000", "115758.132000", "115800.132000", "115802.132000", "115804.132000", "115806.132000", "115808.132000", "115810.131000", "115812.132000", "115814.131000", "115816.133000", "115818.133000", "115820.132000", "115822.133000", "115824.132000", "115826.132000", "115828.131000", "115830.131000", "115832.131000", "115834.133000", "115836.132000", "115838.132000", "115840.132000", "115842.133000", "115844.132000", "115846.131000", "115848.131000", "115850.132000", "115852.132000", "115854.133000", "115856.133000", "115858.132000", "115900.132000", "115902.133000", "115904.132000", "115906.131000", "115908.132000", "115910.132000", "115912.132000", "115914.132000", "115916.133000", "115918.132000", "115920.132000", "115922.131000", "115924.131000", "115926.132000", "115928.133000", "115930.132000", "115932.132000", "115934.133000", "115936.132000", "115938.132000", "115940.131000", "115942.131000", "115944.132000", "115946.132000", "115948.132000", "115950.132000", "115952.132000", "115954.132000", "115956.131000", "115958.131000", "120000.143000", "120002.133000", "120004.133000", "120006.132000", "120008.132000", "120010.132000", "120012.133000", "120014.132000", "120016.131000", "120018.132000", "120020.132000", "120022.132000", "120024.132000", "120026.132000", "120028.132000", "120030.131000", "120032.131000", "120034.131000", "120036.132000", "120038.132000", "120040.133000", "120042.132000", "120044.133000", "120046.132000", "120048.131000", "120050.131000", "120052.132000", "120054.133000", "120056.133000", "120058.133000", "120100.132000", "120102.132000", "120104.133000", "120106.131000", "120108.131000", "120110.132000", "120112.132000", "120114.133000", "120116.132000", "120118.132000", "120120.132000", "120122.132000", "120124.131000", "120126.631000", "120128.132000", "120130.132000", "120132.132000", "120134.132000", "120136.132000", "120138.132000", "120140.132000", "120142.131000", "120144.131000", "120146.133000", "120148.132000", "120150.019000"],
      "InstanceNumber": [1, 2, 3, 4, 5, 6, 7, 8, 9, 10, 11, 12, 13, 14, 15, 16, 17, 18, 19, 20, 21, 22, 23, 24, 25, 26, 27, 28, 29, 30, 31, 32, 33, 34, 35, 36, 37, 38, 39, 40, 41, 42, 43, 44, 45, 46, 47, 48, 49, 50, 51, 52, 53, 54, 55, 56, 57, 58, 59, 60, 61, 62, 63, 64, 65, 66, 67, 68, 69, 70, 71, 72, 73, 74, 75, 76, 77, 78, 79, 80, 81, 82, 83, 84, 85, 86, 87, 88, 89, 90, 91, 92, 93, 94, 95, 96, 97, 98, 99, 100, 101, 102, 103, 104, 105, 106, 107, 108, 109, 110, 111, 112, 113, 114, 115, 116, 117, 118, 119, 120, 121, 122, 123, 124, 125, 126, 127, 128, 129, 130, 131, 132, 133, 134, 135, 136, 137, 138, 139, 140, 141, 142, 143, 144, 145, 146, 147, 148, 149, 150, 151, 152, 153, 154, 155, 156, 157, 158, 159, 160, 161, 162, 163, 164, 165, 166, 167, 168, 169, 170, 171, 172, 173, 174, 175, 176, 177, 178, 179, 180, 181, 182, 183, 184, 185, 186, 187, 188, 189, 190, 191, 192, 193, 194, 195, 196, 197, 198, 199, 200, 201, 202, 203, 204, 205, 206, 207, 208, 209, 210, 211, 212, 213, 214, 215, 216, 217, 218, 219, 220, 221, 222, 223, 224, 225, 226, 227, 228, 229, 230, 231, 232],
      "LargestImagePixelValue": [3266, 3229, 3179, 3140, 3174, 3160, 3151, 3120, 3210, 3264, 3195, 3132, 3122, 3149, 3169, 3211, 3246, 3227, 3210, 3180, 3218, 3259, 3226, 3269, 3306, 3264, 3291, 3190, 3178, 3200, 3216, 3144, 3167, 3160, 3122, 3164, 3192, 3201, 3185, 3143, 3156, 3133, 3251, 3123, 3118, 3151, 3122, 3420, 3131, 3163, 3147, 3189, 3166, 3163, 3157, 3170, 3171, 3143, 3192, 3218, 3181, 3159, 3198, 3214, 3197, 3130, 3119, 3134, 3156, 3111, 3086, 3116, 3184, 3112, 3124, 3107, 3120, 3232, 3188, 3112, 3116, 3153, 3188, 3177, 3223, 3220, 3231, 3196, 3253, 3252, 3173, 3211, 3202, 3154, 3197, 3196, 3108, 3188, 3140, 3191, 3151, 3164, 3158, 3172, 3193, 3223, 3166, 3206, 3255, 3290, 3309, 3287, 3208, 3277, 3274, 3240, 3141, 3148, 3208, 3187, 3234, 3251, 3246, 3183, 3186, 3274, 3290, 3292, 3252, 3208, 3284, 3281, 3240, 3220, 3231, 3221, 3264, 3242, 3272, 3290, 3322, 3300, 3298, 3214, 3240, 3228, 3258, 3310, 3255, 3261, 3264, 3260, 3238, 3266, 3233, 3240, 3263, 3260, 3221, 3298, 3291, 3264, 3250, 3250, 3332, 3290, 3270, 3254, 3248, 3268, 3303, 3328, 3248, 3268, 3269, 3281, 3262, 3276, 3253, 3259, 3262, 3221, 3313, 3267, 3330, 3296, 3286, 3260, 3233, 3273, 3258, 3279, 3276, 3249, 3255, 3273, 3260, 3264, 3253, 3315, 3269, 3141, 3141, 3171, 3147, 3121, 3222, 3221, 3219, 3158, 3225, 3190, 3222, 3198, 3228, 3222, 3156, 3193, 3189, 3163, 3146, 3169, 3163, 3153, 3135, 3136, 3149, 3159, 3151, 3209, 3199, 3217],
      "WindowCenter": [764.0, 764.0, 763.0, 763.0, 762.0, 762.0, 762.0, 763.0, 764.0, 763.0, 761.0, 760.0, 760.0, 760.0, 761.0, 761.0, 762.0, 762.0, 763.0, 763.0, 764.0, 764.0, 764.0, 764.0, 765.0, 764.0, 764.0, 763.0, 762.0, 763.0, 763.0, 762.0, 763.0, 763.0, 762.0, 762.0, 762.0, 761.0, 761.0, 761.0, 761.0, 760.0, 762.0, 761.0, 762.0, 761.0, 760.0, 763.0, 761.0, 761.0, 761.0, 761.0, 761.0, 761.0, 761.0, 761.0, 762.0, 762.0, 763.0, 764.0, 764.0, 763.0, 763.0, 764.0, 764.0, 762.0, 762.0, 761.0, 760.0, 760.0, 760.0, 760.0, 761.0, 760.0, 759.0, 759.0, 760.0, 761.0, 761.0, 760.0, 760.0, 760.0, 761.0, 762.0, 763.0, 763.0, 764.0, 764.0, 765.0, 765.0, 764.0, 762.0, 761.0, 760.0, 761.0, 762.0, 761.0, 761.0, 760.0, 761.0, 760.0, 761.0, 761.0, 760.0, 760.0, 761.0, 760.0, 760.0, 762.0, 762.0, 762.0, 761.0, 760.0, 761.0, 760.0, 759.0, 757.0, 758.0, 759.0, 760.0, 760.0, 760.0, 759.0, 759.0, 758.0, 759.0, 759.0, 759.0, 759.0, 759.0, 760.0, 762.0, 761.0, 761.0, 762.0, 761.0, 761.0, 760.0, 761.0, 763.0, 763.0, 761.0, 760.0, 759.0, 760.0, 761.0, 762.0, 761.0, 760.0, 761.0, 761.0, 760.0, 759.0, 759.0, 759.0, 760.0, 760.0, 759.0, 759.0, 760.0, 760.0, 759.0, 760.0, 760.0, 761.0, 760.0, 759.0, 759.0, 760.0, 761.0, 761.0, 761.0, 760.0, 761.0, 761.0, 761.0, 760.0, 760.0, 760.0, 760.0, 760.0, 759.0, 760.0, 761.0, 761.0, 761.0, 760.0, 760.0, 760.0, 760.0, 759.0, 759.0, 759.0, 759.0, 759.0, 760.0, 760.0, 760.0, 760.0, 760.0, 760.0, 760.0, 760.0, 760.0, 760.0, 759.0, 760.0, 760.0, 760.0, 760.0, 760.0, 760.0, 761.0, 762.0, 763.0, 763.0, 763.0, 764.0, 764.0, 764.0, 763.0, 761.0, 760.0, 760.0, 760.0, 760.0, 759.0, 759.0, 759.0, 760.0, 761.0, 762.0],
      "WindowWidth": [1651.0, 1648.0, 1646.0, 1644.0, 1644.0, 1644.0, 1643.0, 1646.0, 1648.0, 1646.0, 1642.0, 1639.0, 1638.0, 1639.0, 1640.0, 1641.0, 1643.0, 1645.0, 1646.0, 1646.0, 1648.0, 1648.0, 1648.0, 1649.0, 1651.0, 1649.0, 1648.0, 1646.0, 1644.0, 1646.0, 1645.0, 1642.0, 1644.0, 1646.0, 1644.0, 1644.0, 1644.0, 1641.0, 1640.0, 1640.0, 1640.0, 1637.0, 1643.0, 1641.0, 1642.0, 1641.0, 1638.0, 1646.0, 1640.0, 1641.0, 1640.0, 1640.0, 1639.0, 1639.0, 1641.0, 1641.0, 1643.0, 1643.0, 1646.0, 1647.0, 1647.0, 1646.0, 1647.0, 1649.0, 1648.0, 1644.0, 1642.0, 1641.0, 1639.0, 1637.0, 1637.0, 1638.0, 1639.0, 1637.0, 1636.0, 1636.0, 1638.0, 1640.0, 1640.0, 1637.0, 1637.0, 1638.0, 1640.0, 1642.0, 1645.0, 1646.0, 1647.0, 1649.0, 1650.0, 1650.0, 1647.0, 1644.0, 1641.0, 1639.0, 1640.0, 1642.0, 1641.0, 1641.0, 1639.0, 1640.0, 1638.0, 1640.0, 1639.0, 1638.0, 1638.0, 1639.0, 1637.0, 1638.0, 1641.0, 1643.0, 1642.0, 1639.0, 1638.0, 1638.0, 1637.0, 1634.0, 1630.0, 1632.0, 1634.0, 1636.0, 1637.0, 1637.0, 1634.0, 1634.0, 1633.0, 1634.0, 1634.0, 1634.0, 1634.0, 1634.0, 1638.0, 1642.0, 1640.0, 1640.0, 1642.0, 1641.0, 1639.0, 1636.0, 1639.0, 1644.0, 1645.0, 1640.0, 1636.0, 1635.0, 1638.0, 1640.0, 1641.0, 1639.0, 1637.0, 1639.0, 1639.0, 1637.0, 1633.0, 1635.0, 1635.0, 1636.0, 1637.0, 1635.0, 1635.0, 1636.0, 1636.0, 1633.0, 1635.0, 1637.0, 1638.0, 1637.0, 1634.0, 1633.0, 1636.0, 1639.0, 1639.0, 1639.0, 1637.0, 1639.0, 1639.0, 1640.0, 1638.0, 1638.0, 1638.0, 1636.0, 1636.0, 1633.0, 1637.0, 1638.0, 1641.0, 1639.0, 1638.0, 1637.0, 1636.0, 1636.0, 1635.0, 1634.0, 1635.0, 1635.0, 1635.0, 1637.0, 1636.0, 1636.0, 1636.0, 1637.0, 1638.0, 1637.0, 1636.0, 1637.0, 1638.0, 1636.0, 1638.0, 1637.0, 1637.0, 1636.0, 1638.0, 1638.0, 1640.0, 1642.0, 1644.0, 1646.0, 1646.0, 1648.0, 1647.0, 1647.0, 1644.0, 1640.0, 1636.0, 1638.0, 1637.0, 1637.0, 1635.0, 1635.0, 1635.0, 1637.0, 1640.0, 1641.0]
    },
    "slices": {}
  }
}