{
  "AcquisitionMatrixPE": 100,
  "AcquisitionNumber": 1,
  "AcquisitionTime": "09:52:40.825000",
  "BandwidthPerPixelPhaseEncode": 18.519,
  "BaseResolution": 100,
  "BodyPartExamined": "BRAIN",
  "ConsistencyInfo": "N4_VE11C_LATEST_20160120",
  "ConversionSoftware": "dcm2niix",
  "ConversionSoftwareVersion": "v1.0.20180622 GCC4.9.2",
  "DerivedVendorReportedEchoSpacing": 0.000539986,
  "DeviceSerialNumber": "166078",
  "DwellTime": 2.1e-06,
  "EchoTime": 0.034,
  "EchoTrainLength": 100,
  "EffectiveEchoSpacing": 0.000539986,
  "FlipAngle": 90,
  "ImageOrientationPatientDICOM": [0.995651, 0.0856847, 0.0365798, -0.0643858, 0.916606, -0.394573],
  "ImageType": [
    "ORIGINAL",
    "PRIMARY",
    "M",
    "ND",
    "MOSAIC"
],
  "InPlanePhaseEncodingDirectionDICOM": "COL",
  "InstitutionAddress": "Street_StreetNo_Bei_Jing_District_CN_ZIP",
  "InstitutionName": "BeiJing_Normal_University",
  "InstitutionalDepartmentName": "Department",
  "MRAcquisitionType": "2D",
  "MagneticFieldStrength": 3,
  "Manufacturer": "Siemens",
  "ManufacturersModelName": "Prisma",
  "Modality": "MR",
  "MultibandAccelerationFactor": 3,
  "PartialFourier": 1,
  "PatientPosition": "HFS",
  "PercentPhaseFOV": 100,
  "PhaseEncodingDirection": "j-",
  "PhaseEncodingSteps": 100,
  "PhaseResolution": 1,
  "PixelBandwidth": 2380,
  "ProcedureStepDescription": "BNU_P2018_64CH_Liu.Jia",
  "ProtocolName": "bold_100x100_s3_2x2x2_232",
  "PulseSequenceDetails": "%SiemensSeq%_ep2d_bold",
  "ReceiveCoilActiveElements": "HC1-7;NC1",
  "ReceiveCoilName": "HeadNeck_64",
  "ReconMatrixPE": 100,
  "RepetitionTime": 2,
  "SAR": 0.0637031,
  "ScanOptions": "FS",
  "ScanningSequence": "EP",
  "SequenceName": "_epfid2d1_100",
  "SequenceVariant": "SK",
  "SeriesDescription": "bold_100x100_s3_2x2x2_232",
  "SeriesNumber": 8,
  "ShimSetting": [-5442, -11491, -1248, 370, 11, -235, -204, 4],
  "SliceThickness": 2,
  "SliceTiming": [1.485, 0, 0.99, 0.0825, 1.0725, 0.165, 1.155, 0.2475, 1.2375, 0.33, 1.32, 0.4125, 1.4025, 0.5775, 1.5675, 0.66, 1.65, 0.7425, 1.7325, 0.825, 1.815, 0.9075, 1.8975, 0.495, 1.485, 0, 0.99, 0.0825, 1.0725, 0.165, 1.155, 0.2475, 1.2375, 0.33, 1.32, 0.4125, 1.4025, 0.5775, 1.5675, 0.66, 1.65, 0.7425, 1.7325, 0.825, 1.815, 0.9075, 1.8975, 0.495, 1.485, 0, 0.99, 0.0825, 1.0725, 0.165, 1.155, 0.2475, 1.2375, 0.33, 1.32, 0.4125, 1.4025, 0.5775, 1.5675, 0.66, 1.65, 0.7425, 1.7325, 0.825, 1.815, 0.9075, 1.8975, 0.495],
  "SoftwareVersions": "syngo_MR_E11",
  "SpacingBetweenSlices": 2,
  "StationName": "AWP166078",
  "TaskName": "motor",
  "TotalReadoutTime": 0.0534586,
  "TxRefAmp": 217.447,
  "dcmmeta_affine": [
    [-1.99130117893219, -0.12877154350280762, 0.13467636704444885, 101.9794692993164],
    [-0.17136947810649872, 1.833211898803711, -0.7810035347938538, -45.96924591064453],
    [0.07315963506698608, 0.7891463041305542, 1.8362722396850586, -105.71505737304688],
    [0.0, 0.0, 0.0, 1.0]
],
  "dcmmeta_reorient_transform": [
    [0.0, -1.0, 0.0, 99.0],
    [1.0, 0.0, 0.0, 0.0],
    [0.0, 0.0, 1.0, 0.0],
    [0.0, 0.0, 0.0, 1.0]
],
  "dcmmeta_shape": [100, 100, 72, 232],
  "dcmmeta_slice_dim": 2,
  "dcmmeta_version": 0.6,
  "global": {
    "const": {
      "AcquisitionMatrix": [100, 0, 0, 100],
      "AngioFlag": "N",
      "BitsAllocated": 16,
      "BitsStored": 12,
      "BodyPartExamined": "BRAIN",
      "Columns": 900,
      "EchoNumbers": 1,
      "EchoTime": 34.0,
      "EchoTrainLength": 100,
      "FlipAngle": 90.0,
      "HighBit": 11,
      "ImageOrientationPatient": [0.9956505621638, 0.08568474136823, 0.03657981902054, -0.0643857727043, 0.91660596769175, -0.3945731519822],
      "ImagePositionPatient": [-834.24292167194, -937.35130337615, 258.80509509394],
      "ImageType": [
        "ORIGINAL",
        "PRIMARY",
        "M",
        "ND",
        "MOSAIC"
],
      "ImagedNucleus": "1H",
      "ImagingFrequency": 123.257863,
      "InPlanePhaseEncodingDirection": "COL",
      "MRAcquisitionType": "2D",
      "MagneticFieldStrength": 3.0,
      "Manufacturer": "SIEMENS",
      "ManufacturerModelName": "Prisma",
      "Modality": "MR",
      "NumberOfAverages": 1.0,
      "NumberOfPhaseEncodingSteps": 100,
      "PercentPhaseFieldOfView": 100.0,
      "PercentSampling": 100.0,
      "PerformedProcedureStepStartTime": "090027.078000",
      "PhotometricInterpretation": "MONOCHROME2",
      "PixelBandwidth": 2380.0,
      "PixelRepresentation": 0,
      "PixelSpacing": [2.0, 2.0],
      "ProtocolName": "bold_100x100_s3_2x2x2_232",
      "RepetitionTime": 2000.0,
      "Rows": 900,
      "SAR": 0.06370307327209,
      "SamplesPerPixel": 1,
      "ScanOptions": "FS",
      "ScanningSequence": "EP",
      "SequenceName": "*epfid2d1_100",
      "SequenceVariant": "SK",
      "SeriesDescription": "bold_100x100_s3_2x2x2_232",
      "SeriesNumber": 8,
      "SeriesTime": "095243.410000",
      "SliceLocation": -72.242628023597,
      "SliceThickness": 2.0,
      "SmallestImagePixelValue": 0,
      "SoftwareVersions": "syngo MR E11",
      "SpacingBetweenSlices": 2.0000000392497,
      "SpecificCharacterSet": "ISO_IR 100",
      "StudyID": "1",
      "StudyTime": "090026.954000",
      "TransmitCoilName": "Body",
      "VariableFlipAngleFlag": "N",
      "WindowCenterWidthExplanation": "Algo1",
      "dBdt": 0.0},
    "slices": {}
  },
  "time": {
    "samples": {
      "AcquisitionNumber": [1, 2, 3, 4, 5, 6, 7, 8, 9, 10, 11, 12, 13, 14, 15, 16, 17, 18, 19, 20, 21, 22, 23, 24, 25, 26, 27, 28, 29, 30, 31, 32, 33, 34, 35, 36, 37, 38, 39, 40, 41, 42, 43, 44, 45, 46, 47, 48, 49, 50, 51, 52, 53, 54, 55, 56, 57, 58, 59, 60, 61, 62, 63, 64, 65, 66, 67, 68, 69, 70, 71, 72, 73, 74, 75, 76, 77, 78, 79, 80, 81, 82, 83, 84, 85, 86, 87, 88, 89, 90, 91, 92, 93, 94, 95, 96, 97, 98, 99, 100, 101, 102, 103, 104, 105, 106, 107, 108, 109, 110, 111, 112, 113, 114, 115, 116, 117, 118, 119, 120, 121, 122, 123, 124, 125, 126, 127, 128, 129, 130, 131, 132, 133, 134, 135, 136, 137, 138, 139, 140, 141, 142, 143, 144, 145, 146, 147, 148, 149, 150, 151, 152, 153, 154, 155, 156, 157, 158, 159, 160, 161, 162, 163, 164, 165, 166, 167, 168, 169, 170, 171, 172, 173, 174, 175, 176, 177, 178, 179, 180, 181, 182, 183, 184, 185, 186, 187, 188, 189, 190, 191, 192, 193, 194, 195, 196, 197, 198, 199, 200, 201, 202, 203, 204, 205, 206, 207, 208, 209, 210, 211, 212, 213, 214, 215, 216, 217, 218, 219, 220, 221, 222, 223, 224, 225, 226, 227, 228, 229, 230, 231, 232],
      "AcquisitionTime": ["095240.825000", "095242.825000", "095244.825000", "095246.825000", "095248.825000", "095250.825000", "095252.825000", "095254.825000", "095256.825000", "095258.825000", "095300.825000", "095302.825000", "095304.825000", "095306.825000", "095308.825000", "095310.825000", "095312.825000", "095314.825000", "095316.825000", "095318.825000", "095320.825000", "095322.825000", "095324.825000", "095326.825000", "095328.825000", "095330.825000", "095332.825000", "095334.825000", "095336.825000", "095338.825000", "095340.825000", "095342.825000", "095344.825000", "095346.825000", "095348.825000", "095350.825000", "095352.825000", "095354.825000", "095356.825000", "095358.825000", "095400.825000", "095402.825000", "095404.825000", "095406.825000", "095408.825000", "095410.825000", "095412.825000", "095414.825000", "095416.825000", "095418.825000", "095420.825000", "095422.825000", "095424.825000", "095426.825000", "095428.825000", "095430.825000", "095432.825000", "095434.825000", "095436.825000", "095438.825000", "095440.825000", "095442.825000", "095444.825000", "095446.825000", "095448.825000", "095450.825000", "095452.825000", "095454.825000", "095456.825000", "095458.825000", "095500.825000", "095502.825000", "095504.825000", "095506.825000", "095508.825000", "095510.825000", "095512.825000", "095514.825000", "095516.825000", "095518.825000", "095520.825000", "095522.825000", "095524.825000", "095526.825000", "095528.825000", "095530.825000", "095532.825000", "095534.825000", "095536.825000", "095538.825000", "095540.825000", "095542.825000", "095544.825000", "095546.825000", "095548.825000", "095550.825000", "095552.825000", "095554.825000", "095556.825000", "095558.825000", "095600.825000", "095602.825000", "095604.825000", "095606.825000", "095608.825000", "095610.825000", "095612.825000", "095614.825000", "095616.825000", "095618.825000", "095620.825000", "095622.825000", "095624.825000", "095626.825000", "095628.825000", "095630.825000", "095632.825000", "095634.825000", "095636.825000", "095638.825000", "095640.825000", "095642.825000", "095644.825000", "095646.825000", "095648.825000", "095650.825000", "095652.825000", "095654.825000", "095656.825000", "095658.825000", "095700.825000", "095702.825000", "095704.825000", "095706.825000", "095708.825000", "095710.825000", "095712.825000", "095714.825000", "095716.825000", "095718.825000", "095720.825000", "095722.825000", "095724.825000", "095726.825000", "095728.825000", "095730.825000", "095732.825000", "095734.825000", "095736.825000", "095738.825000", "095740.825000", "095742.825000", "095744.825000", "095746.825000", "095748.825000", "095750.825000", "095752.825000", "095754.825000", "095756.825000", "095758.825000", "095800.825000", "095802.825000", "095804.825000", "095806.825000", "095808.825000", "095810.825000", "095812.825000", "095814.825000", "095816.825000", "095818.825000", "095820.825000", "095822.825000", "095824.825000", "095826.825000", "095828.825000", "095830.825000", "095832.825000", "095834.825000", "095836.825000", "095838.825000", "095840.825000", "095842.825000", "095844.825000", "095846.825000", "095848.825000", "095850.825000", "095852.825000", "095854.825000", "095856.825000", "095858.825000", "095900.825000", "095902.825000", "095904.825000", "095906.825000", "095908.825000", "095910.825000", "095912.825000", "095914.825000", "095916.825000", "095918.825000", "095920.825000", "095922.825000", "095924.825000", "095926.825000", "095928.825000", "095930.825000", "095932.825000", "095934.825000", "095936.825000", "095938.825000", "095940.825000", "095942.825000", "095944.825000", "095946.825000", "095948.825000", "095950.825000", "095952.825000", "095954.825000", "095956.825000", "095958.825000", "100000.825000", "100002.825000", "100004.825000", "100006.825000", "100008.825000", "100010.825000", "100012.825000", "100014.825000", "100016.825000", "100018.825000", "100020.825000", "100022.825000"],
      "ContentTime": ["095243.413000", "095244.910000", "095246.909000", "095248.909000", "095250.908000", "095252.908000", "095254.908000", "095256.908000", "095258.909000", "095300.910000", "095302.909000", "095304.909000", "095306.909000", "095308.908000", "095310.908000", "095312.909000", "095314.909000", "095316.909000", "095318.909000", "095320.909000", "095322.908000", "095324.909000", "095326.909000", "095328.909000", "095330.908000", "095332.908000", "095334.909000", "095336.909000", "095338.910000", "095340.908000", "095342.908000", "095344.908000", "095346.908000", "095348.908000", "095350.908000", "095352.909000", "095354.910000", "095356.908000", "095358.909000", "095400.908000", "095402.908000", "095404.909000", "095406.908000", "095408.909000", "095410.909000", "095412.910000", "095414.908000", "095416.908000", "095418.909000", "095420.909000", "095422.909000", "095424.909000", "095426.910000", "095428.909000", "095430.909000", "095432.909000", "095434.908000", "095436.908000", "095438.909000", "095440.908000", "095442.908000", "095444.909000", "095446.909000", "095448.909000", "095450.909000", "095452.909000", "095454.908000", "095456.908000", "095458.908000", "095500.908000", "095502.909000", "095504.909000", "095506.909000", "095508.908000", "095510.908000", "095512.909000", "095514.908000", "095516.908000", "095518.910000", "095520.910000", "095522.910000", "095524.908000", "095526.908000", "095528.908000", "095530.909000", "095532.908000", "095534.908000", "095536.909000", "095538.909000", "095540.909000", "095542.908000", "095544.909000", "095546.908000", "095548.908000", "095550.908000", "095552.908000", "095554.910000", "095556.909000", "095558.909000", "095600.908000", "095602.909000", "095604.909000", "095606.908000", "095608.908000", "095610.908000", "095612.910000", "095614.909000", "095616.908000", "095618.908000", "095620.908000", "095622.908000", "095624.908000", "095626.909000", "095628.910000", "095630.909000", "095632.909000", "095634.909000", "095636.908000", "095638.908000", "095640.908000", "095642.909000", "095644.909000", "095646.910000", "095648.909000", "095650.909000", "095652.909000", "095654.909000", "095656.909000", "095658.908000", "095700.908000", "095702.908000", "095704.910000", "095706.909000", "095708.909000", "095710.908000", "095712.908000", "095714.909000", "095716.908000", "095718.909000", "095720.908000", "095722.909000", "095724.910000", "095726.908000", "095728.908000", "095730.909000", "095732.909000", "095734.909000", "095736.908000", "095738.909000", "095740.909000", "095742.909000", "095744.908000", "095746.908000", "095748.908000", "095750.908000", "095752.908000", "095754.909000", "095756.909000", "095758.909000", "095800.909000", "095802.909000", "095804.908000", "095806.908000", "095808.908000", "095810.908000", "095812.908000", "095814.909000", "095816.910000", "095818.909000", "095820.909000", "095822.909000", "095824.908000", "095826.908000", "095828.908000", "095830.908000", "095832.910000", "095834.910000", "095836.909000", "095838.909000", "095840.909000", "095842.909000", "095844.909000", "095846.908000", "095848.909000", "095850.909000", "095852.909000", "095854.908000", "095856.908000", "095858.908000", "095900.908000", "095902.908000", "095904.909000", "095906.909000", "095908.909000", "095910.909000", "095912.909000", "095914.909000", "095916.908000", "095918.909000", "095920.909000", "095922.908000", "095924.910000", "095926.910000", "095928.909000", "095930.908000", "095932.908000", "095934.909000", "095936.908000", "095938.908000", "095940.920000", "095942.909000", "095944.910000", "095946.908000", "095948.908000", "095950.908000", "095952.908000", "095954.908000", "095956.908000", "095958.909000", "100000.910000", "100002.910000", "100004.909000", "100006.909000", "100008.909000", "100010.908000", "100012.908000", "100014.908000", "100016.910000", "100018.909000", "100020.910000", "100022.909000", "100024.678000"],
      "InstanceCreationTime": ["095243.413000", "095244.910000", "095246.909000", "095248.909000", "095250.908000", "095252.908000", "095254.908000", "095256.908000", "095258.909000", "095300.910000", "095302.909000", "095304.909000", "095306.909000", "095308.908000", "095310.908000", "095312.909000", "095314.909000", "095316.909000", "095318.909000", "095320.909000", "095322.908000", "095324.909000", "095326.909000", "095328.909000", "095330.908000", "095332.908000", "095334.909000", "095336.909000", "095338.910000", "095340.908000", "095342.908000", "095344.908000", "095346.908000", "095348.908000", "095350.908000", "095352.909000", "095354.910000", "095356.908000", "095358.909000", "095400.908000", "095402.908000", "095404.909000", "095406.908000", "095408.909000", "095410.909000", "095412.910000", "095414.908000", "095416.908000", "095418.909000", "095420.909000", "095422.909000", "095424.909000", "095426.910000", "095428.909000", "095430.909000", "095432.909000", "095434.908000", "095436.908000", "095438.909000", "095440.908000", "095442.908000", "095444.909000", "095446.909000", "095448.909000", "095450.909000", "095452.909000", "095454.908000", "095456.908000", "095458.908000", "095500.908000", "095502.909000", "095504.909000", "095506.909000", "095508.908000", "095510.908000", "095512.909000", "095514.908000", "095516.908000", "095518.910000", "095520.910000", "095522.910000", "095524.908000", "095526.908000", "095528.908000", "095530.909000", "095532.908000", "095534.908000", "095536.909000", "095538.909000", "095540.909000", "095542.908000", "095544.909000", "095546.908000", "095548.908000", "095550.908000", "095552.908000", "095554.910000", "095556.909000", "095558.909000", "095600.908000", "095602.909000", "095604.909000", "095606.908000", "095608.908000", "095610.908000", "095612.910000", "095614.909000", "095616.908000", "095618.908000", "095620.908000", "095622.908000", "095624.908000", "095626.909000", "095628.910000", "095630.909000", "095632.909000", "095634.909000", "095636.908000", "095638.908000", "095640.908000", "095642.909000", "095644.909000", "095646.910000", "095648.909000", "095650.909000", "095652.909000", "095654.909000", "095656.909000", "095658.908000", "095700.908000", "095702.908000", "095704.910000", "095706.909000", "095708.909000", "095710.908000", "095712.908000", "095714.909000", "095716.908000", "095718.909000", "095720.908000", "095722.909000", "095724.910000", "095726.908000", "095728.908000", "095730.909000", "095732.909000", "095734.909000", "095736.908000", "095738.909000", "095740.909000", "095742.909000", "095744.908000", "095746.908000", "095748.908000", "095750.908000", "095752.908000", "095754.909000", "095756.909000", "095758.909000", "095800.909000", "095802.909000", "095804.908000", "095806.908000", "095808.908000", "095810.908000", "095812.908000", "095814.909000", "095816.910000", "095818.909000", "095820.909000", "095822.909000", "095824.908000", "095826.908000", "095828.908000", "095830.908000", "095832.910000", "095834.910000", "095836.909000", "095838.909000", "095840.909000", "095842.909000", "095844.909000", "095846.908000", "095848.909000", "095850.909000", "095852.909000", "095854.908000", "095856.908000", "095858.908000", "095900.908000", "095902.908000", "095904.909000", "095906.909000", "095908.909000", "095910.909000", "095912.909000", "095914.909000", "095916.908000", "095918.909000", "095920.909000", "095922.908000", "095924.910000", "095926.910000", "095928.909000", "095930.908000", "095932.908000", "095934.909000", "095936.908000", "095938.908000", "095940.920000", "095942.909000", "095944.910000", "095946.908000", "095948.908000", "095950.908000", "095952.908000", "095954.908000", "095956.908000", "095958.909000", "100000.910000", "100002.910000", "100004.909000", "100006.909000", "100008.909000", "100010.908000", "100012.908000", "100014.908000", "100016.910000", "100018.909000", "100020.910000", "100022.909000", "100024.678000"],
      "InstanceNumber": [1, 2, 3, 4, 5, 6, 7, 8, 9, 10, 11, 12, 13, 14, 15, 16, 17, 18, 19, 20, 21, 22, 23, 24, 25, 26, 27, 28, 29, 30, 31, 32, 33, 34, 35, 36, 37, 38, 39, 40, 41, 42, 43, 44, 45, 46, 47, 48, 49, 50, 51, 52, 53, 54, 55, 56, 57, 58, 59, 60, 61, 62, 63, 64, 65, 66, 67, 68, 69, 70, 71, 72, 73, 74, 75, 76, 77, 78, 79, 80, 81, 82, 83, 84, 85, 86, 87, 88, 89, 90, 91, 92, 93, 94, 95, 96, 97, 98, 99, 100, 101, 102, 103, 104, 105, 106, 107, 108, 109, 110, 111, 112, 113, 114, 115, 116, 117, 118, 119, 120, 121, 122, 123, 124, 125, 126, 127, 128, 129, 130, 131, 132, 133, 134, 135, 136, 137, 138, 139, 140, 141, 142, 143, 144, 145, 146, 147, 148, 149, 150, 151, 152, 153, 154, 155, 156, 157, 158, 159, 160, 161, 162, 163, 164, 165, 166, 167, 168, 169, 170, 171, 172, 173, 174, 175, 176, 177, 178, 179, 180, 181, 182, 183, 184, 185, 186, 187, 188, 189, 190, 191, 192, 193, 194, 195, 196, 197, 198, 199, 200, 201, 202, 203, 204, 205, 206, 207, 208, 209, 210, 211, 212, 213, 214, 215, 216, 217, 218, 219, 220, 221, 222, 223, 224, 225, 226, 227, 228, 229, 230, 231, 232],
      "LargestImagePixelValue": [3874, 3818, 3761, 3751, 3786, 3829, 3787, 3761, 3729, 3762, 3751, 3716, 3732, 3641, 3671, 3628, 3635, 3682, 3689, 3673, 3670, 3682, 3739, 3663, 3691, 3759, 3675, 3725, 3787, 3612, 3665, 3572, 3697, 3636, 3634, 3667, 3684, 3716, 3724, 3705, 3746, 3749, 3746, 3815, 3772, 3809, 3792, 3802, 3808, 3788, 3794, 3832, 3843, 3863, 3836, 3834, 3865, 3836, 3817, 3821, 3826, 3822, 3812, 3833, 3802, 3881, 3832, 3846, 3866, 3855, 3848, 3844, 3845, 3750, 3787, 3733, 3723, 3769, 3804, 3829, 3819, 4095, 3857, 3830, 3850, 3770, 3823, 3824, 3834, 4095, 3893, 3866, 3882, 3881, 3856, 3882, 3880, 3730, 3792, 3762, 3695, 3667, 3709, 3754, 3872, 3710, 3649, 3872, 3788, 3552, 3773, 3933, 3945, 3954, 3860, 3787, 3831, 3839, 3850, 3832, 3861, 3827, 3371, 3866, 3849, 3723, 3750, 3848, 3587, 3751, 3667, 3587, 3744, 3737, 3771, 3745, 3709, 3755, 3785, 3773, 3800, 3804, 3792, 3766, 3790, 3896, 3726, 3696, 3847, 3828, 3873, 3908, 3646, 3924, 3731, 3769, 3769, 3795, 3785, 3803, 3789, 3798, 3732, 3719, 3786, 3740, 3696, 3732, 3765, 3736, 3746, 3778, 3794, 3808, 3796, 3795, 3774, 3790, 3750, 3798, 3732, 3740, 3775, 3750, 3757, 3783, 3754, 3809, 3803, 3846, 3789, 3793, 3800, 3737, 3692, 3743, 3729, 3787, 3719, 3732, 3763, 3621, 3815, 3441, 3769, 3580, 3801, 3770, 3788, 3764, 3682, 3710, 3716, 3703, 3727, 3752, 3745, 3791, 3791, 3767, 3802, 3786, 3776, 3777, 3800, 3790, 3797, 3793, 3769, 3771, 3734, 3733],
      "WindowCenter": [817.0, 815.0, 815.0, 817.0, 819.0, 821.0, 821.0, 821.0, 822.0, 823.0, 824.0, 823.0, 823.0, 822.0, 823.0, 824.0, 822.0, 824.0, 823.0, 824.0, 824.0, 823.0, 823.0, 821.0, 814.0, 806.0, 815.0, 804.0, 820.0, 815.0, 809.0, 812.0, 823.0, 822.0, 821.0, 821.0, 822.0, 822.0, 823.0, 823.0, 824.0, 824.0, 823.0, 823.0, 823.0, 824.0, 824.0, 824.0, 825.0, 825.0, 824.0, 824.0, 823.0, 822.0, 821.0, 821.0, 821.0, 821.0, 822.0, 825.0, 825.0, 823.0, 822.0, 820.0, 820.0, 820.0, 821.0, 821.0, 822.0, 822.0, 822.0, 822.0, 815.0, 822.0, 821.0, 820.0, 819.0, 819.0, 818.0, 817.0, 805.0, 829.0, 824.0, 825.0, 827.0, 827.0, 828.0, 828.0, 813.0, 828.0, 822.0, 823.0, 824.0, 824.0, 824.0, 824.0, 824.0, 819.0, 826.0, 824.0, 822.0, 822.0, 822.0, 819.0, 820.0, 811.0, 818.0, 814.0, 817.0, 812.0, 805.0, 815.0, 819.0, 819.0, 820.0, 821.0, 822.0, 822.0, 823.0, 822.0, 817.0, 826.0, 800.0, 820.0, 819.0, 806.0, 826.0, 821.0, 819.0, 820.0, 820.0, 817.0, 824.0, 823.0, 821.0, 823.0, 822.0, 820.0, 819.0, 818.0, 818.0, 818.0, 820.0, 820.0, 807.0, 832.0, 826.0, 827.0, 827.0, 826.0, 827.0, 827.0, 813.0, 826.0, 821.0, 822.0, 821.0, 822.0, 822.0, 822.0, 822.0, 823.0, 823.0, 822.0, 822.0, 821.0, 821.0, 823.0, 822.0, 820.0, 821.0, 822.0, 820.0, 820.0, 820.0, 821.0, 822.0, 823.0, 822.0, 822.0, 821.0, 821.0, 822.0, 822.0, 822.0, 823.0, 821.0, 821.0, 821.0, 821.0, 820.0, 820.0, 822.0, 822.0, 822.0, 822.0, 821.0, 821.0, 822.0, 821.0, 819.0, 811.0, 813.0, 801.0, 823.0, 813.0, 813.0, 820.0, 821.0, 822.0, 822.0, 823.0, 821.0, 821.0, 821.0, 821.0, 820.0, 820.0, 819.0, 820.0, 821.0, 821.0, 822.0, 822.0, 823.0, 821.0, 820.0, 821.0, 822.0, 823.0, 824.0, 824.0],
      "WindowWidth": [1758.0, 1753.0, 1753.0, 1756.0, 1762.0, 1766.0, 1767.0, 1768.0, 1770.0, 1772.0, 1774.0, 1772.0, 1772.0, 1769.0, 1772.0, 1776.0, 1770.0, 1776.0, 1772.0, 1774.0, 1775.0, 1772.0, 1771.0, 1767.0, 1750.0, 1731.0, 1755.0, 1728.0, 1768.0, 1752.0, 1738.0, 1744.0, 1773.0, 1769.0, 1767.0, 1767.0, 1769.0, 1770.0, 1771.0, 1772.0, 1774.0, 1774.0, 1771.0, 1771.0, 1773.0, 1774.0, 1774.0, 1775.0, 1776.0, 1777.0, 1776.0, 1775.0, 1771.0, 1770.0, 1768.0, 1768.0, 1767.0, 1767.0, 1770.0, 1776.0, 1776.0, 1773.0, 1768.0, 1764.0, 1764.0, 1765.0, 1766.0, 1766.0, 1768.0, 1769.0, 1769.0, 1769.0, 1751.0, 1769.0, 1765.0, 1764.0, 1761.0, 1761.0, 1758.0, 1757.0, 1729.0, 1791.0, 1775.0, 1776.0, 1782.0, 1783.0, 1784.0, 1784.0, 1747.0, 1785.0, 1769.0, 1770.0, 1774.0, 1774.0, 1774.0, 1774.0, 1773.0, 1763.0, 1779.0, 1774.0, 1769.0, 1768.0, 1768.0, 1762.0, 1766.0, 1742.0, 1759.0, 1751.0, 1758.0, 1745.0, 1727.0, 1754.0, 1762.0, 1762.0, 1763.0, 1766.0, 1768.0, 1768.0, 1771.0, 1768.0, 1757.0, 1780.0, 1712.0, 1766.0, 1763.0, 1731.0, 1781.0, 1767.0, 1762.0, 1763.0, 1762.0, 1754.0, 1773.0, 1771.0, 1765.0, 1769.0, 1767.0, 1764.0, 1760.0, 1758.0, 1758.0, 1758.0, 1761.0, 1764.0, 1733.0, 1797.0, 1779.0, 1781.0, 1782.0, 1779.0, 1781.0, 1782.0, 1745.0, 1779.0, 1764.0, 1767.0, 1766.0, 1767.0, 1768.0, 1768.0, 1767.0, 1771.0, 1770.0, 1767.0, 1768.0, 1766.0, 1766.0, 1770.0, 1769.0, 1763.0, 1765.0, 1767.0, 1762.0, 1761.0, 1762.0, 1767.0, 1768.0, 1771.0, 1767.0, 1767.0, 1766.0, 1765.0, 1767.0, 1767.0, 1769.0, 1770.0, 1765.0, 1766.0, 1765.0, 1764.0, 1761.0, 1763.0, 1768.0, 1767.0, 1767.0, 1768.0, 1765.0, 1766.0, 1767.0, 1766.0, 1760.0, 1740.0, 1748.0, 1715.0, 1773.0, 1746.0, 1746.0, 1765.0, 1766.0, 1769.0, 1768.0, 1769.0, 1764.0, 1765.0, 1764.0, 1764.0, 1763.0, 1761.0, 1760.0, 1762.0, 1764.0, 1764.0, 1769.0, 1769.0, 1769.0, 1765.0, 1762.0, 1764.0, 1767.0, 1770.0, 1772.0, 1773.0]
    },
    "slices": {}
  }
}