{
  "AcquisitionMatrixPE": 100,
  "AcquisitionNumber": 1,
  "AcquisitionTime": "09:31:27.765000",
  "BandwidthPerPixelPhaseEncode": 18.519,
  "BaseResolution": 100,
  "BodyPartExamined": "BRAIN",
  "ConsistencyInfo": "N4_VE11C_LATEST_20160120",
  "ConversionSoftware": "dcm2niix",
  "ConversionSoftwareVersion": "v1.0.20180622 GCC4.9.2",
  "DerivedVendorReportedEchoSpacing": 0.000539986,
  "DeviceSerialNumber": "166078",
  "DwellTime": 2.1e-06,
  "EchoTime": 0.034,
  "EchoTrainLength": 100,
  "EffectiveEchoSpacing": 0.000539986,
  "FlipAngle": 90,
  "ImageOrientationPatientDICOM": [0.995651, 0.0856847, 0.0365798, -0.0643858, 0.916606, -0.394573],
  "ImageType": [
    "ORIGINAL",
    "PRIMARY",
    "M",
    "ND",
    "MOSAIC"
],
  "InPlanePhaseEncodingDirectionDICOM": "COL",
  "InstitutionAddress": "Street_StreetNo_Bei_Jing_District_CN_ZIP",
  "InstitutionName": "BeiJing_Normal_University",
  "InstitutionalDepartmentName": "Department",
  "MRAcquisitionType": "2D",
  "MagneticFieldStrength": 3,
  "Manufacturer": "Siemens",
  "ManufacturersModelName": "Prisma",
  "Modality": "MR",
  "MultibandAccelerationFactor": 3,
  "PartialFourier": 1,
  "PatientPosition": "HFS",
  "PercentPhaseFOV": 100,
  "PhaseEncodingDirection": "j-",
  "PhaseEncodingSteps": 100,
  "PhaseResolution": 1,
  "PixelBandwidth": 2380,
  "ProcedureStepDescription": "BNU_P2018_64CH_Liu.Jia",
  "ProtocolName": "bold_100x100_s3_2x2x2_232",
  "PulseSequenceDetails": "%SiemensSeq%_ep2d_bold",
  "ReceiveCoilActiveElements": "HC1-7;NC1",
  "ReceiveCoilName": "HeadNeck_64",
  "ReconMatrixPE": 100,
  "RepetitionTime": 2,
  "SAR": 0.0637031,
  "ScanOptions": "FS",
  "ScanningSequence": "EP",
  "SequenceName": "_epfid2d1_100",
  "SequenceVariant": "SK",
  "SeriesDescription": "bold_100x100_s3_2x2x2_232",
  "SeriesNumber": 4,
  "ShimSetting": [-5442, -11491, -1248, 370, 11, -235, -204, 4],
  "SliceThickness": 2,
  "SliceTiming": [1.485, 0, 0.99, 0.0825, 1.0725, 0.165, 1.155, 0.2475, 1.2375, 0.33, 1.32, 0.4125, 1.4025, 0.5775, 1.5675, 0.66, 1.65, 0.7425, 1.7325, 0.825, 1.815, 0.9075, 1.8975, 0.495, 1.485, 0, 0.99, 0.0825, 1.0725, 0.165, 1.155, 0.2475, 1.2375, 0.33, 1.32, 0.4125, 1.4025, 0.5775, 1.5675, 0.66, 1.65, 0.7425, 1.7325, 0.825, 1.815, 0.9075, 1.8975, 0.495, 1.485, 0, 0.99, 0.0825, 1.0725, 0.165, 1.155, 0.2475, 1.2375, 0.33, 1.32, 0.4125, 1.4025, 0.5775, 1.5675, 0.66, 1.65, 0.7425, 1.7325, 0.825, 1.815, 0.9075, 1.8975, 0.495],
  "SoftwareVersions": "syngo_MR_E11",
  "SpacingBetweenSlices": 2,
  "StationName": "AWP166078",
  "TaskName": "motor",
  "TotalReadoutTime": 0.0534586,
  "TxRefAmp": 217.447,
  "dcmmeta_affine": [
    [-1.99130117893219, -0.12877154350280762, 0.13467636704444885, 101.9794692993164],
    [-0.17136947810649872, 1.833211898803711, -0.7810035347938538, -45.96924591064453],
    [0.07315963506698608, 0.7891463041305542, 1.8362722396850586, -105.71505737304688],
    [0.0, 0.0, 0.0, 1.0]
],
  "dcmmeta_reorient_transform": [
    [0.0, -1.0, 0.0, 99.0],
    [1.0, 0.0, 0.0, 0.0],
    [0.0, 0.0, 1.0, 0.0],
    [0.0, 0.0, 0.0, 1.0]
],
  "dcmmeta_shape": [100, 100, 72, 232],
  "dcmmeta_slice_dim": 2,
  "dcmmeta_version": 0.6,
  "global": {
    "const": {
      "AcquisitionMatrix": [100, 0, 0, 100],
      "AngioFlag": "N",
      "BitsAllocated": 16,
      "BitsStored": 12,
      "BodyPartExamined": "BRAIN",
      "Columns": 900,
      "EchoNumbers": 1,
      "EchoTime": 34.0,
      "EchoTrainLength": 100,
      "FlipAngle": 90.0,
      "HighBit": 11,
      "ImageOrientationPatient": [0.9956505621638, 0.08568474136823, 0.03657981902054, -0.0643857727043, 0.91660596769175, -0.3945731519822],
      "ImagePositionPatient": [-834.24292167194, -937.35130337615, 258.80509509394],
      "ImageType": [
        "ORIGINAL",
        "PRIMARY",
        "M",
        "ND",
        "MOSAIC"
],
      "ImagedNucleus": "1H",
      "ImagingFrequency": 123.257855,
      "InPlanePhaseEncodingDirection": "COL",
      "MRAcquisitionType": "2D",
      "MagneticFieldStrength": 3.0,
      "Manufacturer": "SIEMENS",
      "ManufacturerModelName": "Prisma",
      "Modality": "MR",
      "NumberOfAverages": 1.0,
      "NumberOfPhaseEncodingSteps": 100,
      "PercentPhaseFieldOfView": 100.0,
      "PercentSampling": 100.0,
      "PerformedProcedureStepStartTime": "090027.078000",
      "PhotometricInterpretation": "MONOCHROME2",
      "PixelBandwidth": 2380.0,
      "PixelRepresentation": 0,
      "PixelSpacing": [2.0, 2.0],
      "ProtocolName": "bold_100x100_s3_2x2x2_232",
      "RepetitionTime": 2000.0,
      "Rows": 900,
      "SAR": 0.06370307327209,
      "SamplesPerPixel": 1,
      "ScanOptions": "FS",
      "ScanningSequence": "EP",
      "SequenceName": "*epfid2d1_100",
      "SequenceVariant": "SK",
      "SeriesDescription": "bold_100x100_s3_2x2x2_232",
      "SeriesNumber": 4,
      "SeriesTime": "093129.896000",
      "SliceLocation": -72.242628023597,
      "SliceThickness": 2.0,
      "SmallestImagePixelValue": 0,
      "SoftwareVersions": "syngo MR E11",
      "SpacingBetweenSlices": 2.0000000392497,
      "SpecificCharacterSet": "ISO_IR 100",
      "StudyID": "1",
      "StudyTime": "090026.954000",
      "TransmitCoilName": "Body",
      "VariableFlipAngleFlag": "N",
      "WindowCenterWidthExplanation": "Algo1",
      "dBdt": 0.0},
    "slices": {}
  },
  "time": {
    "samples": {
      "AcquisitionNumber": [1, 2, 3, 4, 5, 6, 7, 8, 9, 10, 11, 12, 13, 14, 15, 16, 17, 18, 19, 20, 21, 22, 23, 24, 25, 26, 27, 28, 29, 30, 31, 32, 33, 34, 35, 36, 37, 38, 39, 40, 41, 42, 43, 44, 45, 46, 47, 48, 49, 50, 51, 52, 53, 54, 55, 56, 57, 58, 59, 60, 61, 62, 63, 64, 65, 66, 67, 68, 69, 70, 71, 72, 73, 74, 75, 76, 77, 78, 79, 80, 81, 82, 83, 84, 85, 86, 87, 88, 89, 90, 91, 92, 93, 94, 95, 96, 97, 98, 99, 100, 101, 102, 103, 104, 105, 106, 107, 108, 109, 110, 111, 112, 113, 114, 115, 116, 117, 118, 119, 120, 121, 122, 123, 124, 125, 126, 127, 128, 129, 130, 131, 132, 133, 134, 135, 136, 137, 138, 139, 140, 141, 142, 143, 144, 145, 146, 147, 148, 149, 150, 151, 152, 153, 154, 155, 156, 157, 158, 159, 160, 161, 162, 163, 164, 165, 166, 167, 168, 169, 170, 171, 172, 173, 174, 175, 176, 177, 178, 179, 180, 181, 182, 183, 184, 185, 186, 187, 188, 189, 190, 191, 192, 193, 194, 195, 196, 197, 198, 199, 200, 201, 202, 203, 204, 205, 206, 207, 208, 209, 210, 211, 212, 213, 214, 215, 216, 217, 218, 219, 220, 221, 222, 223, 224, 225, 226, 227, 228, 229, 230, 231, 232],
      "AcquisitionTime": ["093127.765000", "093129.765000", "093131.765000", "093133.765000", "093135.765000", "093137.765000", "093139.765000", "093141.765000", "093143.765000", "093145.765000", "093147.765000", "093149.765000", "093151.765000", "093153.765000", "093155.765000", "093157.765000", "093159.765000", "093201.765000", "093203.765000", "093205.765000", "093207.765000", "093209.765000", "093211.765000", "093213.765000", "093215.765000", "093217.765000", "093219.765000", "093221.765000", "093223.765000", "093225.765000", "093227.765000", "093229.765000", "093231.765000", "093233.765000", "093235.765000", "093237.765000", "093239.765000", "093241.765000", "093243.765000", "093245.765000", "093247.765000", "093249.765000", "093251.765000", "093253.765000", "093255.765000", "093257.765000", "093259.765000", "093301.765000", "093303.765000", "093305.765000", "093307.765000", "093309.765000", "093311.765000", "093313.765000", "093315.765000", "093317.765000", "093319.765000", "093321.765000", "093323.765000", "093325.765000", "093327.765000", "093329.765000", "093331.765000", "093333.765000", "093335.765000", "093337.765000", "093339.765000", "093341.765000", "093343.765000", "093345.765000", "093347.765000", "093349.765000", "093351.765000", "093353.765000", "093355.765000", "093357.765000", "093359.765000", "093401.765000", "093403.765000", "093405.765000", "093407.765000", "093409.765000", "093411.765000", "093413.765000", "093415.765000", "093417.765000", "093419.765000", "093421.765000", "093423.765000", "093425.765000", "093427.765000", "093429.765000", "093431.765000", "093433.765000", "093435.765000", "093437.765000", "093439.765000", "093441.765000", "093443.765000", "093445.765000", "093447.765000", "093449.765000", "093451.765000", "093453.765000", "093455.765000", "093457.765000", "093459.765000", "093501.765000", "093503.765000", "093505.765000", "093507.765000", "093509.765000", "093511.765000", "093513.765000", "093515.765000", "093517.765000", "093519.765000", "093521.765000", "093523.765000", "093525.765000", "093527.765000", "093529.765000", "093531.765000", "093533.765000", "093535.765000", "093537.765000", "093539.765000", "093541.765000", "093543.765000", "093545.765000", "093547.765000", "093549.765000", "093551.765000", "093553.765000", "093555.765000", "093557.765000", "093559.765000", "093601.765000", "093603.765000", "093605.765000", "093607.765000", "093609.765000", "093611.765000", "093613.765000", "093615.765000", "093617.765000", "093619.765000", "093621.765000", "093623.765000", "093625.765000", "093627.765000", "093629.765000", "093631.765000", "093633.765000", "093635.765000", "093637.765000", "093639.765000", "093641.765000", "093643.765000", "093645.765000", "093647.765000", "093649.765000", "093651.765000", "093653.765000", "093655.765000", "093657.765000", "093659.765000", "093701.765000", "093703.765000", "093705.765000", "093707.765000", "093709.765000", "093711.765000", "093713.765000", "093715.765000", "093717.765000", "093719.765000", "093721.765000", "093723.765000", "093725.765000", "093727.765000", "093729.765000", "093731.765000", "093733.765000", "093735.765000", "093737.765000", "093739.765000", "093741.765000", "093743.765000", "093745.765000", "093747.765000", "093749.765000", "093751.765000", "093753.765000", "093755.765000", "093757.765000", "093759.765000", "093801.765000", "093803.765000", "093805.765000", "093807.765000", "093809.765000", "093811.765000", "093813.765000", "093815.765000", "093817.765000", "093819.765000", "093821.765000", "093823.765000", "093825.765000", "093827.765000", "093829.765000", "093831.765000", "093833.765000", "093835.765000", "093837.765000", "093839.765000", "093841.765000", "093843.765000", "093845.765000", "093847.765000", "093849.765000", "093851.765000", "093853.765000", "093855.765000", "093857.765000", "093859.765000", "093901.765000", "093903.765000", "093905.765000", "093907.765000", "093909.765000"],
      "ContentTime": ["093129.899000", "093131.395000", "093133.395000", "093135.395000", "093137.395000", "093139.395000", "093141.396000", "093143.396000", "093145.396000", "093147.395000", "093149.395000", "093151.395000", "093153.396000", "093155.396000", "093157.395000", "093159.395000", "093201.396000", "093203.395000", "093205.395000", "093207.395000", "093209.396000", "093211.395000", "093213.395000", "093215.395000", "093217.395000", "093219.396000", "093221.395000", "093223.396000", "093225.395000", "093227.395000", "093229.396000", "093231.395000", "093233.396000", "093235.397000", "093237.397000", "093239.396000", "093241.395000", "093243.395000", "093245.396000", "093247.396000", "093249.395000", "093251.396000", "093253.397000", "093255.395000", "093257.396000", "093259.396000", "093301.395000", "093303.395000", "093305.395000", "093307.395000", "093309.395000", "093311.396000", "093313.395000", "093315.395000", "093317.396000", "093319.395000", "093321.395000", "093323.396000", "093325.396000", "093327.395000", "093329.396000", "093331.395000", "093333.395000", "093335.395000", "093337.396000", "093339.395000", "093341.395000", "093343.395000", "093345.396000", "093347.397000", "093349.396000", "093351.396000", "093353.396000", "093355.395000", "093357.395000", "093359.395000", "093401.395000", "093403.396000", "093405.395000", "093407.396000", "093409.396000", "093411.395000", "093413.395000", "093415.395000", "093417.395000", "093419.395000", "093421.397000", "093423.395000", "093425.395000", "093427.395000", "093429.395000", "093431.395000", "093433.395000", "093435.395000", "093437.396000", "093439.397000", "093441.395000", "093443.395000", "093445.395000", "093447.395000", "093449.395000", "093451.395000", "093453.395000", "093455.396000", "093457.397000", "093459.395000", "093501.396000", "093503.395000", "093505.396000", "093507.395000", "093509.395000", "093511.395000", "093513.396000", "093515.396000", "093517.395000", "093519.395000", "093521.395000", "093523.395000", "093525.395000", "093527.396000", "093529.395000", "093531.396000", "093533.396000", "093535.396000", "093537.395000", "093539.395000", "093541.395000", "093543.396000", "093545.395000", "093547.396000", "093549.396000", "093551.396000", "093553.395000", "093555.396000", "093557.396000", "093559.395000", "093601.395000", "093603.395000", "093605.396000", "093607.396000", "093609.396000", "093611.395000", "093613.395000", "093615.396000", "093617.396000", "093619.396000", "093621.396000", "093623.396000", "093625.395000", "093627.395000", "093629.396000", "093631.396000", "093633.395000", "093635.395000", "093637.396000", "093639.396000", "093641.397000", "093643.395000", "093645.396000", "093647.396000", "093649.395000", "093651.396000", "093653.396000", "093655.396000", "093657.396000", "093659.397000", "093701.396000", "093703.396000", "093705.395000", "093707.395000", "093709.396000", "093711.396000", "093713.395000", "093715.396000", "093717.397000", "093719.395000", "093721.395000", "093723.395000", "093725.396000", "093727.395000", "093729.396000", "093731.395000", "093733.397000", "093735.395000", "093737.395000", "093739.396000", "093741.395000", "093743.396000", "093745.395000", "093747.396000", "093749.395000", "093751.396000", "093753.395000", "093755.395000", "093757.395000", "093759.395000", "093801.396000", "093803.395000", "093805.395000", "093807.397000", "093809.396000", "093811.396000", "093813.395000", "093815.395000", "093817.396000", "093819.396000", "093821.396000", "093823.395000", "093825.397000", "093827.396000", "093829.396000", "093831.396000", "093833.395000", "093835.395000", "093837.396000", "093839.396000", "093841.396000", "093843.396000", "093845.396000", "093847.396000", "093849.408000", "093851.395000", "093853.395000", "093855.396000", "093857.396000", "093859.396000", "093901.397000", "093903.396000", "093905.396000", "093907.395000", "093909.396000", "093911.147000"],
      "InstanceCreationTime": ["093129.899000", "093131.395000", "093133.395000", "093135.395000", "093137.395000", "093139.395000", "093141.396000", "093143.396000", "093145.396000", "093147.395000", "093149.395000", "093151.395000", "093153.396000", "093155.396000", "093157.395000", "093159.395000", "093201.396000", "093203.395000", "093205.395000", "093207.395000", "093209.396000", "093211.395000", "093213.395000", "093215.395000", "093217.395000", "093219.396000", "093221.395000", "093223.396000", "093225.395000", "093227.395000", "093229.396000", "093231.395000", "093233.396000", "093235.397000", "093237.397000", "093239.396000", "093241.395000", "093243.395000", "093245.396000", "093247.396000", "093249.395000", "093251.396000", "093253.397000", "093255.395000", "093257.396000", "093259.396000", "093301.395000", "093303.395000", "093305.395000", "093307.395000", "093309.395000", "093311.396000", "093313.395000", "093315.395000", "093317.396000", "093319.395000", "093321.395000", "093323.396000", "093325.396000", "093327.395000", "093329.396000", "093331.395000", "093333.395000", "093335.395000", "093337.396000", "093339.395000", "093341.395000", "093343.395000", "093345.396000", "093347.397000", "093349.396000", "093351.396000", "093353.396000", "093355.395000", "093357.395000", "093359.395000", "093401.395000", "093403.396000", "093405.395000", "093407.396000", "093409.396000", "093411.395000", "093413.395000", "093415.395000", "093417.395000", "093419.395000", "093421.397000", "093423.395000", "093425.395000", "093427.395000", "093429.395000", "093431.395000", "093433.395000", "093435.395000", "093437.396000", "093439.397000", "093441.395000", "093443.395000", "093445.395000", "093447.395000", "093449.395000", "093451.395000", "093453.395000", "093455.396000", "093457.397000", "093459.395000", "093501.396000", "093503.395000", "093505.396000", "093507.395000", "093509.395000", "093511.395000", "093513.396000", "093515.396000", "093517.395000", "093519.395000", "093521.395000", "093523.395000", "093525.395000", "093527.396000", "093529.395000", "093531.396000", "093533.396000", "093535.396000", "093537.395000", "093539.395000", "093541.395000", "093543.396000", "093545.395000", "093547.396000", "093549.396000", "093551.396000", "093553.395000", "093555.396000", "093557.396000", "093559.395000", "093601.395000", "093603.395000", "093605.396000", "093607.396000", "093609.396000", "093611.395000", "093613.395000", "093615.396000", "093617.396000", "093619.396000", "093621.396000", "093623.396000", "093625.395000", "093627.395000", "093629.396000", "093631.396000", "093633.395000", "093635.395000", "093637.396000", "093639.396000", "093641.397000", "093643.395000", "093645.396000", "093647.396000", "093649.395000", "093651.396000", "093653.396000", "093655.396000", "093657.396000", "093659.397000", "093701.396000", "093703.396000", "093705.395000", "093707.395000", "093709.396000", "093711.396000", "093713.395000", "093715.396000", "093717.397000", "093719.395000", "093721.395000", "093723.395000", "093725.396000", "093727.395000", "093729.396000", "093731.395000", "093733.397000", "093735.395000", "093737.395000", "093739.396000", "093741.395000", "093743.396000", "093745.395000", "093747.396000", "093749.395000", "093751.396000", "093753.395000", "093755.395000", "093757.395000", "093759.395000", "093801.396000", "093803.395000", "093805.395000", "093807.397000", "093809.396000", "093811.396000", "093813.395000", "093815.395000", "093817.396000", "093819.396000", "093821.396000", "093823.395000", "093825.397000", "093827.396000", "093829.396000", "093831.396000", "093833.395000", "093835.395000", "093837.396000", "093839.396000", "093841.396000", "093843.396000", "093845.396000", "093847.396000", "093849.408000", "093851.395000", "093853.395000", "093855.396000", "093857.396000", "093859.396000", "093901.397000", "093903.396000", "093905.396000", "093907.395000", "093909.396000", "093911.147000"],
      "InstanceNumber": [1, 2, 3, 4, 5, 6, 7, 8, 9, 10, 11, 12, 13, 14, 15, 16, 17, 18, 19, 20, 21, 22, 23, 24, 25, 26, 27, 28, 29, 30, 31, 32, 33, 34, 35, 36, 37, 38, 39, 40, 41, 42, 43, 44, 45, 46, 47, 48, 49, 50, 51, 52, 53, 54, 55, 56, 57, 58, 59, 60, 61, 62, 63, 64, 65, 66, 67, 68, 69, 70, 71, 72, 73, 74, 75, 76, 77, 78, 79, 80, 81, 82, 83, 84, 85, 86, 87, 88, 89, 90, 91, 92, 93, 94, 95, 96, 97, 98, 99, 100, 101, 102, 103, 104, 105, 106, 107, 108, 109, 110, 111, 112, 113, 114, 115, 116, 117, 118, 119, 120, 121, 122, 123, 124, 125, 126, 127, 128, 129, 130, 131, 132, 133, 134, 135, 136, 137, 138, 139, 140, 141, 142, 143, 144, 145, 146, 147, 148, 149, 150, 151, 152, 153, 154, 155, 156, 157, 158, 159, 160, 161, 162, 163, 164, 165, 166, 167, 168, 169, 170, 171, 172, 173, 174, 175, 176, 177, 178, 179, 180, 181, 182, 183, 184, 185, 186, 187, 188, 189, 190, 191, 192, 193, 194, 195, 196, 197, 198, 199, 200, 201, 202, 203, 204, 205, 206, 207, 208, 209, 210, 211, 212, 213, 214, 215, 216, 217, 218, 219, 220, 221, 222, 223, 224, 225, 226, 227, 228, 229, 230, 231, 232],
      "LargestImagePixelValue": [3804, 3789, 3784, 3783, 3771, 3759, 3806, 3734, 3794, 3773, 3727, 3772, 3696, 3767, 3741, 3731, 3800, 3971, 3773, 3785, 3785, 3819, 3819, 3790, 3805, 3788, 3782, 3791, 3756, 3772, 3821, 3835, 3767, 3952, 3791, 3691, 3897, 3704, 3876, 3848, 3932, 3780, 3851, 3748, 4008, 3701, 3684, 4002, 4053, 3860, 3849, 3795, 3855, 3812, 3870, 3796, 3774, 3772, 3764, 3765, 3734, 3763, 3735, 3800, 3810, 3781, 3818, 3817, 3762, 3816, 3810, 3852, 3828, 3645, 3576, 3587, 3761, 3676, 3758, 3748, 3710, 3748, 3774, 3788, 3766, 3783, 3751, 3731, 3781, 3736, 3737, 3752, 3748, 3716, 3758, 3805, 3813, 3825, 3790, 3810, 3857, 3809, 3773, 3807, 3799, 3754, 3796, 3908, 3816, 3906, 3806, 3870, 3875, 3761, 3785, 3770, 3798, 3805, 3810, 3761, 3786, 3834, 3872, 3960, 3781, 3766, 3876, 3814, 3806, 3787, 3849, 3826, 3794, 3838, 3826, 3831, 3838, 3757, 3712, 3739, 3728, 3734, 3794, 3730, 3798, 3814, 3795, 3790, 3752, 3803, 3785, 3798, 3813, 3736, 3722, 3695, 3732, 3737, 3768, 3731, 3713, 3749, 3758, 3826, 3764, 3784, 3829, 3775, 3787, 3809, 3814, 3778, 3817, 3854, 3829, 3802, 3812, 3817, 3835, 3838, 3831, 3797, 3840, 3830, 3828, 4031, 3964, 3970, 4092, 4095, 3920, 3892, 3965, 3663, 3676, 3541, 3704, 3677, 3667, 3657, 3616, 3652, 3561, 3615, 3580, 3698, 3581, 3633, 3724, 3891, 3810, 3829, 3893, 3887, 3844, 3893, 3851, 3883, 3719, 3660, 3719, 3720, 3646, 3723, 3709, 3781, 3719, 3808, 3687, 3936, 3820, 3828],
      "WindowCenter": [831.0, 829.0, 827.0, 827.0, 827.0, 828.0, 827.0, 826.0, 826.0, 826.0, 826.0, 826.0, 827.0, 827.0, 827.0, 828.0, 823.0, 832.0, 829.0, 829.0, 830.0, 831.0, 832.0, 831.0, 831.0, 831.0, 831.0, 831.0, 831.0, 831.0, 832.0, 832.0, 829.0, 828.0, 827.0, 824.0, 827.0, 826.0, 828.0, 828.0, 825.0, 824.0, 820.0, 807.0, 831.0, 821.0, 822.0, 820.0, 821.0, 832.0, 830.0, 829.0, 829.0, 830.0, 831.0, 831.0, 830.0, 832.0, 831.0, 830.0, 829.0, 828.0, 828.0, 828.0, 828.0, 827.0, 826.0, 827.0, 827.0, 828.0, 828.0, 828.0, 827.0, 823.0, 822.0, 823.0, 825.0, 825.0, 825.0, 825.0, 824.0, 824.0, 824.0, 824.0, 824.0, 826.0, 826.0, 826.0, 827.0, 828.0, 829.0, 829.0, 829.0, 828.0, 828.0, 828.0, 828.0, 829.0, 829.0, 829.0, 828.0, 827.0, 828.0, 829.0, 823.0, 826.0, 822.0, 827.0, 824.0, 828.0, 827.0, 827.0, 825.0, 826.0, 825.0, 827.0, 827.0, 827.0, 829.0, 827.0, 824.0, 826.0, 828.0, 826.0, 825.0, 826.0, 827.0, 828.0, 828.0, 828.0, 828.0, 828.0, 828.0, 828.0, 828.0, 829.0, 828.0, 826.0, 826.0, 826.0, 826.0, 825.0, 826.0, 826.0, 827.0, 826.0, 826.0, 826.0, 826.0, 828.0, 828.0, 827.0, 827.0, 827.0, 827.0, 828.0, 827.0, 827.0, 824.0, 828.0, 826.0, 825.0, 824.0, 825.0, 826.0, 828.0, 828.0, 830.0, 830.0, 830.0, 830.0, 829.0, 829.0, 830.0, 829.0, 829.0, 827.0, 826.0, 826.0, 826.0, 827.0, 827.0, 826.0, 827.0, 828.0, 827.0, 823.0, 826.0, 825.0, 830.0, 828.0, 825.0, 823.0, 828.0, 824.0, 824.0, 825.0, 826.0, 824.0, 823.0, 822.0, 824.0, 823.0, 824.0, 824.0, 825.0, 825.0, 826.0, 820.0, 832.0, 829.0, 829.0, 831.0, 832.0, 831.0, 832.0, 830.0, 826.0, 825.0, 827.0, 829.0, 829.0, 828.0, 827.0, 826.0, 826.0, 826.0, 827.0, 825.0, 827.0, 826.0, 825.0],
      "WindowWidth": [1796.0, 1788.0, 1784.0, 1783.0, 1784.0, 1785.0, 1782.0, 1780.0, 1781.0, 1781.0, 1780.0, 1782.0, 1783.0, 1785.0, 1784.0, 1785.0, 1775.0, 1798.0, 1788.0, 1790.0, 1791.0, 1795.0, 1797.0, 1795.0, 1795.0, 1795.0, 1795.0, 1795.0, 1795.0, 1796.0, 1798.0, 1798.0, 1790.0, 1786.0, 1782.0, 1776.0, 1783.0, 1783.0, 1788.0, 1788.0, 1780.0, 1777.0, 1767.0, 1734.0, 1797.0, 1768.0, 1772.0, 1770.0, 1774.0, 1797.0, 1790.0, 1789.0, 1789.0, 1791.0, 1794.0, 1794.0, 1791.0, 1799.0, 1794.0, 1793.0, 1790.0, 1788.0, 1788.0, 1787.0, 1786.0, 1783.0, 1782.0, 1783.0, 1782.0, 1785.0, 1786.0, 1786.0, 1783.0, 1773.0, 1770.0, 1772.0, 1779.0, 1778.0, 1779.0, 1778.0, 1776.0, 1775.0, 1775.0, 1775.0, 1776.0, 1780.0, 1782.0, 1781.0, 1782.0, 1785.0, 1788.0, 1790.0, 1787.0, 1786.0, 1786.0, 1786.0, 1787.0, 1789.0, 1788.0, 1787.0, 1785.0, 1783.0, 1786.0, 1787.0, 1773.0, 1779.0, 1771.0, 1785.0, 1775.0, 1787.0, 1784.0, 1783.0, 1778.0, 1780.0, 1779.0, 1782.0, 1784.0, 1784.0, 1787.0, 1784.0, 1777.0, 1781.0, 1787.0, 1783.0, 1777.0, 1783.0, 1786.0, 1786.0, 1788.0, 1786.0, 1787.0, 1787.0, 1787.0, 1787.0, 1787.0, 1789.0, 1787.0, 1782.0, 1780.0, 1779.0, 1779.0, 1778.0, 1779.0, 1780.0, 1782.0, 1781.0, 1781.0, 1780.0, 1781.0, 1785.0, 1784.0, 1783.0, 1782.0, 1783.0, 1783.0, 1785.0, 1783.0, 1782.0, 1777.0, 1785.0, 1780.0, 1777.0, 1776.0, 1779.0, 1780.0, 1786.0, 1787.0, 1793.0, 1791.0, 1792.0, 1790.0, 1789.0, 1790.0, 1792.0, 1789.0, 1787.0, 1783.0, 1782.0, 1781.0, 1781.0, 1784.0, 1782.0, 1782.0, 1784.0, 1786.0, 1787.0, 1775.0, 1782.0, 1780.0, 1794.0, 1788.0, 1779.0, 1772.0, 1785.0, 1776.0, 1775.0, 1777.0, 1780.0, 1775.0, 1772.0, 1771.0, 1777.0, 1772.0, 1774.0, 1774.0, 1778.0, 1777.0, 1779.0, 1767.0, 1797.0, 1789.0, 1789.0, 1794.0, 1796.0, 1795.0, 1796.0, 1792.0, 1783.0, 1777.0, 1782.0, 1787.0, 1787.0, 1785.0, 1782.0, 1779.0, 1779.0, 1779.0, 1782.0, 1779.0, 1783.0, 1781.0, 1778.0]
    },
    "slices": {}
  }
}