{
  "AcquisitionMatrixPE": 100,
  "AcquisitionNumber": 1,
  "AcquisitionTime": "14:44:25.577500",
  "BandwidthPerPixelPhaseEncode": 18.519,
  "BaseResolution": 100,
  "BodyPartExamined": "BRAIN",
  "ConsistencyInfo": "N4_VE11C_LATEST_20160120",
  "ConversionSoftware": "dcm2niix",
  "ConversionSoftwareVersion": "v1.0.20180622 GCC4.9.2",
  "DerivedVendorReportedEchoSpacing": 0.000539986,
  "DeviceSerialNumber": "166078",
  "DwellTime": 2.1e-06,
  "EchoTime": 0.034,
  "EchoTrainLength": 100,
  "EffectiveEchoSpacing": 0.000539986,
  "FlipAngle": 90,
  "ImageOrientationPatientDICOM": [1, -1.01356e-05, -8.53285e-05, -3.81617e-08, 0.992967, -0.118395],
  "ImageType": [
    "ORIGINAL",
    "PRIMARY",
    "M",
    "ND",
    "MOSAIC"
],
  "InPlanePhaseEncodingDirectionDICOM": "COL",
  "InstitutionAddress": "Street_StreetNo_Bei_Jing_District_CN_ZIP",
  "InstitutionName": "BeiJing_Normal_University",
  "InstitutionalDepartmentName": "Department",
  "MRAcquisitionType": "2D",
  "MagneticFieldStrength": 3,
  "Manufacturer": "Siemens",
  "ManufacturersModelName": "Prisma",
  "Modality": "MR",
  "MultibandAccelerationFactor": 3,
  "PartialFourier": 1,
  "PatientPosition": "HFS",
  "PercentPhaseFOV": 100,
  "PhaseEncodingDirection": "j-",
  "PhaseEncodingSteps": 100,
  "PhaseResolution": 1,
  "PixelBandwidth": 2380,
  "ProcedureStepDescription": "BNU_P2018_64CH_Liu.Jia",
  "ProtocolName": "bold_100x100_s3_2x2x2_232",
  "PulseSequenceDetails": "%SiemensSeq%_ep2d_bold",
  "ReceiveCoilActiveElements": "HC1-7;NC1",
  "ReceiveCoilName": "HeadNeck_64",
  "ReconMatrixPE": 100,
  "RepetitionTime": 2,
  "SAR": 0.0766465,
  "ScanOptions": "FS",
  "ScanningSequence": "EP",
  "SequenceName": "_epfid2d1_100",
  "SequenceVariant": "SK",
  "SeriesDescription": "bold_100x100_s3_2x2x2_232",
  "SeriesNumber": 10,
  "ShimSetting": [-5457, -11497, -1270, 268, -74, -269, -46, 64],
  "SliceThickness": 2,
  "SliceTiming": [1.485, 0, 0.99, 0.0825, 1.0725, 0.165, 1.155, 0.2475, 1.2375, 0.33, 1.32, 0.4125, 1.4025, 0.5775, 1.5675, 0.66, 1.65, 0.7425, 1.7325, 0.825, 1.815, 0.9075, 1.8975, 0.495, 1.485, 0, 0.99, 0.0825, 1.0725, 0.165, 1.155, 0.2475, 1.2375, 0.33, 1.32, 0.4125, 1.4025, 0.5775, 1.5675, 0.66, 1.65, 0.7425, 1.7325, 0.825, 1.815, 0.9075, 1.8975, 0.495, 1.485, 0, 0.99, 0.0825, 1.0725, 0.165, 1.155, 0.2475, 1.2375, 0.33, 1.32, 0.4125, 1.4025, 0.5775, 1.5675, 0.66, 1.65, 0.7425, 1.7325, 0.825, 1.815, 0.9075, 1.8975, 0.495],
  "SoftwareVersions": "syngo_MR_E11",
  "SpacingBetweenSlices": 2,
  "StationName": "AWP166078",
  "TaskName": "motor",
  "TotalReadoutTime": 0.0534586,
  "TxRefAmp": 240.306,
  "dcmmeta_affine": [
    [-2.0, -7.632348086872298e-08, -0.0001718566782074049, 99.35401916503906],
    [2.0271207176847383e-05, 1.9859330654144287, -0.236790269613266, -81.42960357666016],
    [-0.00017065696010831743, 0.236790269613266, 1.9859330654144287, -83.61776733398438],
    [0.0, 0.0, 0.0, 1.0]
],
  "dcmmeta_reorient_transform": [
    [0.0, -1.0, 0.0, 99.0],
    [1.0, 0.0, 0.0, 0.0],
    [0.0, 0.0, 1.0, 0.0],
    [0.0, 0.0, 0.0, 1.0]
],
  "dcmmeta_shape": [100, 100, 72, 232],
  "dcmmeta_slice_dim": 2,
  "dcmmeta_version": 0.6,
  "global": {
    "const": {
      "AcquisitionMatrix": [100, 0, 0, 100],
      "AngioFlag": "N",
      "BitsAllocated": 16,
      "BitsStored": 12,
      "BodyPartExamined": "BRAIN",
      "Columns": 900,
      "EchoNumbers": 1,
      "EchoTime": 34.0,
      "EchoTrainLength": 100,
      "FlipAngle": 90.0,
      "HighBit": 11,
      "ImageOrientationPatient": [0.99999999630816, -1.01356034e-05, -8.53284821e-05, -3.8161742e-08, 0.99296656160156, -0.1183951330975],
      "ImagePositionPatient": [-899.35397464228, -909.54291783591, 34.608840592543],
      "ImageType": [
        "ORIGINAL",
        "PRIMARY",
        "M",
        "ND",
        "MOSAIC"
],
      "ImagedNucleus": "1H",
      "ImagingFrequency": 123.257839,
      "InPlanePhaseEncodingDirection": "COL",
      "MRAcquisitionType": "2D",
      "MagneticFieldStrength": 3.0,
      "Manufacturer": "SIEMENS",
      "ManufacturerModelName": "Prisma",
      "Modality": "MR",
      "NumberOfAverages": 1.0,
      "NumberOfPhaseEncodingSteps": 100,
      "PercentPhaseFieldOfView": 100.0,
      "PercentSampling": 100.0,
      "PerformedProcedureStepStartTime": "135455.062000",
      "PhotometricInterpretation": "MONOCHROME2",
      "PixelBandwidth": 2380.0,
      "PixelRepresentation": 0,
      "PixelSpacing": [2.0, 2.0],
      "ProtocolName": "bold_100x100_s3_2x2x2_232",
      "RepetitionTime": 2000.0,
      "Rows": 900,
      "SAR": 0.0766465386841,
      "SamplesPerPixel": 1,
      "ScanOptions": "FS",
      "ScanningSequence": "EP",
      "SequenceName": "*epfid2d1_100",
      "SequenceVariant": "SK",
      "SeriesDescription": "bold_100x100_s3_2x2x2_232",
      "SeriesNumber": 10,
      "SeriesTime": "144428.013000",
      "SliceLocation": -73.397313093319,
      "SliceThickness": 2.0,
      "SmallestImagePixelValue": 0,
      "SoftwareVersions": "syngo MR E11",
      "SpacingBetweenSlices": 1.9999999994787,
      "SpecificCharacterSet": "ISO_IR 100",
      "StudyID": "1",
      "StudyTime": "135454.989000",
      "TransmitCoilName": "Body",
      "VariableFlipAngleFlag": "N",
      "WindowCenterWidthExplanation": "Algo1",
      "dBdt": 0.0},
    "slices": {}
  },
  "time": {
    "samples": {
      "AcquisitionNumber": [1, 2, 3, 4, 5, 6, 7, 8, 9, 10, 11, 12, 13, 14, 15, 16, 17, 18, 19, 20, 21, 22, 23, 24, 25, 26, 27, 28, 29, 30, 31, 32, 33, 34, 35, 36, 37, 38, 39, 40, 41, 42, 43, 44, 45, 46, 47, 48, 49, 50, 51, 52, 53, 54, 55, 56, 57, 58, 59, 60, 61, 62, 63, 64, 65, 66, 67, 68, 69, 70, 71, 72, 73, 74, 75, 76, 77, 78, 79, 80, 81, 82, 83, 84, 85, 86, 87, 88, 89, 90, 91, 92, 93, 94, 95, 96, 97, 98, 99, 100, 101, 102, 103, 104, 105, 106, 107, 108, 109, 110, 111, 112, 113, 114, 115, 116, 117, 118, 119, 120, 121, 122, 123, 124, 125, 126, 127, 128, 129, 130, 131, 132, 133, 134, 135, 136, 137, 138, 139, 140, 141, 142, 143, 144, 145, 146, 147, 148, 149, 150, 151, 152, 153, 154, 155, 156, 157, 158, 159, 160, 161, 162, 163, 164, 165, 166, 167, 168, 169, 170, 171, 172, 173, 174, 175, 176, 177, 178, 179, 180, 181, 182, 183, 184, 185, 186, 187, 188, 189, 190, 191, 192, 193, 194, 195, 196, 197, 198, 199, 200, 201, 202, 203, 204, 205, 206, 207, 208, 209, 210, 211, 212, 213, 214, 215, 216, 217, 218, 219, 220, 221, 222, 223, 224, 225, 226, 227, 228, 229, 230, 231, 232],
      "AcquisitionTime": ["144425.577500", "144427.577500", "144429.577500", "144431.577500", "144433.577500", "144435.577500", "144437.577500", "144439.577500", "144441.577500", "144443.577500", "144445.577500", "144447.577500", "144449.577500", "144451.577500", "144453.577500", "144455.577500", "144457.577500", "144459.577500", "144501.577500", "144503.577500", "144505.577500", "144507.577500", "144509.577500", "144511.577500", "144513.577500", "144515.577500", "144517.577500", "144519.577500", "144521.577500", "144523.577500", "144525.577500", "144527.577500", "144529.577500", "144531.577500", "144533.577500", "144535.577500", "144537.577500", "144539.577500", "144541.577500", "144543.577500", "144545.577500", "144547.577500", "144549.577500", "144551.577500", "144553.577500", "144555.577500", "144557.577500", "144559.577500", "144601.577500", "144603.577500", "144605.577500", "144607.577500", "144609.577500", "144611.577500", "144613.577500", "144615.577500", "144617.577500", "144619.577500", "144621.577500", "144623.577500", "144625.577500", "144627.577500", "144629.577500", "144631.577500", "144633.577500", "144635.577500", "144637.577500", "144639.577500", "144641.577500", "144643.577500", "144645.577500", "144647.577500", "144649.577500", "144651.577500", "144653.577500", "144655.577500", "144657.577500", "144659.577500", "144701.577500", "144703.577500", "144705.577500", "144707.577500", "144709.577500", "144711.577500", "144713.577500", "144715.577500", "144717.577500", "144719.577500", "144721.577500", "144723.577500", "144725.577500", "144727.577500", "144729.577500", "144731.577500", "144733.577500", "144735.577500", "144737.577500", "144739.577500", "144741.577500", "144743.577500", "144745.577500", "144747.577500", "144749.577500", "144751.577500", "144753.577500", "144755.577500", "144757.577500", "144759.577500", "144801.577500", "144803.577500", "144805.577500", "144807.577500", "144809.577500", "144811.577500", "144813.577500", "144815.577500", "144817.577500", "144819.577500", "144821.577500", "144823.577500", "144825.577500", "144827.577500", "144829.577500", "144831.577500", "144833.577500", "144835.577500", "144837.577500", "144839.577500", "144841.577500", "144843.577500", "144845.577500", "144847.577500", "144849.577500", "144851.577500", "144853.577500", "144855.577500", "144857.577500", "144859.577500", "144901.577500", "144903.577500", "144905.577500", "144907.577500", "144909.577500", "144911.577500", "144913.577500", "144915.577500", "144917.577500", "144919.577500", "144921.577500", "144923.577500", "144925.577500", "144927.577500", "144929.577500", "144931.577500", "144933.577500", "144935.577500", "144937.577500", "144939.577500", "144941.577500", "144943.577500", "144945.577500", "144947.577500", "144949.577500", "144951.577500", "144953.577500", "144955.577500", "144957.577500", "144959.577500", "145001.577500", "145003.577500", "145005.577500", "145007.577500", "145009.577500", "145011.577500", "145013.577500", "145015.577500", "145017.577500", "145019.577500", "145021.577500", "145023.577500", "145025.577500", "145027.577500", "145029.577500", "145031.577500", "145033.577500", "145035.577500", "145037.577500", "145039.577500", "145041.577500", "145043.577500", "145045.577500", "145047.577500", "145049.577500", "145051.577500", "145053.577500", "145055.577500", "145057.577500", "145059.577500", "145101.577500", "145103.577500", "145105.577500", "145107.577500", "145109.577500", "145111.577500", "145113.577500", "145115.577500", "145117.577500", "145119.577500", "145121.577500", "145123.577500", "145125.577500", "145127.577500", "145129.577500", "145131.577500", "145133.577500", "145135.577500", "145137.577500", "145139.577500", "145141.577500", "145143.577500", "145145.577500", "145147.577500", "145149.577500", "145151.577500", "145153.577500", "145155.577500", "145157.577500", "145159.577500", "145201.577500", "145203.577500", "145205.577500", "145207.577500"],
      "ContentTime": ["144428.017000", "144429.512000", "144431.512000", "144433.512000", "144435.512000", "144437.513000", "144439.513000", "144441.513000", "144443.513000", "144445.512000", "144447.512000", "144449.513000", "144451.512000", "144453.512000", "144455.512000", "144457.513000", "144459.512000", "144501.513000", "144503.512000", "144505.512000", "144507.512000", "144509.512000", "144511.513000", "144513.513000", "144515.513000", "144517.512000", "144519.513000", "144521.513000", "144523.512000", "144525.512000", "144527.512000", "144529.513000", "144531.513000", "144533.512000", "144535.512000", "144537.513000", "144539.513000", "144541.513000", "144543.512000", "144545.512000", "144547.512000", "144549.512000", "144551.513000", "144553.513000", "144555.513000", "144557.512000", "144559.512000", "144601.512000", "144603.512000", "144605.512000", "144607.513000", "144609.512000", "144611.513000", "144613.512000", "144615.513000", "144617.512000", "144619.512000", "144621.512000", "144623.512000", "144625.513000", "144627.512000", "144629.513000", "144631.512000", "144633.512000", "144635.513000", "144637.513000", "144639.512000", "144641.512000", "144643.512000", "144645.513000", "144647.512000", "144649.512000", "144651.512000", "144653.513000", "144655.513000", "144657.512000", "144659.512000", "144701.513000", "144703.512000", "144705.513000", "144707.512000", "144709.513000", "144711.512000", "144713.512000", "144715.512000", "144717.512000", "144719.512000", "144721.512000", "144723.513000", "144725.512000", "144727.512000", "144729.512000", "144731.513000", "144733.513000", "144735.512000", "144737.512000", "144739.512000", "144741.512000", "144743.512000", "144745.512000", "144747.513000", "144749.512000", "144751.512000", "144753.512000", "144755.513000", "144757.512000", "144759.512000", "144801.512000", "144803.513000", "144805.512000", "144807.512000", "144809.513000", "144811.512000", "144813.512000", "144815.513000", "144817.513000", "144819.512000", "144821.512000", "144823.513000", "144825.513000", "144827.513000", "144829.512000", "144831.512000", "144833.512000", "144835.512000", "144837.512000", "144839.512000", "144841.512000", "144843.513000", "144845.512000", "144847.512000", "144849.512000", "144851.512000", "144853.513000", "144855.513000", "144857.513000", "144859.513000", "144901.513000", "144903.512000", "144905.512000", "144907.512000", "144909.512000", "144911.512000", "144913.512000", "144915.513000", "144917.513000", "144919.513000", "144921.512000", "144923.512000", "144925.513000", "144927.512000", "144929.513000", "144931.512000", "144933.513000", "144935.512000", "144937.512000", "144939.512000", "144941.512000", "144943.512000", "144945.512000", "144947.512000", "144949.513000", "144951.512000", "144953.513000", "144955.513000", "144957.513000", "144959.512000", "145001.513000", "145003.513000", "145005.513000", "145007.512000", "145009.512000", "145011.513000", "145013.512000", "145015.513000", "145017.513000", "145019.513000", "145021.513000", "145023.512000", "145025.512000", "145027.513000", "145029.512000", "145031.512000", "145033.512000", "145035.512000", "145037.512000", "145039.513000", "145041.512000", "145043.512000", "145045.512000", "145047.512000", "145049.512000", "145051.512000", "145053.513000", "145055.512000", "145057.513000", "145059.513000", "145101.512000", "145103.512000", "145105.513000", "145107.512000", "145109.512000", "145111.512000", "145113.512000", "145115.513000", "145117.512000", "145119.512000", "145121.513000", "145123.512000", "145125.513000", "145127.513000", "145129.512000", "145131.512000", "145133.513000", "145135.513000", "145137.512000", "145139.513000", "145141.513000", "145143.512000", "145145.512000", "145147.512000", "145149.513000", "145151.512000", "145153.512000", "145155.512000", "145157.512000", "145159.513000", "145201.512000", "145203.513000", "145205.513000", "145207.513000", "145209.070000"],
      "InstanceCreationTime": ["144428.017000", "144429.512000", "144431.512000", "144433.512000", "144435.512000", "144437.513000", "144439.513000", "144441.513000", "144443.513000", "144445.512000", "144447.512000", "144449.513000", "144451.512000", "144453.512000", "144455.512000", "144457.513000", "144459.512000", "144501.513000", "144503.512000", "144505.512000", "144507.512000", "144509.512000", "144511.513000", "144513.513000", "144515.513000", "144517.512000", "144519.513000", "144521.513000", "144523.512000", "144525.512000", "144527.512000", "144529.513000", "144531.513000", "144533.512000", "144535.512000", "144537.513000", "144539.513000", "144541.513000", "144543.512000", "144545.512000", "144547.512000", "144549.512000", "144551.513000", "144553.513000", "144555.513000", "144557.512000", "144559.512000", "144601.512000", "144603.512000", "144605.512000", "144607.513000", "144609.512000", "144611.513000", "144613.512000", "144615.513000", "144617.512000", "144619.512000", "144621.512000", "144623.512000", "144625.513000", "144627.512000", "144629.513000", "144631.512000", "144633.512000", "144635.513000", "144637.513000", "144639.512000", "144641.512000", "144643.512000", "144645.513000", "144647.512000", "144649.512000", "144651.512000", "144653.513000", "144655.513000", "144657.512000", "144659.512000", "144701.513000", "144703.512000", "144705.513000", "144707.512000", "144709.513000", "144711.512000", "144713.512000", "144715.512000", "144717.512000", "144719.512000", "144721.512000", "144723.513000", "144725.512000", "144727.512000", "144729.512000", "144731.513000", "144733.513000", "144735.512000", "144737.512000", "144739.512000", "144741.512000", "144743.512000", "144745.512000", "144747.513000", "144749.512000", "144751.512000", "144753.512000", "144755.513000", "144757.512000", "144759.512000", "144801.512000", "144803.513000", "144805.512000", "144807.512000", "144809.513000", "144811.512000", "144813.512000", "144815.513000", "144817.513000", "144819.512000", "144821.512000", "144823.513000", "144825.513000", "144827.513000", "144829.512000", "144831.512000", "144833.512000", "144835.512000", "144837.512000", "144839.512000", "144841.512000", "144843.513000", "144845.512000", "144847.512000", "144849.512000", "144851.512000", "144853.513000", "144855.513000", "144857.513000", "144859.513000", "144901.513000", "144903.512000", "144905.512000", "144907.512000", "144909.512000", "144911.512000", "144913.512000", "144915.513000", "144917.513000", "144919.513000", "144921.512000", "144923.512000", "144925.513000", "144927.512000", "144929.513000", "144931.512000", "144933.513000", "144935.512000", "144937.512000", "144939.512000", "144941.512000", "144943.512000", "144945.512000", "144947.512000", "144949.513000", "144951.512000", "144953.513000", "144955.513000", "144957.513000", "144959.512000", "145001.513000", "145003.513000", "145005.513000", "145007.512000", "145009.512000", "145011.513000", "145013.512000", "145015.513000", "145017.513000", "145019.513000", "145021.513000", "145023.512000", "145025.512000", "145027.513000", "145029.512000", "145031.512000", "145033.512000", "145035.512000", "145037.512000", "145039.513000", "145041.512000", "145043.512000", "145045.512000", "145047.512000", "145049.512000", "145051.512000", "145053.513000", "145055.512000", "145057.513000", "145059.513000", "145101.512000", "145103.512000", "145105.513000", "145107.512000", "145109.512000", "145111.512000", "145113.512000", "145115.513000", "145117.512000", "145119.512000", "145121.513000", "145123.512000", "145125.513000", "145127.513000", "145129.512000", "145131.512000", "145133.513000", "145135.513000", "145137.512000", "145139.513000", "145141.513000", "145143.512000", "145145.512000", "145147.512000", "145149.513000", "145151.512000", "145153.512000", "145155.512000", "145157.512000", "145159.513000", "145201.512000", "145203.513000", "145205.513000", "145207.513000", "145209.070000"],
      "InstanceNumber": [1, 2, 3, 4, 5, 6, 7, 8, 9, 10, 11, 12, 13, 14, 15, 16, 17, 18, 19, 20, 21, 22, 23, 24, 25, 26, 27, 28, 29, 30, 31, 32, 33, 34, 35, 36, 37, 38, 39, 40, 41, 42, 43, 44, 45, 46, 47, 48, 49, 50, 51, 52, 53, 54, 55, 56, 57, 58, 59, 60, 61, 62, 63, 64, 65, 66, 67, 68, 69, 70, 71, 72, 73, 74, 75, 76, 77, 78, 79, 80, 81, 82, 83, 84, 85, 86, 87, 88, 89, 90, 91, 92, 93, 94, 95, 96, 97, 98, 99, 100, 101, 102, 103, 104, 105, 106, 107, 108, 109, 110, 111, 112, 113, 114, 115, 116, 117, 118, 119, 120, 121, 122, 123, 124, 125, 126, 127, 128, 129, 130, 131, 132, 133, 134, 135, 136, 137, 138, 139, 140, 141, 142, 143, 144, 145, 146, 147, 148, 149, 150, 151, 152, 153, 154, 155, 156, 157, 158, 159, 160, 161, 162, 163, 164, 165, 166, 167, 168, 169, 170, 171, 172, 173, 174, 175, 176, 177, 178, 179, 180, 181, 182, 183, 184, 185, 186, 187, 188, 189, 190, 191, 192, 193, 194, 195, 196, 197, 198, 199, 200, 201, 202, 203, 204, 205, 206, 207, 208, 209, 210, 211, 212, 213, 214, 215, 216, 217, 218, 219, 220, 221, 222, 223, 224, 225, 226, 227, 228, 229, 230, 231, 232],
      "LargestImagePixelValue": [2440, 2845, 2585, 2477, 2632, 2837, 3019, 3005, 2584, 2575, 3123, 2491, 2556, 3144, 2469, 2701, 2571, 3092, 2803, 2437, 2608, 2705, 2733, 2791, 2818, 3022, 2716, 2735, 2648, 2493, 2848, 2550, 2866, 2878, 2862, 2900, 2999, 2609, 2628, 2660, 2712, 3005, 2751, 2772, 2850, 2929, 2587, 2802, 2820, 2685, 2622, 2794, 2784, 2848, 2787, 2873, 2793, 2640, 2720, 2757, 2675, 2590, 2605, 2662, 2708, 2556, 2575, 2790, 2619, 2667, 2755, 2643, 2604, 2792, 2550, 2780, 2571, 2781, 2734, 2740, 2581, 2691, 2722, 2809, 2587, 2909, 2793, 2618, 2586, 2501, 2678, 2561, 2533, 2593, 2854, 2455, 2609, 3031, 3009, 3016, 2993, 3149, 2458, 2930, 2545, 2614, 2637, 3079, 2827, 2600, 2679, 2473, 2914, 2497, 2622, 2499, 3211, 2559, 3173, 2990, 2560, 2953, 2513, 2543, 2575, 3056, 2577, 2726, 2689, 2742, 2534, 2524, 2572, 2904, 3104, 2564, 2580, 2561, 2935, 2575, 2993, 2560, 2521, 2518, 2907, 2598, 2810, 2585, 2834, 2525, 2614, 2629, 2660, 2517, 2650, 2538, 2894, 3020, 2638, 3048, 2493, 2509, 3100, 2541, 2570, 2604, 2520, 2917, 2552, 3035, 3090, 2506, 2523, 2876, 2909, 3035, 2578, 2731, 2538, 2578, 3200, 2532, 2666, 2583, 3076, 2622, 3178, 2492, 3039, 2551, 2648, 2907, 2699, 2544, 2586, 2618, 2574, 3077, 2856, 2619, 2911, 2614, 2895, 2643, 3023, 2940, 2655, 2513, 2979, 2881, 2547, 2573, 2651, 2567, 2787, 2501, 2513, 2518, 2443, 2484, 2548, 2462, 2872, 2495, 2645, 2505, 2664, 2606, 2792, 2599, 2670, 2513],
      "WindowCenter": [714.0, 718.0, 715.0, 715.0, 716.0, 718.0, 720.0, 721.0, 718.0, 719.0, 724.0, 717.0, 718.0, 723.0, 717.0, 720.0, 717.0, 724.0, 718.0, 714.0, 716.0, 717.0, 716.0, 718.0, 718.0, 722.0, 710.0, 714.0, 713.0, 715.0, 714.0, 710.0, 718.0, 721.0, 721.0, 723.0, 723.0, 718.0, 716.0, 717.0, 718.0, 721.0, 718.0, 720.0, 720.0, 721.0, 717.0, 720.0, 722.0, 720.0, 717.0, 719.0, 719.0, 719.0, 718.0, 718.0, 718.0, 716.0, 718.0, 719.0, 717.0, 716.0, 715.0, 715.0, 715.0, 713.0, 714.0, 717.0, 714.0, 714.0, 716.0, 716.0, 716.0, 717.0, 713.0, 717.0, 716.0, 717.0, 715.0, 716.0, 717.0, 719.0, 720.0, 720.0, 716.0, 720.0, 720.0, 719.0, 717.0, 711.0, 713.0, 713.0, 710.0, 709.0, 713.0, 710.0, 711.0, 720.0, 718.0, 720.0, 722.0, 722.0, 714.0, 719.0, 715.0, 717.0, 718.0, 722.0, 719.0, 718.0, 718.0, 716.0, 722.0, 719.0, 720.0, 717.0, 724.0, 717.0, 721.0, 719.0, 715.0, 720.0, 715.0, 716.0, 717.0, 721.0, 717.0, 719.0, 719.0, 720.0, 719.0, 719.0, 719.0, 721.0, 722.0, 716.0, 716.0, 714.0, 713.0, 716.0, 716.0, 708.0, 711.0, 716.0, 719.0, 721.0, 722.0, 719.0, 720.0, 716.0, 720.0, 720.0, 721.0, 719.0, 719.0, 717.0, 721.0, 722.0, 718.0, 722.0, 717.0, 718.0, 724.0, 718.0, 717.0, 716.0, 715.0, 719.0, 716.0, 721.0, 723.0, 717.0, 716.0, 720.0, 719.0, 720.0, 715.0, 717.0, 718.0, 720.0, 725.0, 717.0, 719.0, 719.0, 724.0, 717.0, 722.0, 718.0, 725.0, 721.0, 722.0, 724.0, 721.0, 719.0, 719.0, 720.0, 718.0, 722.0, 719.0, 716.0, 719.0, 716.0, 718.0, 711.0, 715.0, 715.0, 717.0, 713.0, 719.0, 720.0, 715.0, 715.0, 716.0, 715.0, 715.0, 712.0, 712.0, 713.0, 712.0, 713.0, 714.0, 712.0, 717.0, 713.0, 714.0, 712.0, 714.0, 714.0, 717.0, 714.0, 714.0, 713.0],
      "WindowWidth": [1503.0, 1510.0, 1505.0, 1505.0, 1507.0, 1510.0, 1514.0, 1516.0, 1511.0, 1513.0, 1523.0, 1509.0, 1510.0, 1522.0, 1510.0, 1515.0, 1510.0, 1524.0, 1510.0, 1504.0, 1506.0, 1509.0, 1505.0, 1511.0, 1511.0, 1520.0, 1493.0, 1502.0, 1499.0, 1506.0, 1502.0, 1493.0, 1510.0, 1518.0, 1517.0, 1521.0, 1521.0, 1510.0, 1506.0, 1508.0, 1511.0, 1517.0, 1511.0, 1515.0, 1514.0, 1517.0, 1508.0, 1515.0, 1518.0, 1514.0, 1509.0, 1512.0, 1512.0, 1512.0, 1510.0, 1511.0, 1509.0, 1507.0, 1511.0, 1513.0, 1509.0, 1506.0, 1504.0, 1505.0, 1505.0, 1501.0, 1501.0, 1508.0, 1503.0, 1502.0, 1506.0, 1507.0, 1507.0, 1507.0, 1500.0, 1507.0, 1506.0, 1508.0, 1505.0, 1506.0, 1508.0, 1513.0, 1516.0, 1513.0, 1506.0, 1514.0, 1514.0, 1513.0, 1509.0, 1495.0, 1499.0, 1499.0, 1493.0, 1491.0, 1498.0, 1494.0, 1494.0, 1513.0, 1510.0, 1515.0, 1517.0, 1518.0, 1502.0, 1511.0, 1504.0, 1509.0, 1512.0, 1519.0, 1514.0, 1511.0, 1511.0, 1508.0, 1519.0, 1513.0, 1514.0, 1510.0, 1524.0, 1507.0, 1517.0, 1513.0, 1503.0, 1514.0, 1506.0, 1506.0, 1509.0, 1517.0, 1509.0, 1514.0, 1513.0, 1516.0, 1513.0, 1513.0, 1514.0, 1517.0, 1518.0, 1507.0, 1506.0, 1503.0, 1499.0, 1507.0, 1504.0, 1489.0, 1496.0, 1508.0, 1512.0, 1517.0, 1519.0, 1513.0, 1515.0, 1507.0, 1515.0, 1516.0, 1517.0, 1513.0, 1513.0, 1509.0, 1517.0, 1518.0, 1510.0, 1518.0, 1509.0, 1510.0, 1522.0, 1511.0, 1508.0, 1507.0, 1503.0, 1513.0, 1505.0, 1516.0, 1520.0, 1509.0, 1507.0, 1514.0, 1512.0, 1513.0, 1505.0, 1509.0, 1511.0, 1516.0, 1525.0, 1509.0, 1512.0, 1513.0, 1523.0, 1510.0, 1519.0, 1511.0, 1524.0, 1516.0, 1520.0, 1523.0, 1517.0, 1512.0, 1512.0, 1514.0, 1512.0, 1518.0, 1512.0, 1506.0, 1511.0, 1506.0, 1510.0, 1496.0, 1503.0, 1502.0, 1509.0, 1500.0, 1511.0, 1514.0, 1505.0, 1505.0, 1506.0, 1503.0, 1503.0, 1497.0, 1496.0, 1500.0, 1498.0, 1499.0, 1501.0, 1498.0, 1508.0, 1500.0, 1502.0, 1496.0, 1502.0, 1503.0, 1508.0, 1502.0, 1502.0, 1499.0]
    },
    "slices": {}
  }
}