{
  "AcquisitionMatrixPE": 100,
  "AcquisitionNumber": 1,
  "AcquisitionTime": "14:35:50.012500",
  "BandwidthPerPixelPhaseEncode": 18.519,
  "BaseResolution": 100,
  "BodyPartExamined": "BRAIN",
  "ConsistencyInfo": "N4_VE11C_LATEST_20160120",
  "ConversionSoftware": "dcm2niix",
  "ConversionSoftwareVersion": "v1.0.20180622 GCC4.9.2",
  "DerivedVendorReportedEchoSpacing": 0.000539986,
  "DeviceSerialNumber": "166078",
  "DwellTime": 2.1e-06,
  "EchoTime": 0.034,
  "EchoTrainLength": 100,
  "EffectiveEchoSpacing": 0.000539986,
  "FlipAngle": 90,
  "ImageOrientationPatientDICOM": [1, -1.01356e-05, -8.53285e-05, -3.81617e-08, 0.992967, -0.118395],
  "ImageType": [
    "ORIGINAL",
    "PRIMARY",
    "M",
    "ND",
    "MOSAIC"
],
  "InPlanePhaseEncodingDirectionDICOM": "COL",
  "InstitutionAddress": "Street_StreetNo_Bei_Jing_District_CN_ZIP",
  "InstitutionName": "BeiJing_Normal_University",
  "InstitutionalDepartmentName": "Department",
  "MRAcquisitionType": "2D",
  "MagneticFieldStrength": 3,
  "Manufacturer": "Siemens",
  "ManufacturersModelName": "Prisma",
  "Modality": "MR",
  "MultibandAccelerationFactor": 3,
  "PartialFourier": 1,
  "PatientPosition": "HFS",
  "PercentPhaseFOV": 100,
  "PhaseEncodingDirection": "j-",
  "PhaseEncodingSteps": 100,
  "PhaseResolution": 1,
  "PixelBandwidth": 2380,
  "ProcedureStepDescription": "BNU_P2018_64CH_Liu.Jia",
  "ProtocolName": "bold_100x100_s3_2x2x2_232",
  "PulseSequenceDetails": "%SiemensSeq%_ep2d_bold",
  "ReceiveCoilActiveElements": "HC1-7;NC1",
  "ReceiveCoilName": "HeadNeck_64",
  "ReconMatrixPE": 100,
  "RepetitionTime": 2,
  "SAR": 0.0766465,
  "ScanOptions": "FS",
  "ScanningSequence": "EP",
  "SequenceName": "_epfid2d1_100",
  "SequenceVariant": "SK",
  "SeriesDescription": "bold_100x100_s3_2x2x2_232",
  "SeriesNumber": 9,
  "ShimSetting": [-5457, -11497, -1270, 268, -74, -269, -46, 64],
  "SliceThickness": 2,
  "SliceTiming": [1.485, 0, 0.99, 0.0825, 1.0725, 0.165, 1.155, 0.2475, 1.2375, 0.33, 1.32, 0.4125, 1.4025, 0.5775, 1.5675, 0.66, 1.65, 0.7425, 1.7325, 0.825, 1.815, 0.9075, 1.8975, 0.495, 1.485, 0, 0.99, 0.0825, 1.0725, 0.165, 1.155, 0.2475, 1.2375, 0.33, 1.32, 0.4125, 1.4025, 0.5775, 1.5675, 0.66, 1.65, 0.7425, 1.7325, 0.825, 1.815, 0.9075, 1.8975, 0.495, 1.485, 0, 0.99, 0.0825, 1.0725, 0.165, 1.155, 0.2475, 1.2375, 0.33, 1.32, 0.4125, 1.4025, 0.5775, 1.5675, 0.66, 1.65, 0.7425, 1.7325, 0.825, 1.815, 0.9075, 1.8975, 0.495],
  "SoftwareVersions": "syngo_MR_E11",
  "SpacingBetweenSlices": 2,
  "StationName": "AWP166078",
  "TaskName": "motor",
  "TotalReadoutTime": 0.0534586,
  "TxRefAmp": 240.306,
  "dcmmeta_affine": [
    [-2.0, -7.632348086872298e-08, -0.0001718566782074049, 99.35401916503906],
    [2.0271207176847383e-05, 1.9859330654144287, -0.236790269613266, -81.42960357666016],
    [-0.00017065696010831743, 0.236790269613266, 1.9859330654144287, -83.61776733398438],
    [0.0, 0.0, 0.0, 1.0]
],
  "dcmmeta_reorient_transform": [
    [0.0, -1.0, 0.0, 99.0],
    [1.0, 0.0, 0.0, 0.0],
    [0.0, 0.0, 1.0, 0.0],
    [0.0, 0.0, 0.0, 1.0]
],
  "dcmmeta_shape": [100, 100, 72, 232],
  "dcmmeta_slice_dim": 2,
  "dcmmeta_version": 0.6,
  "global": {
    "const": {
      "AcquisitionMatrix": [100, 0, 0, 100],
      "AngioFlag": "N",
      "BitsAllocated": 16,
      "BitsStored": 12,
      "BodyPartExamined": "BRAIN",
      "Columns": 900,
      "EchoNumbers": 1,
      "EchoTime": 34.0,
      "EchoTrainLength": 100,
      "FlipAngle": 90.0,
      "HighBit": 11,
      "ImageOrientationPatient": [0.99999999630816, -1.01356034e-05, -8.53284821e-05, -3.8161742e-08, 0.99296656160156, -0.1183951330975],
      "ImagePositionPatient": [-899.35397464228, -909.54291783591, 34.608840592543],
      "ImageType": [
        "ORIGINAL",
        "PRIMARY",
        "M",
        "ND",
        "MOSAIC"
],
      "ImagedNucleus": "1H",
      "ImagingFrequency": 123.257834,
      "InPlanePhaseEncodingDirection": "COL",
      "MRAcquisitionType": "2D",
      "MagneticFieldStrength": 3.0,
      "Manufacturer": "SIEMENS",
      "ManufacturerModelName": "Prisma",
      "Modality": "MR",
      "NumberOfAverages": 1.0,
      "NumberOfPhaseEncodingSteps": 100,
      "PercentPhaseFieldOfView": 100.0,
      "PercentSampling": 100.0,
      "PerformedProcedureStepStartTime": "135455.062000",
      "PhotometricInterpretation": "MONOCHROME2",
      "PixelBandwidth": 2380.0,
      "PixelRepresentation": 0,
      "PixelSpacing": [2.0, 2.0],
      "ProtocolName": "bold_100x100_s3_2x2x2_232",
      "RepetitionTime": 2000.0,
      "Rows": 900,
      "SAR": 0.0766465386841,
      "SamplesPerPixel": 1,
      "ScanOptions": "FS",
      "ScanningSequence": "EP",
      "SequenceName": "*epfid2d1_100",
      "SequenceVariant": "SK",
      "SeriesDescription": "bold_100x100_s3_2x2x2_232",
      "SeriesNumber": 9,
      "SeriesTime": "143551.896000",
      "SliceLocation": -73.397313093319,
      "SliceThickness": 2.0,
      "SmallestImagePixelValue": 0,
      "SoftwareVersions": "syngo MR E11",
      "SpacingBetweenSlices": 1.9999999994787,
      "SpecificCharacterSet": "ISO_IR 100",
      "StudyID": "1",
      "StudyTime": "135454.989000",
      "TransmitCoilName": "Body",
      "VariableFlipAngleFlag": "N",
      "WindowCenterWidthExplanation": "Algo1",
      "dBdt": 0.0},
    "slices": {}
  },
  "time": {
    "samples": {
      "AcquisitionNumber": [1, 2, 3, 4, 5, 6, 7, 8, 9, 10, 11, 12, 13, 14, 15, 16, 17, 18, 19, 20, 21, 22, 23, 24, 25, 26, 27, 28, 29, 30, 31, 32, 33, 34, 35, 36, 37, 38, 39, 40, 41, 42, 43, 44, 45, 46, 47, 48, 49, 50, 51, 52, 53, 54, 55, 56, 57, 58, 59, 60, 61, 62, 63, 64, 65, 66, 67, 68, 69, 70, 71, 72, 73, 74, 75, 76, 77, 78, 79, 80, 81, 82, 83, 84, 85, 86, 87, 88, 89, 90, 91, 92, 93, 94, 95, 96, 97, 98, 99, 100, 101, 102, 103, 104, 105, 106, 107, 108, 109, 110, 111, 112, 113, 114, 115, 116, 117, 118, 119, 120, 121, 122, 123, 124, 125, 126, 127, 128, 129, 130, 131, 132, 133, 134, 135, 136, 137, 138, 139, 140, 141, 142, 143, 144, 145, 146, 147, 148, 149, 150, 151, 152, 153, 154, 155, 156, 157, 158, 159, 160, 161, 162, 163, 164, 165, 166, 167, 168, 169, 170, 171, 172, 173, 174, 175, 176, 177, 178, 179, 180, 181, 182, 183, 184, 185, 186, 187, 188, 189, 190, 191, 192, 193, 194, 195, 196, 197, 198, 199, 200, 201, 202, 203, 204, 205, 206, 207, 208, 209, 210, 211, 212, 213, 214, 215, 216, 217, 218, 219, 220, 221, 222, 223, 224, 225, 226, 227, 228, 229, 230, 231, 232],
      "AcquisitionTime": ["143550.012500", "143552.012500", "143554.012500", "143556.012500", "143558.012500", "143600.012500", "143602.012500", "143604.012500", "143606.012500", "143608.012500", "143610.012500", "143612.012500", "143614.012500", "143616.012500", "143618.012500", "143620.012500", "143622.012500", "143624.012500", "143626.012500", "143628.012500", "143630.012500", "143632.012500", "143634.012500", "143636.012500", "143638.012500", "143640.012500", "143642.012500", "143644.012500", "143646.012500", "143648.012500", "143650.012500", "143652.012500", "143654.012500", "143656.012500", "143658.012500", "143700.012500", "143702.012500", "143704.012500", "143706.012500", "143708.012500", "143710.012500", "143712.012500", "143714.012500", "143716.012500", "143718.012500", "143720.012500", "143722.012500", "143724.012500", "143726.012500", "143728.012500", "143730.012500", "143732.012500", "143734.012500", "143736.012500", "143738.012500", "143740.012500", "143742.012500", "143744.012500", "143746.012500", "143748.012500", "143750.012500", "143752.012500", "143754.012500", "143756.012500", "143758.012500", "143800.012500", "143802.012500", "143804.012500", "143806.012500", "143808.012500", "143810.012500", "143812.012500", "143814.012500", "143816.012500", "143818.012500", "143820.012500", "143822.012500", "143824.012500", "143826.012500", "143828.012500", "143830.012500", "143832.012500", "143834.012500", "143836.012500", "143838.012500", "143840.012500", "143842.012500", "143844.012500", "143846.012500", "143848.012500", "143850.012500", "143852.012500", "143854.012500", "143856.012500", "143858.012500", "143900.012500", "143902.012500", "143904.012500", "143906.012500", "143908.012500", "143910.012500", "143912.012500", "143914.012500", "143916.012500", "143918.012500", "143920.012500", "143922.012500", "143924.012500", "143926.012500", "143928.012500", "143930.012500", "143932.012500", "143934.012500", "143936.012500", "143938.012500", "143940.012500", "143942.012500", "143944.012500", "143946.012500", "143948.012500", "143950.012500", "143952.012500", "143954.012500", "143956.012500", "143958.012500", "144000.012500", "144002.012500", "144004.012500", "144006.012500", "144008.012500", "144010.012500", "144012.012500", "144014.012500", "144016.012500", "144018.012500", "144020.012500", "144022.012500", "144024.012500", "144026.012500", "144028.012500", "144030.012500", "144032.012500", "144034.012500", "144036.012500", "144038.012500", "144040.012500", "144042.012500", "144044.012500", "144046.012500", "144048.012500", "144050.012500", "144052.012500", "144054.012500", "144056.012500", "144058.012500", "144100.012500", "144102.012500", "144104.012500", "144106.012500", "144108.012500", "144110.012500", "144112.012500", "144114.012500", "144116.012500", "144118.012500", "144120.012500", "144122.012500", "144124.012500", "144126.012500", "144128.012500", "144130.012500", "144132.012500", "144134.012500", "144136.012500", "144138.012500", "144140.012500", "144142.012500", "144144.012500", "144146.012500", "144148.012500", "144150.012500", "144152.012500", "144154.012500", "144156.012500", "144158.012500", "144200.012500", "144202.012500", "144204.012500", "144206.012500", "144208.012500", "144210.012500", "144212.012500", "144214.012500", "144216.012500", "144218.012500", "144220.012500", "144222.012500", "144224.012500", "144226.012500", "144228.012500", "144230.012500", "144232.012500", "144234.012500", "144236.012500", "144238.012500", "144240.012500", "144242.012500", "144244.012500", "144246.012500", "144248.012500", "144250.012500", "144252.012500", "144254.012500", "144256.012500", "144258.012500", "144300.012500", "144302.012500", "144304.012500", "144306.012500", "144308.012500", "144310.012500", "144312.012500", "144314.012500", "144316.012500", "144318.012500", "144320.012500", "144322.012500", "144324.012500", "144326.012500", "144328.012500", "144330.012500", "144332.012500"],
      "ContentTime": ["143551.900000", "143553.894000", "143555.894000", "143557.894000", "143559.894000", "143601.895000", "143603.895000", "143605.395000", "143607.895000", "143609.395000", "143611.394000", "143613.394000", "143615.895000", "143617.895000", "143619.895000", "143621.896000", "143623.895000", "143625.395000", "143627.894000", "143629.894000", "143631.395000", "143633.894000", "143635.895000", "143637.895000", "143639.395000", "143641.895000", "143643.896000", "143645.895000", "143647.894000", "143649.895000", "143651.894000", "143653.896000", "143655.395000", "143657.895000", "143659.395000", "143701.895000", "143703.894000", "143705.894000", "143707.395000", "143709.894000", "143711.895000", "143713.395000", "143715.895000", "143717.395000", "143719.895000", "143721.394000", "143723.894000", "143725.394000", "143727.394000", "143729.395000", "143731.895000", "143733.395000", "143735.896000", "143737.894000", "143739.394000", "143741.394000", "143743.894000", "143745.895000", "143747.895000", "143749.895000", "143751.395000", "143753.896000", "143755.395000", "143757.395000", "143759.394000", "143801.894000", "143803.896000", "143805.895000", "143807.896000", "143809.395000", "143811.895000", "143813.894000", "143815.395000", "143817.894000", "143819.394000", "143821.896000", "143823.895000", "143825.895000", "143827.896000", "143829.896000", "143831.894000", "143833.394000", "143835.894000", "143837.895000", "143839.895000", "143841.895000", "143843.895000", "143845.396000", "143847.894000", "143849.394000", "143851.894000", "143853.894000", "143855.896000", "143857.896000", "143859.895000", "143901.895000", "143903.397000", "143905.394000", "143907.894000", "143909.394000", "143911.894000", "143913.896000", "143915.896000", "143917.895000", "143919.895000", "143921.396000", "143923.895000", "143925.395000", "143927.894000", "143929.894000", "143931.396000", "143933.396000", "143935.395000", "143937.395000", "143939.395000", "143941.894000", "143943.895000", "143945.894000", "143947.895000", "143949.895000", "143951.896000", "143953.395000", "143955.395000", "143957.894000", "143959.895000", "144001.894000", "144003.895000", "144005.895000", "144007.395000", "144009.395000", "144011.395000", "144013.895000", "144015.895000", "144017.895000", "144019.894000", "144021.895000", "144023.895000", "144025.895000", "144027.896000", "144029.895000", "144031.395000", "144033.394000", "144035.894000", "144037.895000", "144039.394000", "144041.395000", "144043.895000", "144045.395000", "144047.395000", "144049.895000", "144051.395000", "144053.894000", "144055.395000", "144057.894000", "144059.395000", "144101.896000", "144103.895000", "144105.896000", "144107.894000", "144109.895000", "144111.894000", "144113.894000", "144115.394000", "144117.895000", "144119.895000", "144121.896000", "144123.895000", "144125.395000", "144127.895000", "144129.394000", "144131.895000", "144133.896000", "144135.395000", "144137.395000", "144139.395000", "144141.395000", "144143.894000", "144145.394000", "144147.395000", "144149.394000", "144151.396000", "144153.395000", "144155.395000", "144157.896000", "144159.895000", "144201.895000", "144203.895000", "144205.394000", "144207.394000", "144209.895000", "144211.395000", "144213.896000", "144215.396000", "144217.395000", "144219.895000", "144221.395000", "144223.395000", "144225.395000", "144227.916000", "144229.895000", "144231.896000", "144233.895000", "144235.894000", "144237.895000", "144239.894000", "144241.895000", "144243.395000", "144245.895000", "144247.895000", "144249.895000", "144251.896000", "144253.894000", "144255.894000", "144257.895000", "144259.895000", "144301.895000", "144303.896000", "144305.396000", "144307.895000", "144309.896000", "144311.894000", "144313.895000", "144315.394000", "144317.896000", "144319.896000", "144321.896000", "144323.895000", "144325.895000", "144327.394000", "144329.394000", "144331.894000", "144333.380000"],
      "InstanceCreationTime": ["143551.900000", "143553.894000", "143555.894000", "143557.894000", "143559.894000", "143601.895000", "143603.895000", "143605.395000", "143607.895000", "143609.395000", "143611.394000", "143613.394000", "143615.895000", "143617.895000", "143619.895000", "143621.896000", "143623.895000", "143625.395000", "143627.894000", "143629.894000", "143631.395000", "143633.894000", "143635.895000", "143637.895000", "143639.395000", "143641.895000", "143643.896000", "143645.895000", "143647.894000", "143649.895000", "143651.894000", "143653.896000", "143655.395000", "143657.895000", "143659.395000", "143701.895000", "143703.894000", "143705.894000", "143707.395000", "143709.894000", "143711.895000", "143713.395000", "143715.895000", "143717.395000", "143719.895000", "143721.394000", "143723.894000", "143725.394000", "143727.394000", "143729.395000", "143731.895000", "143733.395000", "143735.896000", "143737.894000", "143739.394000", "143741.394000", "143743.894000", "143745.895000", "143747.895000", "143749.895000", "143751.395000", "143753.896000", "143755.395000", "143757.395000", "143759.394000", "143801.894000", "143803.896000", "143805.895000", "143807.896000", "143809.395000", "143811.895000", "143813.894000", "143815.395000", "143817.894000", "143819.394000", "143821.896000", "143823.895000", "143825.895000", "143827.896000", "143829.896000", "143831.894000", "143833.394000", "143835.894000", "143837.895000", "143839.895000", "143841.895000", "143843.895000", "143845.396000", "143847.894000", "143849.394000", "143851.894000", "143853.894000", "143855.896000", "143857.896000", "143859.895000", "143901.895000", "143903.397000", "143905.394000", "143907.894000", "143909.394000", "143911.894000", "143913.896000", "143915.896000", "143917.895000", "143919.895000", "143921.396000", "143923.895000", "143925.395000", "143927.894000", "143929.894000", "143931.396000", "143933.396000", "143935.395000", "143937.395000", "143939.395000", "143941.894000", "143943.895000", "143945.894000", "143947.895000", "143949.895000", "143951.896000", "143953.395000", "143955.395000", "143957.894000", "143959.895000", "144001.894000", "144003.895000", "144005.895000", "144007.395000", "144009.395000", "144011.395000", "144013.895000", "144015.895000", "144017.895000", "144019.894000", "144021.895000", "144023.895000", "144025.895000", "144027.896000", "144029.895000", "144031.395000", "144033.394000", "144035.894000", "144037.895000", "144039.394000", "144041.395000", "144043.895000", "144045.395000", "144047.395000", "144049.895000", "144051.395000", "144053.894000", "144055.395000", "144057.894000", "144059.395000", "144101.896000", "144103.895000", "144105.896000", "144107.894000", "144109.895000", "144111.894000", "144113.894000", "144115.394000", "144117.895000", "144119.895000", "144121.896000", "144123.895000", "144125.395000", "144127.895000", "144129.394000", "144131.895000", "144133.896000", "144135.395000", "144137.395000", "144139.395000", "144141.395000", "144143.894000", "144145.394000", "144147.395000", "144149.394000", "144151.396000", "144153.395000", "144155.395000", "144157.896000", "144159.895000", "144201.895000", "144203.895000", "144205.394000", "144207.394000", "144209.895000", "144211.395000", "144213.896000", "144215.396000", "144217.395000", "144219.895000", "144221.395000", "144223.395000", "144225.395000", "144227.916000", "144229.895000", "144231.896000", "144233.895000", "144235.894000", "144237.895000", "144239.894000", "144241.895000", "144243.395000", "144245.895000", "144247.895000", "144249.895000", "144251.896000", "144253.894000", "144255.894000", "144257.895000", "144259.895000", "144301.895000", "144303.896000", "144305.396000", "144307.895000", "144309.896000", "144311.894000", "144313.895000", "144315.394000", "144317.896000", "144319.896000", "144321.896000", "144323.895000", "144325.895000", "144327.394000", "144329.394000", "144331.894000", "144333.380000"],
      "InstanceNumber": [1, 2, 3, 4, 5, 6, 7, 8, 9, 10, 11, 12, 13, 14, 15, 16, 17, 18, 19, 20, 21, 22, 23, 24, 25, 26, 27, 28, 29, 30, 31, 32, 33, 34, 35, 36, 37, 38, 39, 40, 41, 42, 43, 44, 45, 46, 47, 48, 49, 50, 51, 52, 53, 54, 55, 56, 57, 58, 59, 60, 61, 62, 63, 64, 65, 66, 67, 68, 69, 70, 71, 72, 73, 74, 75, 76, 77, 78, 79, 80, 81, 82, 83, 84, 85, 86, 87, 88, 89, 90, 91, 92, 93, 94, 95, 96, 97, 98, 99, 100, 101, 102, 103, 104, 105, 106, 107, 108, 109, 110, 111, 112, 113, 114, 115, 116, 117, 118, 119, 120, 121, 122, 123, 124, 125, 126, 127, 128, 129, 130, 131, 132, 133, 134, 135, 136, 137, 138, 139, 140, 141, 142, 143, 144, 145, 146, 147, 148, 149, 150, 151, 152, 153, 154, 155, 156, 157, 158, 159, 160, 161, 162, 163, 164, 165, 166, 167, 168, 169, 170, 171, 172, 173, 174, 175, 176, 177, 178, 179, 180, 181, 182, 183, 184, 185, 186, 187, 188, 189, 190, 191, 192, 193, 194, 195, 196, 197, 198, 199, 200, 201, 202, 203, 204, 205, 206, 207, 208, 209, 210, 211, 212, 213, 214, 215, 216, 217, 218, 219, 220, 221, 222, 223, 224, 225, 226, 227, 228, 229, 230, 231, 232],
      "LargestImagePixelValue": [2716, 2712, 2771, 2720, 2734, 2687, 2791, 2715, 2704, 2778, 2675, 2658, 2720, 2849, 2736, 2662, 2744, 2703, 2776, 2718, 2701, 2679, 2542, 2567, 2860, 2544, 2605, 2647, 2637, 2701, 3003, 2880, 2640, 2873, 2627, 2831, 2931, 2754, 2676, 2855, 2874, 2491, 2533, 2500, 2447, 2668, 2526, 3038, 2775, 2485, 3094, 2447, 2586, 2703, 3170, 2522, 2544, 2567, 2494, 2546, 2746, 2513, 2496, 2471, 2863, 2849, 2863, 2695, 2481, 2501, 2573, 2518, 2902, 2934, 2759, 3072, 2835, 2622, 3061, 2463, 3091, 2668, 2534, 3145, 2743, 2524, 3087, 2490, 2517, 2985, 2976, 2557, 3057, 2640, 2941, 2664, 2571, 2811, 2585, 2912, 2592, 2670, 2640, 2664, 2615, 3076, 3001, 2849, 2581, 2498, 2782, 3065, 2530, 3058, 2526, 3020, 2571, 2525, 2993, 2881, 2491, 2589, 2598, 3080, 2962, 2510, 2765, 2541, 3074, 2559, 2881, 2529, 3019, 2496, 3096, 2540, 3097, 2516, 2582, 2652, 2621, 2708, 3084, 2579, 2589, 3100, 2528, 2492, 2528, 2487, 3091, 2451, 3087, 2513, 3191, 2852, 2576, 3093, 2538, 3044, 2697, 2692, 2991, 2887, 2797, 2757, 2707, 2849, 2588, 2987, 2664, 2934, 2976, 2642, 2507, 2582, 2880, 2520, 2637, 2542, 2584, 2734, 2861, 2499, 2893, 2623, 2692, 2537, 2927, 2636, 2526, 2698, 3002, 2481, 2940, 2852, 2657, 2883, 2900, 2572, 2741, 2895, 2923, 2870, 2761, 3059, 2806, 2913, 2803, 2829, 2708, 2954, 2738, 2581, 2549, 2536, 2530, 2523, 3038, 2553, 2977, 2610, 2804, 3021, 2540, 2621, 2474, 2551, 2450, 2949, 2731, 2517],
      "WindowCenter": [721.0, 720.0, 721.0, 722.0, 722.0, 722.0, 723.0, 722.0, 723.0, 724.0, 722.0, 722.0, 724.0, 725.0, 724.0, 724.0, 726.0, 724.0, 722.0, 723.0, 721.0, 723.0, 717.0, 721.0, 724.0, 721.0, 721.0, 721.0, 722.0, 724.0, 727.0, 725.0, 722.0, 724.0, 722.0, 723.0, 723.0, 721.0, 721.0, 721.0, 720.0, 718.0, 719.0, 719.0, 718.0, 720.0, 717.0, 722.0, 719.0, 716.0, 723.0, 717.0, 720.0, 721.0, 725.0, 718.0, 718.0, 720.0, 719.0, 719.0, 720.0, 717.0, 715.0, 714.0, 720.0, 719.0, 718.0, 719.0, 715.0, 714.0, 716.0, 716.0, 722.0, 723.0, 722.0, 724.0, 723.0, 720.0, 726.0, 719.0, 725.0, 720.0, 717.0, 726.0, 724.0, 720.0, 724.0, 719.0, 719.0, 724.0, 724.0, 720.0, 726.0, 719.0, 723.0, 721.0, 721.0, 724.0, 721.0, 724.0, 720.0, 720.0, 720.0, 720.0, 720.0, 723.0, 721.0, 720.0, 717.0, 714.0, 719.0, 723.0, 717.0, 724.0, 718.0, 724.0, 719.0, 718.0, 723.0, 721.0, 718.0, 719.0, 719.0, 723.0, 720.0, 711.0, 721.0, 715.0, 723.0, 718.0, 723.0, 718.0, 724.0, 718.0, 724.0, 719.0, 725.0, 719.0, 719.0, 721.0, 721.0, 720.0, 723.0, 718.0, 718.0, 723.0, 717.0, 717.0, 719.0, 718.0, 723.0, 716.0, 723.0, 718.0, 725.0, 722.0, 719.0, 723.0, 717.0, 722.0, 719.0, 720.0, 724.0, 722.0, 721.0, 720.0, 720.0, 723.0, 719.0, 723.0, 722.0, 725.0, 723.0, 719.0, 714.0, 714.0, 718.0, 715.0, 719.0, 720.0, 722.0, 722.0, 722.0, 718.0, 724.0, 722.0, 723.0, 721.0, 724.0, 721.0, 719.0, 721.0, 724.0, 716.0, 722.0, 720.0, 716.0, 721.0, 720.0, 717.0, 720.0, 722.0, 721.0, 719.0, 721.0, 725.0, 721.0, 723.0, 721.0, 721.0, 717.0, 723.0, 716.0, 717.0, 715.0, 714.0, 715.0, 715.0, 721.0, 717.0, 722.0, 717.0, 719.0, 723.0, 718.0, 719.0, 717.0, 717.0, 714.0, 720.0, 719.0, 716.0],
      "WindowWidth": [1519.0, 1517.0, 1519.0, 1520.0, 1521.0, 1520.0, 1522.0, 1521.0, 1523.0, 1525.0, 1520.0, 1521.0, 1526.0, 1527.0, 1526.0, 1525.0, 1529.0, 1527.0, 1519.0, 1524.0, 1518.0, 1524.0, 1509.0, 1518.0, 1525.0, 1520.0, 1520.0, 1519.0, 1522.0, 1525.0, 1532.0, 1527.0, 1522.0, 1525.0, 1522.0, 1523.0, 1522.0, 1518.0, 1518.0, 1519.0, 1516.0, 1511.0, 1515.0, 1515.0, 1513.0, 1516.0, 1509.0, 1519.0, 1514.0, 1508.0, 1522.0, 1510.0, 1516.0, 1518.0, 1527.0, 1512.0, 1513.0, 1515.0, 1514.0, 1513.0, 1517.0, 1509.0, 1505.0, 1504.0, 1515.0, 1513.0, 1511.0, 1512.0, 1506.0, 1504.0, 1507.0, 1509.0, 1520.0, 1522.0, 1520.0, 1525.0, 1521.0, 1517.0, 1529.0, 1514.0, 1527.0, 1517.0, 1510.0, 1528.0, 1525.0, 1516.0, 1525.0, 1514.0, 1514.0, 1524.0, 1525.0, 1516.0, 1527.0, 1515.0, 1523.0, 1519.0, 1519.0, 1525.0, 1518.0, 1525.0, 1516.0, 1517.0, 1517.0, 1516.0, 1515.0, 1521.0, 1517.0, 1516.0, 1509.0, 1504.0, 1513.0, 1521.0, 1510.0, 1524.0, 1512.0, 1524.0, 1515.0, 1513.0, 1521.0, 1517.0, 1511.0, 1515.0, 1514.0, 1521.0, 1516.0, 1497.0, 1518.0, 1505.0, 1523.0, 1511.0, 1522.0, 1512.0, 1523.0, 1513.0, 1525.0, 1514.0, 1526.0, 1514.0, 1516.0, 1519.0, 1519.0, 1517.0, 1522.0, 1512.0, 1510.0, 1522.0, 1510.0, 1511.0, 1514.0, 1513.0, 1522.0, 1508.0, 1522.0, 1513.0, 1526.0, 1519.0, 1514.0, 1522.0, 1509.0, 1519.0, 1514.0, 1516.0, 1523.0, 1520.0, 1517.0, 1515.0, 1516.0, 1523.0, 1514.0, 1521.0, 1519.0, 1525.0, 1522.0, 1513.0, 1502.0, 1502.0, 1510.0, 1504.0, 1512.0, 1515.0, 1519.0, 1519.0, 1518.0, 1511.0, 1524.0, 1521.0, 1523.0, 1517.0, 1523.0, 1517.0, 1513.0, 1516.0, 1522.0, 1507.0, 1518.0, 1514.0, 1507.0, 1517.0, 1515.0, 1508.0, 1516.0, 1521.0, 1518.0, 1514.0, 1517.0, 1526.0, 1518.0, 1521.0, 1518.0, 1518.0, 1510.0, 1522.0, 1506.0, 1509.0, 1504.0, 1503.0, 1506.0, 1504.0, 1516.0, 1508.0, 1519.0, 1509.0, 1513.0, 1521.0, 1512.0, 1514.0, 1508.0, 1508.0, 1503.0, 1513.0, 1511.0, 1507.0]
    },
    "slices": {}
  }
}