{
  "AcquisitionMatrixPE": 100,
  "AcquisitionNumber": 1,
  "AcquisitionTime": "14:15:10.590000",
  "BandwidthPerPixelPhaseEncode": 18.519,
  "BaseResolution": 100,
  "BodyPartExamined": "BRAIN",
  "ConsistencyInfo": "N4_VE11C_LATEST_20160120",
  "ConversionSoftware": "dcm2niix",
  "ConversionSoftwareVersion": "v1.0.20180622 GCC4.9.2",
  "DerivedVendorReportedEchoSpacing": 0.000539986,
  "DeviceSerialNumber": "166078",
  "DwellTime": 2.1e-06,
  "EchoTime": 0.034,
  "EchoTrainLength": 100,
  "EffectiveEchoSpacing": 0.000539986,
  "FlipAngle": 90,
  "ImageOrientationPatientDICOM": [1, -1.01356e-05, -8.53285e-05, -3.81617e-08, 0.992967, -0.118395],
  "ImageType": [
    "ORIGINAL",
    "PRIMARY",
    "M",
    "ND",
    "MOSAIC"
],
  "InPlanePhaseEncodingDirectionDICOM": "COL",
  "InstitutionAddress": "Street_StreetNo_Bei_Jing_District_CN_ZIP",
  "InstitutionName": "BeiJing_Normal_University",
  "InstitutionalDepartmentName": "Department",
  "MRAcquisitionType": "2D",
  "MagneticFieldStrength": 3,
  "Manufacturer": "Siemens",
  "ManufacturersModelName": "Prisma",
  "Modality": "MR",
  "MultibandAccelerationFactor": 3,
  "PartialFourier": 1,
  "PatientPosition": "HFS",
  "PercentPhaseFOV": 100,
  "PhaseEncodingDirection": "j-",
  "PhaseEncodingSteps": 100,
  "PhaseResolution": 1,
  "PixelBandwidth": 2380,
  "ProcedureStepDescription": "BNU_P2018_64CH_Liu.Jia",
  "ProtocolName": "bold_100x100_s3_2x2x2_232",
  "PulseSequenceDetails": "%SiemensSeq%_ep2d_bold",
  "ReceiveCoilActiveElements": "HC1-7;NC1",
  "ReceiveCoilName": "HeadNeck_64",
  "ReconMatrixPE": 100,
  "RepetitionTime": 2,
  "SAR": 0.0766465,
  "ScanOptions": "FS",
  "ScanningSequence": "EP",
  "SequenceName": "_epfid2d1_100",
  "SequenceVariant": "SK",
  "SeriesDescription": "bold_100x100_s3_2x2x2_232",
  "SeriesNumber": 5,
  "ShimSetting": [-5457, -11497, -1270, 268, -74, -269, -46, 64],
  "SliceThickness": 2,
  "SliceTiming": [1.485, 0, 0.99, 0.0825, 1.0725, 0.165, 1.155, 0.2475, 1.2375, 0.33, 1.32, 0.4125, 1.4025, 0.5775, 1.5675, 0.66, 1.65, 0.7425, 1.7325, 0.825, 1.815, 0.9075, 1.8975, 0.495, 1.485, 0, 0.99, 0.0825, 1.0725, 0.165, 1.155, 0.2475, 1.2375, 0.33, 1.32, 0.4125, 1.4025, 0.5775, 1.5675, 0.66, 1.65, 0.7425, 1.7325, 0.825, 1.815, 0.9075, 1.8975, 0.495, 1.485, 0, 0.99, 0.0825, 1.0725, 0.165, 1.155, 0.2475, 1.2375, 0.33, 1.32, 0.4125, 1.4025, 0.5775, 1.5675, 0.66, 1.65, 0.7425, 1.7325, 0.825, 1.815, 0.9075, 1.8975, 0.495],
  "SoftwareVersions": "syngo_MR_E11",
  "SpacingBetweenSlices": 2,
  "StationName": "AWP166078",
  "TaskName": "motor",
  "TotalReadoutTime": 0.0534586,
  "TxRefAmp": 240.306,
  "dcmmeta_affine": [
    [-2.0, -7.632348086872298e-08, -0.0001718566782074049, 99.35401916503906],
    [2.0271207176847383e-05, 1.9859330654144287, -0.236790269613266, -81.42960357666016],
    [-0.00017065696010831743, 0.236790269613266, 1.9859330654144287, -83.61776733398438],
    [0.0, 0.0, 0.0, 1.0]
],
  "dcmmeta_reorient_transform": [
    [0.0, -1.0, 0.0, 99.0],
    [1.0, 0.0, 0.0, 0.0],
    [0.0, 0.0, 1.0, 0.0],
    [0.0, 0.0, 0.0, 1.0]
],
  "dcmmeta_shape": [100, 100, 72, 232],
  "dcmmeta_slice_dim": 2,
  "dcmmeta_version": 0.6,
  "global": {
    "const": {
      "AcquisitionMatrix": [100, 0, 0, 100],
      "AngioFlag": "N",
      "BitsAllocated": 16,
      "BitsStored": 12,
      "BodyPartExamined": "BRAIN",
      "Columns": 900,
      "EchoNumbers": 1,
      "EchoTime": 34.0,
      "EchoTrainLength": 100,
      "FlipAngle": 90.0,
      "HighBit": 11,
      "ImageOrientationPatient": [0.99999999630816, -1.01356034e-05, -8.53284821e-05, -3.8161742e-08, 0.99296656160156, -0.1183951330975],
      "ImagePositionPatient": [-899.35397464228, -909.54291783591, 34.608840592543],
      "ImageType": [
        "ORIGINAL",
        "PRIMARY",
        "M",
        "ND",
        "MOSAIC"
],
      "ImagedNucleus": "1H",
      "ImagingFrequency": 123.257829,
      "InPlanePhaseEncodingDirection": "COL",
      "MRAcquisitionType": "2D",
      "MagneticFieldStrength": 3.0,
      "Manufacturer": "SIEMENS",
      "ManufacturerModelName": "Prisma",
      "Modality": "MR",
      "NumberOfAverages": 1.0,
      "NumberOfPhaseEncodingSteps": 100,
      "PercentPhaseFieldOfView": 100.0,
      "PercentSampling": 100.0,
      "PerformedProcedureStepStartTime": "135455.062000",
      "PhotometricInterpretation": "MONOCHROME2",
      "PixelBandwidth": 2380.0,
      "PixelRepresentation": 0,
      "PixelSpacing": [2.0, 2.0],
      "ProtocolName": "bold_100x100_s3_2x2x2_232",
      "RepetitionTime": 2000.0,
      "Rows": 900,
      "SAR": 0.0766465386841,
      "SamplesPerPixel": 1,
      "ScanOptions": "FS",
      "ScanningSequence": "EP",
      "SequenceName": "*epfid2d1_100",
      "SequenceVariant": "SK",
      "SeriesDescription": "bold_100x100_s3_2x2x2_232",
      "SeriesNumber": 5,
      "SeriesTime": "141513.161000",
      "SliceLocation": -73.397313093319,
      "SliceThickness": 2.0,
      "SmallestImagePixelValue": 0,
      "SoftwareVersions": "syngo MR E11",
      "SpacingBetweenSlices": 1.9999999994787,
      "SpecificCharacterSet": "ISO_IR 100",
      "StudyID": "1",
      "StudyTime": "135454.989000",
      "TransmitCoilName": "Body",
      "VariableFlipAngleFlag": "N",
      "WindowCenterWidthExplanation": "Algo1",
      "dBdt": 0.0},
    "slices": {}
  },
  "time": {
    "samples": {
      "AcquisitionNumber": [1, 2, 3, 4, 5, 6, 7, 8, 9, 10, 11, 12, 13, 14, 15, 16, 17, 18, 19, 20, 21, 22, 23, 24, 25, 26, 27, 28, 29, 30, 31, 32, 33, 34, 35, 36, 37, 38, 39, 40, 41, 42, 43, 44, 45, 46, 47, 48, 49, 50, 51, 52, 53, 54, 55, 56, 57, 58, 59, 60, 61, 62, 63, 64, 65, 66, 67, 68, 69, 70, 71, 72, 73, 74, 75, 76, 77, 78, 79, 80, 81, 82, 83, 84, 85, 86, 87, 88, 89, 90, 91, 92, 93, 94, 95, 96, 97, 98, 99, 100, 101, 102, 103, 104, 105, 106, 107, 108, 109, 110, 111, 112, 113, 114, 115, 116, 117, 118, 119, 120, 121, 122, 123, 124, 125, 126, 127, 128, 129, 130, 131, 132, 133, 134, 135, 136, 137, 138, 139, 140, 141, 142, 143, 144, 145, 146, 147, 148, 149, 150, 151, 152, 153, 154, 155, 156, 157, 158, 159, 160, 161, 162, 163, 164, 165, 166, 167, 168, 169, 170, 171, 172, 173, 174, 175, 176, 177, 178, 179, 180, 181, 182, 183, 184, 185, 186, 187, 188, 189, 190, 191, 192, 193, 194, 195, 196, 197, 198, 199, 200, 201, 202, 203, 204, 205, 206, 207, 208, 209, 210, 211, 212, 213, 214, 215, 216, 217, 218, 219, 220, 221, 222, 223, 224, 225, 226, 227, 228, 229, 230, 231, 232],
      "AcquisitionTime": ["141510.590000", "141512.590000", "141514.590000", "141516.590000", "141518.590000", "141520.590000", "141522.590000", "141524.590000", "141526.590000", "141528.590000", "141530.590000", "141532.590000", "141534.590000", "141536.590000", "141538.590000", "141540.590000", "141542.590000", "141544.590000", "141546.590000", "141548.590000", "141550.590000", "141552.590000", "141554.590000", "141556.590000", "141558.590000", "141600.590000", "141602.590000", "141604.590000", "141606.590000", "141608.590000", "141610.590000", "141612.590000", "141614.590000", "141616.590000", "141618.590000", "141620.590000", "141622.590000", "141624.590000", "141626.590000", "141628.590000", "141630.590000", "141632.590000", "141634.590000", "141636.590000", "141638.590000", "141640.590000", "141642.590000", "141644.590000", "141646.590000", "141648.590000", "141650.590000", "141652.590000", "141654.590000", "141656.590000", "141658.590000", "141700.590000", "141702.590000", "141704.590000", "141706.590000", "141708.590000", "141710.590000", "141712.590000", "141714.590000", "141716.590000", "141718.590000", "141720.590000", "141722.590000", "141724.590000", "141726.590000", "141728.590000", "141730.590000", "141732.590000", "141734.590000", "141736.590000", "141738.590000", "141740.590000", "141742.590000", "141744.590000", "141746.590000", "141748.590000", "141750.590000", "141752.590000", "141754.590000", "141756.590000", "141758.590000", "141800.590000", "141802.590000", "141804.590000", "141806.590000", "141808.590000", "141810.590000", "141812.590000", "141814.590000", "141816.590000", "141818.590000", "141820.590000", "141822.590000", "141824.590000", "141826.590000", "141828.590000", "141830.590000", "141832.590000", "141834.590000", "141836.590000", "141838.590000", "141840.590000", "141842.590000", "141844.590000", "141846.590000", "141848.590000", "141850.590000", "141852.590000", "141854.590000", "141856.590000", "141858.590000", "141900.590000", "141902.590000", "141904.590000", "141906.590000", "141908.590000", "141910.590000", "141912.590000", "141914.590000", "141916.590000", "141918.590000", "141920.590000", "141922.590000", "141924.590000", "141926.590000", "141928.590000", "141930.590000", "141932.590000", "141934.590000", "141936.590000", "141938.590000", "141940.590000", "141942.590000", "141944.590000", "141946.590000", "141948.590000", "141950.590000", "141952.590000", "141954.590000", "141956.590000", "141958.590000", "142000.590000", "142002.590000", "142004.590000", "142006.590000", "142008.590000", "142010.590000", "142012.590000", "142014.590000", "142016.590000", "142018.590000", "142020.590000", "142022.590000", "142024.590000", "142026.590000", "142028.590000", "142030.590000", "142032.590000", "142034.590000", "142036.590000", "142038.590000", "142040.590000", "142042.590000", "142044.590000", "142046.590000", "142048.590000", "142050.590000", "142052.590000", "142054.590000", "142056.590000", "142058.590000", "142100.590000", "142102.590000", "142104.590000", "142106.590000", "142108.590000", "142110.590000", "142112.590000", "142114.590000", "142116.590000", "142118.590000", "142120.590000", "142122.590000", "142124.590000", "142126.590000", "142128.590000", "142130.590000", "142132.590000", "142134.590000", "142136.590000", "142138.590000", "142140.590000", "142142.590000", "142144.590000", "142146.590000", "142148.590000", "142150.590000", "142152.590000", "142154.590000", "142156.590000", "142158.590000", "142200.590000", "142202.590000", "142204.590000", "142206.590000", "142208.590000", "142210.590000", "142212.590000", "142214.590000", "142216.590000", "142218.590000", "142220.590000", "142222.590000", "142224.590000", "142226.590000", "142228.590000", "142230.590000", "142232.590000", "142234.590000", "142236.590000", "142238.590000", "142240.590000", "142242.590000", "142244.590000", "142246.590000", "142248.590000", "142250.590000", "142252.590000"],
      "ContentTime": ["141513.165000", "141514.660000", "141516.659000", "141518.659000", "141520.661000", "141522.660000", "141524.660000", "141526.660000", "141528.660000", "141530.660000", "141532.660000", "141534.659000", "141536.659000", "141538.660000", "141540.660000", "141542.660000", "141544.660000", "141546.660000", "141548.661000", "141550.661000", "141552.659000", "141554.660000", "141556.660000", "141558.660000", "141600.661000", "141602.660000", "141604.661000", "141606.660000", "141608.661000", "141610.659000", "141612.660000", "141614.660000", "141616.661000", "141618.660000", "141620.661000", "141622.660000", "141624.661000", "141626.660000", "141628.659000", "141630.661000", "141632.661000", "141634.660000", "141636.661000", "141638.660000", "141640.661000", "141642.660000", "141644.659000", "141646.659000", "141648.661000", "141650.660000", "141652.660000", "141654.660000", "141656.660000", "141658.661000", "141700.660000", "141702.659000", "141704.660000", "141706.660000", "141708.661000", "141710.660000", "141712.660000", "141714.660000", "141716.660000", "141718.660000", "141720.660000", "141722.661000", "141724.660000", "141726.661000", "141728.661000", "141730.660000", "141732.661000", "141734.660000", "141736.659000", "141738.659000", "141740.660000", "141742.660000", "141744.660000", "141746.661000", "141748.660000", "141750.660000", "141752.661000", "141754.659000", "141756.660000", "141758.661000", "141800.660000", "141802.661000", "141804.661000", "141806.660000", "141808.661000", "141810.660000", "141812.660000", "141814.660000", "141816.661000", "141818.660000", "141820.660000", "141822.661000", "141824.660000", "141826.661000", "141828.660000", "141830.659000", "141832.660000", "141834.660000", "141836.660000", "141838.661000", "141840.660000", "141842.660000", "141844.660000", "141846.660000", "141848.659000", "141850.661000", "141852.660000", "141854.660000", "141856.660000", "141858.660000", "141900.660000", "141902.660000", "141904.660000", "141906.660000", "141908.661000", "141910.660000", "141912.661000", "141914.661000", "141916.660000", "141918.660000", "141920.661000", "141922.659000", "141924.660000", "141926.660000", "141928.660000", "141930.661000", "141932.661000", "141934.661000", "141936.660000", "141938.660000", "141940.660000", "141942.661000", "141944.660000", "141946.660000", "141948.660000", "141950.661000", "141952.660000", "141954.660000", "141956.660000", "141958.659000", "142000.660000", "142002.660000", "142004.660000", "142006.660000", "142008.661000", "142010.661000", "142012.661000", "142014.659000", "142016.660000", "142018.661000", "142020.661000", "142022.661000", "142024.660000", "142026.661000", "142028.660000", "142030.660000", "142032.660000", "142034.660000", "142036.660000", "142038.660000", "142040.660000", "142042.660000", "142044.661000", "142046.660000", "142048.661000", "142050.660000", "142052.661000", "142054.661000", "142056.661000", "142058.661000", "142100.661000", "142102.661000", "142104.661000", "142106.659000", "142108.659000", "142110.660000", "142112.660000", "142114.660000", "142116.660000", "142118.660000", "142120.661000", "142122.660000", "142124.660000", "142126.661000", "142128.660000", "142130.660000", "142132.660000", "142134.661000", "142136.660000", "142138.660000", "142140.661000", "142142.659000", "142144.660000", "142146.661000", "142148.660000", "142150.660000", "142152.660000", "142154.660000", "142156.660000", "142158.660000", "142200.659000", "142202.661000", "142204.661000", "142206.661000", "142208.660000", "142210.660000", "142212.660000", "142214.661000", "142216.660000", "142218.660000", "142220.660000", "142222.660000", "142224.660000", "142226.660000", "142228.660000", "142230.660000", "142232.660000", "142234.659000", "142236.661000", "142238.660000", "142240.661000", "142242.660000", "142244.660000", "142246.661000", "142248.660000", "142250.660000", "142252.660000", "142254.252000"],
      "InstanceCreationTime": ["141513.165000", "141514.660000", "141516.659000", "141518.659000", "141520.661000", "141522.660000", "141524.660000", "141526.660000", "141528.660000", "141530.660000", "141532.660000", "141534.659000", "141536.659000", "141538.660000", "141540.660000", "141542.660000", "141544.660000", "141546.660000", "141548.661000", "141550.661000", "141552.659000", "141554.660000", "141556.660000", "141558.660000", "141600.661000", "141602.660000", "141604.661000", "141606.660000", "141608.661000", "141610.659000", "141612.660000", "141614.660000", "141616.661000", "141618.660000", "141620.661000", "141622.660000", "141624.661000", "141626.660000", "141628.659000", "141630.661000", "141632.661000", "141634.660000", "141636.661000", "141638.660000", "141640.661000", "141642.660000", "141644.659000", "141646.659000", "141648.661000", "141650.660000", "141652.660000", "141654.660000", "141656.660000", "141658.661000", "141700.660000", "141702.659000", "141704.660000", "141706.660000", "141708.661000", "141710.660000", "141712.660000", "141714.660000", "141716.660000", "141718.660000", "141720.660000", "141722.661000", "141724.660000", "141726.661000", "141728.661000", "141730.660000", "141732.661000", "141734.660000", "141736.659000", "141738.659000", "141740.660000", "141742.660000", "141744.660000", "141746.661000", "141748.660000", "141750.660000", "141752.661000", "141754.659000", "141756.660000", "141758.661000", "141800.660000", "141802.661000", "141804.661000", "141806.660000", "141808.661000", "141810.660000", "141812.660000", "141814.660000", "141816.661000", "141818.660000", "141820.660000", "141822.661000", "141824.660000", "141826.661000", "141828.660000", "141830.659000", "141832.660000", "141834.660000", "141836.660000", "141838.661000", "141840.660000", "141842.660000", "141844.660000", "141846.660000", "141848.659000", "141850.661000", "141852.660000", "141854.660000", "141856.660000", "141858.660000", "141900.660000", "141902.660000", "141904.660000", "141906.660000", "141908.661000", "141910.660000", "141912.661000", "141914.661000", "141916.660000", "141918.660000", "141920.661000", "141922.659000", "141924.660000", "141926.660000", "141928.660000", "141930.661000", "141932.661000", "141934.661000", "141936.660000", "141938.660000", "141940.660000", "141942.661000", "141944.660000", "141946.660000", "141948.660000", "141950.661000", "141952.660000", "141954.660000", "141956.660000", "141958.659000", "142000.660000", "142002.660000", "142004.660000", "142006.660000", "142008.661000", "142010.661000", "142012.661000", "142014.659000", "142016.660000", "142018.661000", "142020.661000", "142022.661000", "142024.660000", "142026.661000", "142028.660000", "142030.660000", "142032.660000", "142034.660000", "142036.660000", "142038.660000", "142040.660000", "142042.660000", "142044.661000", "142046.660000", "142048.661000", "142050.660000", "142052.661000", "142054.661000", "142056.661000", "142058.661000", "142100.661000", "142102.661000", "142104.661000", "142106.659000", "142108.659000", "142110.660000", "142112.660000", "142114.660000", "142116.660000", "142118.660000", "142120.661000", "142122.660000", "142124.660000", "142126.661000", "142128.660000", "142130.660000", "142132.660000", "142134.661000", "142136.660000", "142138.660000", "142140.661000", "142142.659000", "142144.660000", "142146.661000", "142148.660000", "142150.660000", "142152.660000", "142154.660000", "142156.660000", "142158.660000", "142200.659000", "142202.661000", "142204.661000", "142206.661000", "142208.660000", "142210.660000", "142212.660000", "142214.661000", "142216.660000", "142218.660000", "142220.660000", "142222.660000", "142224.660000", "142226.660000", "142228.660000", "142230.660000", "142232.660000", "142234.659000", "142236.661000", "142238.660000", "142240.661000", "142242.660000", "142244.660000", "142246.661000", "142248.660000", "142250.660000", "142252.660000", "142254.252000"],
      "InstanceNumber": [1, 2, 3, 4, 5, 6, 7, 8, 9, 10, 11, 12, 13, 14, 15, 16, 17, 18, 19, 20, 21, 22, 23, 24, 25, 26, 27, 28, 29, 30, 31, 32, 33, 34, 35, 36, 37, 38, 39, 40, 41, 42, 43, 44, 45, 46, 47, 48, 49, 50, 51, 52, 53, 54, 55, 56, 57, 58, 59, 60, 61, 62, 63, 64, 65, 66, 67, 68, 69, 70, 71, 72, 73, 74, 75, 76, 77, 78, 79, 80, 81, 82, 83, 84, 85, 86, 87, 88, 89, 90, 91, 92, 93, 94, 95, 96, 97, 98, 99, 100, 101, 102, 103, 104, 105, 106, 107, 108, 109, 110, 111, 112, 113, 114, 115, 116, 117, 118, 119, 120, 121, 122, 123, 124, 125, 126, 127, 128, 129, 130, 131, 132, 133, 134, 135, 136, 137, 138, 139, 140, 141, 142, 143, 144, 145, 146, 147, 148, 149, 150, 151, 152, 153, 154, 155, 156, 157, 158, 159, 160, 161, 162, 163, 164, 165, 166, 167, 168, 169, 170, 171, 172, 173, 174, 175, 176, 177, 178, 179, 180, 181, 182, 183, 184, 185, 186, 187, 188, 189, 190, 191, 192, 193, 194, 195, 196, 197, 198, 199, 200, 201, 202, 203, 204, 205, 206, 207, 208, 209, 210, 211, 212, 213, 214, 215, 216, 217, 218, 219, 220, 221, 222, 223, 224, 225, 226, 227, 228, 229, 230, 231, 232],
      "LargestImagePixelValue": [2612, 2645, 2626, 2579, 2664, 2557, 2586, 2618, 2572, 2572, 2585, 2568, 2663, 2557, 2561, 2493, 2559, 2614, 2579, 2558, 2581, 2581, 2591, 2573, 2632, 2556, 2550, 2505, 2555, 2504, 2582, 2553, 2506, 2519, 2759, 2563, 2567, 2553, 2510, 2835, 2656, 2627, 2508, 2631, 2643, 2824, 2719, 2759, 2580, 2600, 2654, 2575, 2644, 2537, 2653, 2640, 2582, 2600, 2555, 2634, 2531, 2541, 2590, 2619, 2618, 2636, 2611, 2579, 2557, 2626, 2603, 2580, 2582, 2574, 2521, 2517, 2527, 2535, 2624, 2708, 2799, 2659, 2707, 2623, 2531, 2612, 2602, 2616, 2779, 2531, 2543, 2721, 2557, 2551, 2547, 2683, 2577, 2570, 2574, 2548, 2639, 2631, 2480, 2514, 2511, 2591, 2608, 2566, 2527, 2546, 2580, 2618, 2594, 2581, 2592, 2579, 2605, 2599, 2619, 2606, 2628, 2683, 2700, 2764, 2674, 2776, 2608, 2600, 2591, 2662, 2843, 2672, 2605, 2739, 2629, 2683, 2631, 2645, 2684, 2565, 2747, 2548, 2636, 2620, 2870, 2584, 2703, 2759, 2747, 2742, 2669, 2656, 2586, 2688, 2589, 2562, 2518, 2501, 2596, 2640, 2603, 2576, 2502, 2521, 2513, 2520, 2534, 2448, 2486, 2492, 2527, 2522, 2518, 2506, 2506, 2589, 2531, 2491, 2598, 2511, 2529, 2555, 2486, 2536, 2522, 2632, 2566, 2535, 2593, 2530, 2595, 2592, 2612, 2575, 2486, 2498, 2663, 2577, 2666, 2808, 2621, 2525, 2551, 2583, 2498, 2652, 2642, 2527, 2599, 2510, 2503, 2569, 2531, 2716, 2675, 2532, 2518, 2536, 2511, 2627, 2492, 2477, 2477, 2450, 2405, 2446, 2640, 2463, 2542, 2430, 2509, 2438],
      "WindowCenter": [729.0, 728.0, 727.0, 727.0, 729.0, 728.0, 728.0, 728.0, 728.0, 728.0, 729.0, 729.0, 730.0, 729.0, 730.0, 729.0, 729.0, 731.0, 730.0, 730.0, 730.0, 730.0, 732.0, 731.0, 731.0, 728.0, 728.0, 725.0, 727.0, 728.0, 724.0, 725.0, 724.0, 730.0, 732.0, 729.0, 730.0, 731.0, 730.0, 732.0, 729.0, 729.0, 729.0, 730.0, 729.0, 730.0, 730.0, 731.0, 729.0, 729.0, 730.0, 729.0, 730.0, 729.0, 730.0, 730.0, 728.0, 729.0, 732.0, 732.0, 729.0, 728.0, 727.0, 727.0, 727.0, 727.0, 728.0, 729.0, 730.0, 730.0, 729.0, 728.0, 728.0, 730.0, 726.0, 724.0, 724.0, 727.0, 727.0, 727.0, 731.0, 729.0, 727.0, 725.0, 724.0, 726.0, 725.0, 725.0, 726.0, 727.0, 728.0, 729.0, 727.0, 727.0, 726.0, 726.0, 726.0, 727.0, 730.0, 729.0, 729.0, 728.0, 726.0, 726.0, 726.0, 727.0, 728.0, 727.0, 727.0, 729.0, 729.0, 729.0, 727.0, 727.0, 729.0, 729.0, 728.0, 726.0, 726.0, 726.0, 727.0, 727.0, 727.0, 727.0, 728.0, 729.0, 727.0, 727.0, 728.0, 728.0, 731.0, 731.0, 730.0, 730.0, 729.0, 730.0, 730.0, 728.0, 729.0, 727.0, 728.0, 726.0, 728.0, 728.0, 730.0, 727.0, 727.0, 727.0, 726.0, 726.0, 724.0, 724.0, 723.0, 726.0, 725.0, 722.0, 721.0, 719.0, 719.0, 722.0, 718.0, 726.0, 725.0, 726.0, 726.0, 725.0, 724.0, 724.0, 724.0, 725.0, 726.0, 726.0, 723.0, 722.0, 725.0, 726.0, 724.0, 725.0, 728.0, 727.0, 726.0, 725.0, 724.0, 725.0, 722.0, 729.0, 727.0, 726.0, 726.0, 725.0, 725.0, 726.0, 727.0, 726.0, 723.0, 724.0, 725.0, 727.0, 728.0, 728.0, 726.0, 724.0, 725.0, 726.0, 720.0, 722.0, 724.0, 722.0, 724.0, 725.0, 727.0, 727.0, 727.0, 730.0, 727.0, 724.0, 724.0, 726.0, 729.0, 730.0, 726.0, 725.0, 724.0, 723.0, 723.0, 723.0, 726.0, 722.0, 723.0, 722.0, 722.0, 722.0],
      "WindowWidth": [1538.0, 1535.0, 1534.0, 1533.0, 1538.0, 1536.0, 1535.0, 1536.0, 1536.0, 1536.0, 1539.0, 1538.0, 1539.0, 1537.0, 1539.0, 1537.0, 1539.0, 1541.0, 1540.0, 1541.0, 1539.0, 1542.0, 1544.0, 1543.0, 1542.0, 1536.0, 1535.0, 1529.0, 1534.0, 1535.0, 1526.0, 1530.0, 1527.0, 1539.0, 1544.0, 1538.0, 1540.0, 1543.0, 1540.0, 1544.0, 1537.0, 1539.0, 1539.0, 1541.0, 1537.0, 1540.0, 1539.0, 1541.0, 1539.0, 1538.0, 1540.0, 1538.0, 1541.0, 1537.0, 1540.0, 1539.0, 1536.0, 1537.0, 1545.0, 1544.0, 1538.0, 1536.0, 1533.0, 1532.0, 1532.0, 1533.0, 1535.0, 1538.0, 1540.0, 1540.0, 1536.0, 1535.0, 1536.0, 1539.0, 1531.0, 1526.0, 1527.0, 1533.0, 1534.0, 1532.0, 1541.0, 1537.0, 1534.0, 1529.0, 1527.0, 1531.0, 1529.0, 1528.0, 1530.0, 1532.0, 1535.0, 1536.0, 1534.0, 1534.0, 1530.0, 1531.0, 1530.0, 1533.0, 1539.0, 1538.0, 1537.0, 1534.0, 1530.0, 1530.0, 1530.0, 1534.0, 1534.0, 1533.0, 1534.0, 1536.0, 1538.0, 1536.0, 1532.0, 1532.0, 1538.0, 1537.0, 1534.0, 1531.0, 1531.0, 1531.0, 1532.0, 1534.0, 1532.0, 1533.0, 1535.0, 1537.0, 1532.0, 1532.0, 1535.0, 1536.0, 1543.0, 1542.0, 1540.0, 1541.0, 1537.0, 1541.0, 1541.0, 1537.0, 1537.0, 1533.0, 1536.0, 1532.0, 1535.0, 1535.0, 1539.0, 1533.0, 1533.0, 1534.0, 1532.0, 1530.0, 1527.0, 1526.0, 1524.0, 1530.0, 1529.0, 1521.0, 1519.0, 1515.0, 1514.0, 1523.0, 1514.0, 1530.0, 1529.0, 1532.0, 1530.0, 1528.0, 1527.0, 1526.0, 1526.0, 1529.0, 1530.0, 1530.0, 1524.0, 1522.0, 1528.0, 1531.0, 1527.0, 1529.0, 1536.0, 1533.0, 1530.0, 1528.0, 1527.0, 1528.0, 1522.0, 1539.0, 1532.0, 1531.0, 1531.0, 1529.0, 1528.0, 1529.0, 1532.0, 1529.0, 1524.0, 1525.0, 1529.0, 1532.0, 1534.0, 1534.0, 1530.0, 1526.0, 1528.0, 1531.0, 1516.0, 1522.0, 1527.0, 1521.0, 1525.0, 1529.0, 1532.0, 1533.0, 1534.0, 1539.0, 1533.0, 1527.0, 1527.0, 1532.0, 1537.0, 1541.0, 1531.0, 1528.0, 1527.0, 1525.0, 1524.0, 1525.0, 1529.0, 1521.0, 1523.0, 1522.0, 1522.0, 1523.0]
    },
    "slices": {}
  }
}