{
  "AcquisitionMatrixPE": 100,
  "AcquisitionNumber": 1,
  "AcquisitionTime": "14:26:39.475000",
  "BandwidthPerPixelPhaseEncode": 18.519,
  "BaseResolution": 100,
  "BodyPartExamined": "BRAIN",
  "ConsistencyInfo": "N4_VE11C_LATEST_20160120",
  "ConversionSoftware": "dcm2niix",
  "ConversionSoftwareVersion": "v1.0.20180622 GCC4.9.2",
  "DerivedVendorReportedEchoSpacing": 0.000539986,
  "DeviceSerialNumber": "166078",
  "DwellTime": 2.1e-06,
  "EchoTime": 0.034,
  "EchoTrainLength": 100,
  "EffectiveEchoSpacing": 0.000539986,
  "FlipAngle": 90,
  "ImageOrientationPatientDICOM": [1, -1.01356e-05, -8.53285e-05, -3.81617e-08, 0.992967, -0.118395],
  "ImageType": [
    "ORIGINAL",
    "PRIMARY",
    "M",
    "ND",
    "MOSAIC"
],
  "InPlanePhaseEncodingDirectionDICOM": "COL",
  "InstitutionAddress": "Street_StreetNo_Bei_Jing_District_CN_ZIP",
  "InstitutionName": "BeiJing_Normal_University",
  "InstitutionalDepartmentName": "Department",
  "MRAcquisitionType": "2D",
  "MagneticFieldStrength": 3,
  "Manufacturer": "Siemens",
  "ManufacturersModelName": "Prisma",
  "Modality": "MR",
  "MultibandAccelerationFactor": 3,
  "PartialFourier": 1,
  "PatientPosition": "HFS",
  "PercentPhaseFOV": 100,
  "PhaseEncodingDirection": "j-",
  "PhaseEncodingSteps": 100,
  "PhaseResolution": 1,
  "PixelBandwidth": 2380,
  "ProcedureStepDescription": "BNU_P2018_64CH_Liu.Jia",
  "ProtocolName": "bold_100x100_s3_2x2x2_232",
  "PulseSequenceDetails": "%SiemensSeq%_ep2d_bold",
  "ReceiveCoilActiveElements": "HC1-7;NC1",
  "ReceiveCoilName": "HeadNeck_64",
  "ReconMatrixPE": 100,
  "RepetitionTime": 2,
  "SAR": 0.0766465,
  "ScanOptions": "FS",
  "ScanningSequence": "EP",
  "SequenceName": "_epfid2d1_100",
  "SequenceVariant": "SK",
  "SeriesDescription": "bold_100x100_s3_2x2x2_232",
  "SeriesNumber": 8,
  "ShimSetting": [-5457, -11497, -1270, 268, -74, -269, -46, 64],
  "SliceThickness": 2,
  "SliceTiming": [1.485, 0, 0.99, 0.0825, 1.0725, 0.165, 1.155, 0.2475, 1.2375, 0.33, 1.32, 0.4125, 1.4025, 0.5775, 1.5675, 0.66, 1.65, 0.7425, 1.7325, 0.825, 1.815, 0.9075, 1.8975, 0.495, 1.485, 0, 0.99, 0.0825, 1.0725, 0.165, 1.155, 0.2475, 1.2375, 0.33, 1.32, 0.4125, 1.4025, 0.5775, 1.5675, 0.66, 1.65, 0.7425, 1.7325, 0.825, 1.815, 0.9075, 1.8975, 0.495, 1.485, 0, 0.99, 0.0825, 1.0725, 0.165, 1.155, 0.2475, 1.2375, 0.33, 1.32, 0.4125, 1.4025, 0.5775, 1.5675, 0.66, 1.65, 0.7425, 1.7325, 0.825, 1.815, 0.9075, 1.8975, 0.495],
  "SoftwareVersions": "syngo_MR_E11",
  "SpacingBetweenSlices": 2,
  "StationName": "AWP166078",
  "TaskName": "motor",
  "TotalReadoutTime": 0.0534586,
  "TxRefAmp": 240.306,
  "dcmmeta_affine": [
    [-2.0, -7.632348086872298e-08, -0.0001718566782074049, 99.35401916503906],
    [2.0271207176847383e-05, 1.9859330654144287, -0.236790269613266, -81.42960357666016],
    [-0.00017065696010831743, 0.236790269613266, 1.9859330654144287, -83.61776733398438],
    [0.0, 0.0, 0.0, 1.0]
],
  "dcmmeta_reorient_transform": [
    [0.0, -1.0, 0.0, 99.0],
    [1.0, 0.0, 0.0, 0.0],
    [0.0, 0.0, 1.0, 0.0],
    [0.0, 0.0, 0.0, 1.0]
],
  "dcmmeta_shape": [100, 100, 72, 232],
  "dcmmeta_slice_dim": 2,
  "dcmmeta_version": 0.6,
  "global": {
    "const": {
      "AcquisitionMatrix": [100, 0, 0, 100],
      "AngioFlag": "N",
      "BitsAllocated": 16,
      "BitsStored": 12,
      "BodyPartExamined": "BRAIN",
      "Columns": 900,
      "EchoNumbers": 1,
      "EchoTime": 34.0,
      "EchoTrainLength": 100,
      "FlipAngle": 90.0,
      "HighBit": 11,
      "ImageOrientationPatient": [0.99999999630816, -1.01356034e-05, -8.53284821e-05, -3.8161742e-08, 0.99296656160156, -0.1183951330975],
      "ImagePositionPatient": [-899.35397464228, -909.54291783591, 34.608840592543],
      "ImageType": [
        "ORIGINAL",
        "PRIMARY",
        "M",
        "ND",
        "MOSAIC"
],
      "ImagedNucleus": "1H",
      "ImagingFrequency": 123.257829,
      "InPlanePhaseEncodingDirection": "COL",
      "MRAcquisitionType": "2D",
      "MagneticFieldStrength": 3.0,
      "Manufacturer": "SIEMENS",
      "ManufacturerModelName": "Prisma",
      "Modality": "MR",
      "NumberOfAverages": 1.0,
      "NumberOfPhaseEncodingSteps": 100,
      "PercentPhaseFieldOfView": 100.0,
      "PercentSampling": 100.0,
      "PerformedProcedureStepStartTime": "135455.062000",
      "PhotometricInterpretation": "MONOCHROME2",
      "PixelBandwidth": 2380.0,
      "PixelRepresentation": 0,
      "PixelSpacing": [2.0, 2.0],
      "ProtocolName": "bold_100x100_s3_2x2x2_232",
      "RepetitionTime": 2000.0,
      "Rows": 900,
      "SAR": 0.0766465386841,
      "SamplesPerPixel": 1,
      "ScanOptions": "FS",
      "ScanningSequence": "EP",
      "SequenceName": "*epfid2d1_100",
      "SequenceVariant": "SK",
      "SeriesDescription": "bold_100x100_s3_2x2x2_232",
      "SeriesNumber": 8,
      "SeriesTime": "142641.921000",
      "SliceLocation": -73.397313093319,
      "SliceThickness": 2.0,
      "SmallestImagePixelValue": 0,
      "SoftwareVersions": "syngo MR E11",
      "SpacingBetweenSlices": 1.9999999994787,
      "SpecificCharacterSet": "ISO_IR 100",
      "StudyID": "1",
      "StudyTime": "135454.989000",
      "TransmitCoilName": "Body",
      "VariableFlipAngleFlag": "N",
      "WindowCenterWidthExplanation": "Algo1",
      "dBdt": 0.0},
    "slices": {}
  },
  "time": {
    "samples": {
      "AcquisitionNumber": [1, 2, 3, 4, 5, 6, 7, 8, 9, 10, 11, 12, 13, 14, 15, 16, 17, 18, 19, 20, 21, 22, 23, 24, 25, 26, 27, 28, 29, 30, 31, 32, 33, 34, 35, 36, 37, 38, 39, 40, 41, 42, 43, 44, 45, 46, 47, 48, 49, 50, 51, 52, 53, 54, 55, 56, 57, 58, 59, 60, 61, 62, 63, 64, 65, 66, 67, 68, 69, 70, 71, 72, 73, 74, 75, 76, 77, 78, 79, 80, 81, 82, 83, 84, 85, 86, 87, 88, 89, 90, 91, 92, 93, 94, 95, 96, 97, 98, 99, 100, 101, 102, 103, 104, 105, 106, 107, 108, 109, 110, 111, 112, 113, 114, 115, 116, 117, 118, 119, 120, 121, 122, 123, 124, 125, 126, 127, 128, 129, 130, 131, 132, 133, 134, 135, 136, 137, 138, 139, 140, 141, 142, 143, 144, 145, 146, 147, 148, 149, 150, 151, 152, 153, 154, 155, 156, 157, 158, 159, 160, 161, 162, 163, 164, 165, 166, 167, 168, 169, 170, 171, 172, 173, 174, 175, 176, 177, 178, 179, 180, 181, 182, 183, 184, 185, 186, 187, 188, 189, 190, 191, 192, 193, 194, 195, 196, 197, 198, 199, 200, 201, 202, 203, 204, 205, 206, 207, 208, 209, 210, 211, 212, 213, 214, 215, 216, 217, 218, 219, 220, 221, 222, 223, 224, 225, 226, 227, 228, 229, 230, 231, 232],
      "AcquisitionTime": ["142639.475000", "142641.475000", "142643.475000", "142645.475000", "142647.475000", "142649.475000", "142651.475000", "142653.475000", "142655.475000", "142657.475000", "142659.475000", "142701.475000", "142703.475000", "142705.475000", "142707.475000", "142709.475000", "142711.475000", "142713.475000", "142715.475000", "142717.475000", "142719.475000", "142721.475000", "142723.475000", "142725.475000", "142727.475000", "142729.475000", "142731.475000", "142733.475000", "142735.475000", "142737.475000", "142739.475000", "142741.475000", "142743.475000", "142745.475000", "142747.475000", "142749.475000", "142751.475000", "142753.475000", "142755.475000", "142757.475000", "142759.475000", "142801.475000", "142803.475000", "142805.475000", "142807.475000", "142809.475000", "142811.475000", "142813.475000", "142815.475000", "142817.475000", "142819.475000", "142821.475000", "142823.475000", "142825.475000", "142827.475000", "142829.475000", "142831.475000", "142833.475000", "142835.475000", "142837.475000", "142839.475000", "142841.475000", "142843.475000", "142845.475000", "142847.475000", "142849.475000", "142851.475000", "142853.475000", "142855.475000", "142857.475000", "142859.475000", "142901.475000", "142903.475000", "142905.475000", "142907.475000", "142909.475000", "142911.475000", "142913.475000", "142915.475000", "142917.475000", "142919.475000", "142921.475000", "142923.475000", "142925.475000", "142927.475000", "142929.475000", "142931.475000", "142933.475000", "142935.475000", "142937.475000", "142939.475000", "142941.475000", "142943.475000", "142945.475000", "142947.475000", "142949.475000", "142951.475000", "142953.475000", "142955.475000", "142957.475000", "142959.475000", "143001.475000", "143003.475000", "143005.475000", "143007.475000", "143009.475000", "143011.475000", "143013.475000", "143015.475000", "143017.475000", "143019.475000", "143021.475000", "143023.475000", "143025.475000", "143027.475000", "143029.475000", "143031.475000", "143033.475000", "143035.475000", "143037.475000", "143039.475000", "143041.475000", "143043.475000", "143045.475000", "143047.475000", "143049.475000", "143051.475000", "143053.475000", "143055.475000", "143057.475000", "143059.475000", "143101.475000", "143103.475000", "143105.475000", "143107.475000", "143109.475000", "143111.475000", "143113.475000", "143115.475000", "143117.475000", "143119.475000", "143121.475000", "143123.475000", "143125.475000", "143127.475000", "143129.475000", "143131.475000", "143133.475000", "143135.475000", "143137.475000", "143139.475000", "143141.475000", "143143.475000", "143145.475000", "143147.475000", "143149.475000", "143151.475000", "143153.475000", "143155.475000", "143157.475000", "143159.475000", "143201.475000", "143203.475000", "143205.475000", "143207.475000", "143209.475000", "143211.475000", "143213.475000", "143215.475000", "143217.475000", "143219.475000", "143221.475000", "143223.475000", "143225.475000", "143227.475000", "143229.475000", "143231.475000", "143233.475000", "143235.475000", "143237.475000", "143239.475000", "143241.475000", "143243.475000", "143245.475000", "143247.475000", "143249.475000", "143251.475000", "143253.475000", "143255.475000", "143257.475000", "143259.475000", "143301.475000", "143303.475000", "143305.475000", "143307.475000", "143309.475000", "143311.475000", "143313.475000", "143315.475000", "143317.475000", "143319.475000", "143321.475000", "143323.475000", "143325.475000", "143327.475000", "143329.475000", "143331.475000", "143333.475000", "143335.475000", "143337.475000", "143339.475000", "143341.475000", "143343.475000", "143345.475000", "143347.475000", "143349.475000", "143351.475000", "143353.475000", "143355.475000", "143357.475000", "143359.475000", "143401.475000", "143403.475000", "143405.475000", "143407.475000", "143409.475000", "143411.475000", "143413.475000", "143415.475000", "143417.475000", "143419.475000", "143421.475000"],
      "ContentTime": ["142641.925000", "142643.420000", "142645.419000", "142647.419000", "142649.419000", "142651.419000", "142653.420000", "142655.419000", "142657.419000", "142659.420000", "142701.920000", "142703.419000", "142705.419000", "142707.420000", "142709.419000", "142711.419000", "142713.420000", "142715.420000", "142717.420000", "142719.421000", "142721.420000", "142723.419000", "142725.420000", "142727.919000", "142729.919000", "142731.419000", "142733.419000", "142735.420000", "142737.421000", "142739.419000", "142741.419000", "142743.419000", "142745.419000", "142747.419000", "142749.419000", "142751.420000", "142753.420000", "142755.420000", "142757.419000", "142759.920000", "142801.419000", "142803.419000", "142805.419000", "142807.419000", "142809.421000", "142811.420000", "142813.420000", "142815.420000", "142817.419000", "142819.419000", "142821.419000", "142823.420000", "142825.419000", "142827.420000", "142829.420000", "142831.419000", "142833.419000", "142835.420000", "142837.419000", "142839.419000", "142841.419000", "142843.419000", "142845.420000", "142847.919000", "142849.419000", "142851.420000", "142853.419000", "142855.419000", "142857.419000", "142859.419000", "142901.420000", "142903.420000", "142905.419000", "142907.419000", "142909.419000", "142911.419000", "142913.419000", "142915.419000", "142917.419000", "142919.420000", "142921.420000", "142923.419000", "142925.419000", "142927.920000", "142929.419000", "142931.419000", "142933.419000", "142935.419000", "142937.421000", "142939.420000", "142941.419000", "142943.419000", "142945.419000", "142947.420000", "142949.419000", "142951.419000", "142953.419000", "142955.420000", "142957.420000", "142959.419000", "143001.419000", "143003.419000", "143005.919000", "143007.419000", "143009.419000", "143011.920000", "143013.420000", "143015.419000", "143017.920000", "143019.420000", "143021.419000", "143023.919000", "143025.419000", "143027.420000", "143029.420000", "143031.421000", "143033.919000", "143035.420000", "143037.419000", "143039.419000", "143041.419000", "143043.419000", "143045.419000", "143047.421000", "143049.421000", "143051.419000", "143053.420000", "143055.420000", "143057.419000", "143059.419000", "143101.419000", "143103.419000", "143105.420000", "143107.420000", "143109.919000", "143111.419000", "143113.420000", "143115.420000", "143117.419000", "143119.419000", "143121.421000", "143123.421000", "143125.419000", "143127.419000", "143129.419000", "143131.419000", "143133.419000", "143135.419000", "143137.420000", "143139.920000", "143141.421000", "143143.919000", "143145.419000", "143147.420000", "143149.419000", "143151.919000", "143153.419000", "143155.419000", "143157.421000", "143159.420000", "143201.419000", "143203.419000", "143205.419000", "143207.419000", "143209.419000", "143211.428000", "143213.420000", "143215.420000", "143217.421000", "143219.419000", "143221.419000", "143223.419000", "143225.419000", "143227.419000", "143229.420000", "143231.421000", "143233.421000", "143235.920000", "143237.919000", "143239.419000", "143241.420000", "143243.420000", "143245.419000", "143247.419000", "143249.420000", "143251.421000", "143253.419000", "143255.419000", "143257.419000", "143259.919000", "143301.419000", "143303.419000", "143305.420000", "143307.420000", "143309.421000", "143311.420000", "143313.420000", "143315.419000", "143317.420000", "143319.419000", "143321.419000", "143323.421000", "143325.421000", "143327.420000", "143329.420000", "143331.420000", "143333.419000", "143335.420000", "143337.419000", "143339.420000", "143341.420000", "143343.921000", "143345.419000", "143347.419000", "143349.420000", "143351.919000", "143353.419000", "143355.419000", "143357.419000", "143359.420000", "143401.421000", "143403.419000", "143405.920000", "143407.420000", "143409.419000", "143411.419000", "143413.420000", "143415.419000", "143417.420000", "143419.921000", "143421.419000", "143423.346000"],
      "InstanceCreationTime": ["142641.925000", "142643.420000", "142645.419000", "142647.419000", "142649.419000", "142651.419000", "142653.420000", "142655.419000", "142657.419000", "142659.420000", "142701.920000", "142703.419000", "142705.419000", "142707.420000", "142709.419000", "142711.419000", "142713.420000", "142715.420000", "142717.420000", "142719.421000", "142721.420000", "142723.419000", "142725.420000", "142727.919000", "142729.919000", "142731.419000", "142733.419000", "142735.420000", "142737.421000", "142739.419000", "142741.419000", "142743.419000", "142745.419000", "142747.419000", "142749.419000", "142751.420000", "142753.420000", "142755.420000", "142757.419000", "142759.920000", "142801.419000", "142803.419000", "142805.419000", "142807.419000", "142809.421000", "142811.420000", "142813.420000", "142815.420000", "142817.419000", "142819.419000", "142821.419000", "142823.420000", "142825.419000", "142827.420000", "142829.420000", "142831.419000", "142833.419000", "142835.420000", "142837.419000", "142839.419000", "142841.419000", "142843.419000", "142845.420000", "142847.919000", "142849.419000", "142851.420000", "142853.419000", "142855.419000", "142857.419000", "142859.419000", "142901.420000", "142903.420000", "142905.419000", "142907.419000", "142909.419000", "142911.419000", "142913.419000", "142915.419000", "142917.419000", "142919.420000", "142921.420000", "142923.419000", "142925.419000", "142927.920000", "142929.419000", "142931.419000", "142933.419000", "142935.419000", "142937.421000", "142939.420000", "142941.419000", "142943.419000", "142945.419000", "142947.420000", "142949.419000", "142951.419000", "142953.419000", "142955.420000", "142957.420000", "142959.419000", "143001.419000", "143003.419000", "143005.919000", "143007.419000", "143009.419000", "143011.920000", "143013.420000", "143015.419000", "143017.920000", "143019.420000", "143021.419000", "143023.919000", "143025.419000", "143027.420000", "143029.420000", "143031.421000", "143033.919000", "143035.420000", "143037.419000", "143039.419000", "143041.419000", "143043.419000", "143045.419000", "143047.421000", "143049.421000", "143051.419000", "143053.420000", "143055.420000", "143057.419000", "143059.419000", "143101.419000", "143103.419000", "143105.420000", "143107.420000", "143109.919000", "143111.419000", "143113.420000", "143115.420000", "143117.419000", "143119.419000", "143121.421000", "143123.421000", "143125.419000", "143127.419000", "143129.419000", "143131.419000", "143133.419000", "143135.419000", "143137.420000", "143139.920000", "143141.421000", "143143.919000", "143145.419000", "143147.420000", "143149.419000", "143151.919000", "143153.419000", "143155.419000", "143157.421000", "143159.420000", "143201.419000", "143203.419000", "143205.419000", "143207.419000", "143209.419000", "143211.428000", "143213.420000", "143215.420000", "143217.421000", "143219.419000", "143221.419000", "143223.419000", "143225.419000", "143227.419000", "143229.420000", "143231.421000", "143233.421000", "143235.920000", "143237.919000", "143239.419000", "143241.420000", "143243.420000", "143245.419000", "143247.419000", "143249.420000", "143251.421000", "143253.419000", "143255.419000", "143257.419000", "143259.919000", "143301.419000", "143303.419000", "143305.420000", "143307.420000", "143309.421000", "143311.420000", "143313.420000", "143315.419000", "143317.420000", "143319.419000", "143321.419000", "143323.421000", "143325.421000", "143327.420000", "143329.420000", "143331.420000", "143333.419000", "143335.420000", "143337.419000", "143339.420000", "143341.420000", "143343.921000", "143345.419000", "143347.419000", "143349.420000", "143351.919000", "143353.419000", "143355.419000", "143357.419000", "143359.420000", "143401.421000", "143403.419000", "143405.920000", "143407.420000", "143409.419000", "143411.419000", "143413.420000", "143415.419000", "143417.420000", "143419.921000", "143421.419000", "143423.346000"],
      "InstanceNumber": [1, 2, 3, 4, 5, 6, 7, 8, 9, 10, 11, 12, 13, 14, 15, 16, 17, 18, 19, 20, 21, 22, 23, 24, 25, 26, 27, 28, 29, 30, 31, 32, 33, 34, 35, 36, 37, 38, 39, 40, 41, 42, 43, 44, 45, 46, 47, 48, 49, 50, 51, 52, 53, 54, 55, 56, 57, 58, 59, 60, 61, 62, 63, 64, 65, 66, 67, 68, 69, 70, 71, 72, 73, 74, 75, 76, 77, 78, 79, 80, 81, 82, 83, 84, 85, 86, 87, 88, 89, 90, 91, 92, 93, 94, 95, 96, 97, 98, 99, 100, 101, 102, 103, 104, 105, 106, 107, 108, 109, 110, 111, 112, 113, 114, 115, 116, 117, 118, 119, 120, 121, 122, 123, 124, 125, 126, 127, 128, 129, 130, 131, 132, 133, 134, 135, 136, 137, 138, 139, 140, 141, 142, 143, 144, 145, 146, 147, 148, 149, 150, 151, 152, 153, 154, 155, 156, 157, 158, 159, 160, 161, 162, 163, 164, 165, 166, 167, 168, 169, 170, 171, 172, 173, 174, 175, 176, 177, 178, 179, 180, 181, 182, 183, 184, 185, 186, 187, 188, 189, 190, 191, 192, 193, 194, 195, 196, 197, 198, 199, 200, 201, 202, 203, 204, 205, 206, 207, 208, 209, 210, 211, 212, 213, 214, 215, 216, 217, 218, 219, 220, 221, 222, 223, 224, 225, 226, 227, 228, 229, 230, 231, 232],
      "LargestImagePixelValue": [2548, 2524, 2508, 2502, 2473, 2482, 2472, 2496, 2510, 2486, 2566, 2528, 2709, 2749, 2521, 2539, 2661, 2562, 2674, 2489, 2464, 2532, 2483, 2601, 2490, 2627, 2536, 2565, 2464, 2537, 2513, 2499, 2471, 2487, 2492, 2471, 2518, 2468, 2538, 2558, 2576, 2524, 2484, 2516, 2498, 2589, 2466, 2482, 2453, 2520, 2459, 2468, 2460, 2494, 2495, 2471, 2441, 2453, 2470, 2471, 2503, 2485, 2517, 2525, 2494, 2437, 2405, 2352, 2474, 2473, 2516, 2715, 2445, 2429, 2376, 2505, 2485, 2757, 2509, 2444, 2642, 2395, 2381, 2390, 2408, 2395, 2398, 2493, 2442, 2396, 2401, 2409, 2387, 2384, 2441, 2383, 2443, 2490, 2456, 2444, 2444, 2472, 2457, 2509, 2559, 2447, 2372, 2360, 2408, 2458, 2479, 2442, 2509, 2403, 2647, 2602, 2531, 2572, 2582, 2615, 2634, 2657, 2630, 2585, 2562, 2552, 2546, 2503, 2554, 2576, 2582, 2597, 2591, 2577, 2622, 2621, 2649, 2630, 2575, 2606, 2548, 2803, 2543, 2521, 2780, 2540, 2752, 2544, 2827, 2552, 2778, 2587, 2553, 2944, 2583, 2567, 2612, 2574, 2906, 2595, 2631, 2605, 2548, 2532, 2447, 2467, 2458, 2509, 2384, 2677, 2579, 2511, 2557, 2584, 2585, 2573, 2613, 2580, 2712, 2503, 2504, 2537, 2535, 2449, 2501, 2578, 2477, 2446, 2443, 2507, 2588, 2713, 2635, 2481, 2554, 2747, 2640, 2451, 2830, 2673, 2563, 2641, 2570, 2902, 2623, 2919, 2676, 2840, 2695, 2586, 2799, 2587, 2915, 2546, 2765, 2793, 2820, 2609, 3022, 2931, 2990, 2723, 3004, 2660, 2879, 2616, 2891, 2599, 2957, 2477, 2577, 2549],
      "WindowCenter": [725.0, 724.0, 724.0, 722.0, 721.0, 721.0, 722.0, 723.0, 723.0, 721.0, 723.0, 722.0, 724.0, 723.0, 712.0, 721.0, 720.0, 723.0, 724.0, 724.0, 725.0, 726.0, 724.0, 725.0, 725.0, 727.0, 726.0, 726.0, 725.0, 725.0, 725.0, 724.0, 724.0, 723.0, 725.0, 725.0, 726.0, 724.0, 724.0, 724.0, 724.0, 722.0, 721.0, 722.0, 721.0, 722.0, 719.0, 722.0, 719.0, 725.0, 723.0, 723.0, 723.0, 722.0, 724.0, 723.0, 722.0, 723.0, 723.0, 723.0, 724.0, 723.0, 723.0, 722.0, 722.0, 721.0, 719.0, 715.0, 720.0, 722.0, 722.0, 723.0, 720.0, 723.0, 724.0, 725.0, 722.0, 725.0, 721.0, 720.0, 721.0, 721.0, 720.0, 721.0, 722.0, 722.0, 722.0, 722.0, 721.0, 720.0, 720.0, 721.0, 721.0, 721.0, 722.0, 722.0, 724.0, 723.0, 723.0, 721.0, 721.0, 722.0, 723.0, 723.0, 724.0, 721.0, 720.0, 721.0, 723.0, 722.0, 723.0, 721.0, 723.0, 717.0, 730.0, 727.0, 726.0, 725.0, 724.0, 723.0, 724.0, 724.0, 724.0, 724.0, 724.0, 724.0, 724.0, 726.0, 727.0, 727.0, 727.0, 727.0, 728.0, 727.0, 728.0, 726.0, 725.0, 724.0, 724.0, 726.0, 725.0, 729.0, 725.0, 725.0, 728.0, 726.0, 729.0, 727.0, 730.0, 727.0, 730.0, 727.0, 726.0, 732.0, 729.0, 729.0, 729.0, 727.0, 730.0, 726.0, 727.0, 726.0, 720.0, 726.0, 721.0, 723.0, 721.0, 723.0, 717.0, 732.0, 729.0, 726.0, 727.0, 725.0, 722.0, 721.0, 720.0, 720.0, 722.0, 720.0, 721.0, 722.0, 722.0, 721.0, 721.0, 723.0, 721.0, 721.0, 720.0, 720.0, 722.0, 724.0, 723.0, 724.0, 726.0, 728.0, 727.0, 724.0, 727.0, 725.0, 723.0, 724.0, 726.0, 728.0, 725.0, 728.0, 726.0, 728.0, 725.0, 724.0, 727.0, 724.0, 727.0, 722.0, 725.0, 724.0, 728.0, 724.0, 723.0, 724.0, 723.0, 715.0, 726.0, 719.0, 722.0, 724.0, 726.0, 722.0, 725.0, 720.0, 722.0, 721.0],
      "WindowWidth": [1529.0, 1527.0, 1526.0, 1522.0, 1520.0, 1520.0, 1523.0, 1525.0, 1523.0, 1519.0, 1523.0, 1522.0, 1527.0, 1523.0, 1499.0, 1521.0, 1519.0, 1525.0, 1527.0, 1527.0, 1529.0, 1530.0, 1527.0, 1529.0, 1529.0, 1532.0, 1531.0, 1532.0, 1529.0, 1530.0, 1528.0, 1527.0, 1526.0, 1526.0, 1530.0, 1530.0, 1532.0, 1526.0, 1526.0, 1526.0, 1526.0, 1522.0, 1519.0, 1521.0, 1521.0, 1522.0, 1516.0, 1522.0, 1516.0, 1528.0, 1525.0, 1523.0, 1523.0, 1523.0, 1525.0, 1525.0, 1522.0, 1523.0, 1523.0, 1525.0, 1525.0, 1524.0, 1523.0, 1522.0, 1522.0, 1520.0, 1516.0, 1507.0, 1517.0, 1522.0, 1523.0, 1524.0, 1518.0, 1525.0, 1527.0, 1529.0, 1523.0, 1527.0, 1519.0, 1518.0, 1519.0, 1520.0, 1516.0, 1519.0, 1521.0, 1523.0, 1520.0, 1522.0, 1519.0, 1518.0, 1518.0, 1520.0, 1519.0, 1519.0, 1522.0, 1522.0, 1526.0, 1523.0, 1523.0, 1517.0, 1519.0, 1520.0, 1524.0, 1523.0, 1524.0, 1520.0, 1517.0, 1521.0, 1523.0, 1522.0, 1525.0, 1519.0, 1524.0, 1511.0, 1540.0, 1532.0, 1529.0, 1528.0, 1524.0, 1522.0, 1524.0, 1525.0, 1525.0, 1527.0, 1527.0, 1527.0, 1526.0, 1530.0, 1533.0, 1533.0, 1533.0, 1533.0, 1535.0, 1532.0, 1534.0, 1530.0, 1528.0, 1526.0, 1525.0, 1530.0, 1529.0, 1535.0, 1529.0, 1528.0, 1535.0, 1530.0, 1537.0, 1532.0, 1539.0, 1533.0, 1540.0, 1533.0, 1531.0, 1542.0, 1537.0, 1536.0, 1537.0, 1533.0, 1539.0, 1531.0, 1532.0, 1531.0, 1516.0, 1530.0, 1518.0, 1522.0, 1520.0, 1524.0, 1510.0, 1542.0, 1535.0, 1530.0, 1532.0, 1528.0, 1521.0, 1518.0, 1516.0, 1515.0, 1521.0, 1517.0, 1519.0, 1521.0, 1521.0, 1518.0, 1519.0, 1522.0, 1520.0, 1519.0, 1516.0, 1516.0, 1520.0, 1524.0, 1524.0, 1526.0, 1530.0, 1535.0, 1532.0, 1525.0, 1532.0, 1527.0, 1524.0, 1526.0, 1529.0, 1535.0, 1527.0, 1534.0, 1530.0, 1535.0, 1528.0, 1526.0, 1532.0, 1525.0, 1531.0, 1522.0, 1529.0, 1525.0, 1535.0, 1527.0, 1525.0, 1525.0, 1523.0, 1505.0, 1530.0, 1515.0, 1521.0, 1527.0, 1530.0, 1521.0, 1527.0, 1517.0, 1521.0, 1518.0]
    },
    "slices": {}
  }
}