{
  "AcquisitionMatrixPE": 100,
  "AcquisitionNumber": 1,
  "AcquisitionTime": "13:29:19.390000",
  "BandwidthPerPixelPhaseEncode": 18.519,
  "BaseResolution": 100,
  "BodyPartExamined": "BRAIN",
  "ConsistencyInfo": "N4_VE11C_LATEST_20160120",
  "ConversionSoftware": "dcm2niix",
  "ConversionSoftwareVersion": "v1.0.20180622 GCC4.9.2",
  "DerivedVendorReportedEchoSpacing": 0.000539986,
  "DeviceSerialNumber": "166078",
  "DwellTime": 2.1e-06,
  "EchoTime": 0.034,
  "EchoTrainLength": 100,
  "EffectiveEchoSpacing": 0.000539986,
  "FlipAngle": 90,
  "ImageOrientationPatientDICOM": [0.998016, 0.0629476, -0.00146323, -0.0627899, 0.993248, -0.097554],
  "ImageType": [
    "ORIGINAL",
    "PRIMARY",
    "M",
    "ND",
    "MOSAIC"
],
  "InPlanePhaseEncodingDirectionDICOM": "COL",
  "InstitutionAddress": "Street_StreetNo_Bei_Jing_District_CN_ZIP",
  "InstitutionName": "BeiJing_Normal_University",
  "InstitutionalDepartmentName": "Department",
  "MRAcquisitionType": "2D",
  "MagneticFieldStrength": 3,
  "Manufacturer": "Siemens",
  "ManufacturersModelName": "Prisma",
  "Modality": "MR",
  "MultibandAccelerationFactor": 3,
  "PartialFourier": 1,
  "PatientPosition": "HFS",
  "PercentPhaseFOV": 100,
  "PhaseEncodingDirection": "j-",
  "PhaseEncodingSteps": 100,
  "PhaseResolution": 1,
  "PixelBandwidth": 2380,
  "ProcedureStepDescription": "BNU_P2018_64CH_Liu.Jia",
  "ProtocolName": "bold_100x100_s3_2x2x2_232",
  "PulseSequenceDetails": "%SiemensSeq%_ep2d_bold",
  "ReceiveCoilActiveElements": "HC1-7;NC1",
  "ReceiveCoilName": "HeadNeck_64",
  "ReconMatrixPE": 100,
  "RepetitionTime": 2,
  "SAR": 0.0707031,
  "ScanOptions": "FS",
  "ScanningSequence": "EP",
  "SequenceName": "_epfid2d1_100",
  "SequenceVariant": "SK",
  "SeriesDescription": "bold_100x100_s3_2x2x2_232",
  "SeriesNumber": 9,
  "ShimSetting": [-5474, -11467, -1275, 308, -51, -196, -126, 104],
  "SliceThickness": 2,
  "SliceTiming": [1.485, 0, 0.99, 0.0825, 1.0725, 0.165, 1.155, 0.2475, 1.2375, 0.33, 1.32, 0.4125, 1.4025, 0.5775, 1.5675, 0.66, 1.65, 0.7425, 1.7325, 0.825, 1.815, 0.9075, 1.8975, 0.495, 1.485, 0, 0.99, 0.0825, 1.0725, 0.165, 1.155, 0.2475, 1.2375, 0.33, 1.32, 0.4125, 1.4025, 0.5775, 1.5675, 0.66, 1.65, 0.7425, 1.7325, 0.825, 1.815, 0.9075, 1.8975, 0.495, 1.485, 0, 0.99, 0.0825, 1.0725, 0.165, 1.155, 0.2475, 1.2375, 0.33, 1.32, 0.4125, 1.4025, 0.5775, 1.5675, 0.66, 1.65, 0.7425, 1.7325, 0.825, 1.815, 0.9075, 1.8975, 0.495],
  "SoftwareVersions": "syngo_MR_E11",
  "SpacingBetweenSlices": 2,
  "StationName": "AWP166078",
  "TaskName": "motor",
  "TotalReadoutTime": 0.0534586,
  "TxRefAmp": 221.104,
  "dcmmeta_affine": [
    [-1.9960315227508545, -0.12557972967624664, 0.009374881163239479, 105.8792953491211],
    [-0.1258951723575592, 1.986495018005371, -0.19490458071231842, -77.81704711914062],
    [-0.0029264551121741533, 0.19510796666145325, 1.990458369255066, -87.76549530029297],
    [0.0, 0.0, 0.0, 1.0]
],
  "dcmmeta_reorient_transform": [
    [0.0, -1.0, 0.0, 99.0],
    [1.0, 0.0, 0.0, 0.0],
    [0.0, 0.0, 1.0, 0.0],
    [0.0, 0.0, 0.0, 1.0]
],
  "dcmmeta_shape": [100, 100, 72, 232],
  "dcmmeta_slice_dim": 2,
  "dcmmeta_version": 0.6,
  "global": {
    "const": {
      "AcquisitionMatrix": [100, 0, 0, 100],
      "AngioFlag": "N",
      "BitsAllocated": 16,
      "BitsStored": 12,
      "BodyPartExamined": "BRAIN",
      "Columns": 900,
      "EchoNumbers": 1,
      "EchoTime": 34.0,
      "EchoTrainLength": 100,
      "FlipAngle": 90.0,
      "HighBit": 11,
      "ImageOrientationPatient": [0.99801576167767, 0.06294758460788, -0.0014632275872, -0.0627898665636, 0.99324752822433, -0.0975539867621],
      "ImagePositionPatient": [-841.62761709895, -963.80205533012, 10.763968561382],
      "ImageType": [
        "ORIGINAL",
        "PRIMARY",
        "M",
        "ND",
        "MOSAIC"
],
      "ImagedNucleus": "1H",
      "ImagingFrequency": 123.257858,
      "InPlanePhaseEncodingDirection": "COL",
      "MRAcquisitionType": "2D",
      "MagneticFieldStrength": 3.0,
      "Manufacturer": "SIEMENS",
      "ManufacturerModelName": "Prisma",
      "Modality": "MR",
      "NumberOfAverages": 1.0,
      "NumberOfPhaseEncodingSteps": 100,
      "PercentPhaseFieldOfView": 100.0,
      "PercentSampling": 100.0,
      "PerformedProcedureStepStartTime": "124801.352000",
      "PhotometricInterpretation": "MONOCHROME2",
      "PixelBandwidth": 2380.0,
      "PixelRepresentation": 0,
      "PixelSpacing": [2.0, 2.0],
      "ProtocolName": "bold_100x100_s3_2x2x2_232",
      "RepetitionTime": 2000.0,
      "Rows": 900,
      "SAR": 0.07070312321854,
      "SamplesPerPixel": 1,
      "ScanOptions": "FS",
      "ScanningSequence": "EP",
      "SequenceName": "*epfid2d1_100",
      "SequenceVariant": "SK",
      "SeriesDescription": "bold_100x100_s3_2x2x2_232",
      "SeriesNumber": 9,
      "SeriesTime": "132921.393000",
      "SliceLocation": -79.267024701654,
      "SliceThickness": 2.0,
      "SmallestImagePixelValue": 0,
      "SoftwareVersions": "syngo MR E11",
      "SpacingBetweenSlices": 1.9999999956878,
      "SpecificCharacterSet": "ISO_IR 100",
      "StudyID": "1",
      "StudyTime": "124801.286000",
      "TransmitCoilName": "Body",
      "VariableFlipAngleFlag": "N",
      "WindowCenterWidthExplanation": "Algo1",
      "dBdt": 0.0},
    "slices": {}
  },
  "time": {
    "samples": {
      "AcquisitionNumber": [1, 2, 3, 4, 5, 6, 7, 8, 9, 10, 11, 12, 13, 14, 15, 16, 17, 18, 19, 20, 21, 22, 23, 24, 25, 26, 27, 28, 29, 30, 31, 32, 33, 34, 35, 36, 37, 38, 39, 40, 41, 42, 43, 44, 45, 46, 47, 48, 49, 50, 51, 52, 53, 54, 55, 56, 57, 58, 59, 60, 61, 62, 63, 64, 65, 66, 67, 68, 69, 70, 71, 72, 73, 74, 75, 76, 77, 78, 79, 80, 81, 82, 83, 84, 85, 86, 87, 88, 89, 90, 91, 92, 93, 94, 95, 96, 97, 98, 99, 100, 101, 102, 103, 104, 105, 106, 107, 108, 109, 110, 111, 112, 113, 114, 115, 116, 117, 118, 119, 120, 121, 122, 123, 124, 125, 126, 127, 128, 129, 130, 131, 132, 133, 134, 135, 136, 137, 138, 139, 140, 141, 142, 143, 144, 145, 146, 147, 148, 149, 150, 151, 152, 153, 154, 155, 156, 157, 158, 159, 160, 161, 162, 163, 164, 165, 166, 167, 168, 169, 170, 171, 172, 173, 174, 175, 176, 177, 178, 179, 180, 181, 182, 183, 184, 185, 186, 187, 188, 189, 190, 191, 192, 193, 194, 195, 196, 197, 198, 199, 200, 201, 202, 203, 204, 205, 206, 207, 208, 209, 210, 211, 212, 213, 214, 215, 216, 217, 218, 219, 220, 221, 222, 223, 224, 225, 226, 227, 228, 229, 230, 231, 232],
      "AcquisitionTime": ["132919.390000", "132921.390000", "132923.390000", "132925.390000", "132927.390000", "132929.390000", "132931.390000", "132933.390000", "132935.390000", "132937.390000", "132939.390000", "132941.390000", "132943.390000", "132945.390000", "132947.390000", "132949.390000", "132951.390000", "132953.390000", "132955.390000", "132957.390000", "132959.390000", "133001.390000", "133003.390000", "133005.390000", "133007.390000", "133009.390000", "133011.390000", "133013.390000", "133015.390000", "133017.390000", "133019.390000", "133021.390000", "133023.390000", "133025.390000", "133027.390000", "133029.390000", "133031.390000", "133033.390000", "133035.390000", "133037.390000", "133039.390000", "133041.390000", "133043.390000", "133045.390000", "133047.390000", "133049.390000", "133051.390000", "133053.390000", "133055.390000", "133057.390000", "133059.390000", "133101.390000", "133103.390000", "133105.390000", "133107.390000", "133109.390000", "133111.390000", "133113.390000", "133115.390000", "133117.390000", "133119.390000", "133121.390000", "133123.390000", "133125.390000", "133127.390000", "133129.390000", "133131.390000", "133133.390000", "133135.390000", "133137.390000", "133139.390000", "133141.390000", "133143.390000", "133145.390000", "133147.390000", "133149.390000", "133151.390000", "133153.390000", "133155.390000", "133157.390000", "133159.390000", "133201.390000", "133203.390000", "133205.390000", "133207.390000", "133209.390000", "133211.390000", "133213.390000", "133215.390000", "133217.390000", "133219.390000", "133221.390000", "133223.390000", "133225.390000", "133227.390000", "133229.390000", "133231.390000", "133233.390000", "133235.390000", "133237.390000", "133239.390000", "133241.390000", "133243.390000", "133245.390000", "133247.390000", "133249.390000", "133251.390000", "133253.390000", "133255.390000", "133257.390000", "133259.390000", "133301.390000", "133303.390000", "133305.390000", "133307.390000", "133309.390000", "133311.390000", "133313.390000", "133315.390000", "133317.390000", "133319.390000", "133321.390000", "133323.390000", "133325.390000", "133327.390000", "133329.390000", "133331.390000", "133333.390000", "133335.390000", "133337.390000", "133339.390000", "133341.390000", "133343.390000", "133345.390000", "133347.390000", "133349.390000", "133351.390000", "133353.390000", "133355.390000", "133357.390000", "133359.390000", "133401.390000", "133403.390000", "133405.390000", "133407.390000", "133409.390000", "133411.390000", "133413.390000", "133415.390000", "133417.390000", "133419.390000", "133421.390000", "133423.390000", "133425.390000", "133427.390000", "133429.390000", "133431.390000", "133433.390000", "133435.390000", "133437.390000", "133439.390000", "133441.390000", "133443.390000", "133445.390000", "133447.390000", "133449.390000", "133451.390000", "133453.390000", "133455.390000", "133457.390000", "133459.390000", "133501.390000", "133503.390000", "133505.390000", "133507.390000", "133509.390000", "133511.390000", "133513.390000", "133515.390000", "133517.390000", "133519.390000", "133521.390000", "133523.390000", "133525.390000", "133527.390000", "133529.390000", "133531.390000", "133533.390000", "133535.390000", "133537.390000", "133539.390000", "133541.390000", "133543.390000", "133545.390000", "133547.390000", "133549.390000", "133551.390000", "133553.390000", "133555.390000", "133557.390000", "133559.390000", "133601.390000", "133603.390000", "133605.390000", "133607.390000", "133609.390000", "133611.390000", "133613.390000", "133615.390000", "133617.390000", "133619.390000", "133621.390000", "133623.390000", "133625.390000", "133627.390000", "133629.390000", "133631.390000", "133633.390000", "133635.390000", "133637.390000", "133639.390000", "133641.390000", "133643.390000", "133645.390000", "133647.390000", "133649.390000", "133651.390000", "133653.390000", "133655.390000", "133657.390000", "133659.390000", "133701.390000"],
      "ContentTime": ["132921.396000", "132922.891000", "132924.892000", "132926.892000", "132928.892000", "132930.892000", "132932.892000", "132934.892000", "132936.892000", "132938.912000", "132940.891000", "132942.891000", "132944.893000", "132946.892000", "132948.892000", "132950.893000", "132952.892000", "132954.892000", "132956.893000", "132958.891000", "133000.891000", "133002.892000", "133004.892000", "133006.892000", "133008.892000", "133010.892000", "133012.892000", "133014.892000", "133016.891000", "133018.892000", "133020.892000", "133022.893000", "133024.892000", "133026.892000", "133028.892000", "133030.892000", "133032.891000", "133034.891000", "133036.892000", "133038.892000", "133040.892000", "133042.892000", "133044.892000", "133046.892000", "133048.892000", "133050.891000", "133052.891000", "133054.893000", "133056.892000", "133058.892000", "133100.892000", "133102.892000", "133104.892000", "133106.892000", "133108.891000", "133110.891000", "133112.892000", "133114.892000", "133116.892000", "133118.892000", "133120.892000", "133122.892000", "133124.892000", "133126.891000", "133128.891000", "133130.892000", "133132.892000", "133134.892000", "133136.892000", "133138.892000", "133140.892000", "133142.891000", "133144.891000", "133146.892000", "133148.892000", "133150.892000", "133152.892000", "133154.892000", "133156.892000", "133158.893000", "133200.891000", "133202.891000", "133204.892000", "133206.893000", "133208.892000", "133210.892000", "133212.893000", "133214.892000", "133216.893000", "133218.891000", "133220.891000", "133222.892000", "133224.893000", "133226.893000", "133228.892000", "133230.892000", "133232.893000", "133234.892000", "133236.892000", "133238.891000", "133240.893000", "133242.892000", "133244.892000", "133246.892000", "133248.893000", "133250.892000", "133252.891000", "133254.891000", "133256.893000", "133258.892000", "133300.892000", "133302.892000", "133304.892000", "133306.892000", "133308.892000", "133310.891000", "133312.891000", "133314.892000", "133316.892000", "133318.893000", "133320.892000", "133322.892000", "133324.893000", "133326.892000", "133328.891000", "133330.891000", "133332.892000", "133334.892000", "133336.892000", "133338.892000", "133340.893000", "133342.892000", "133344.892000", "133346.891000", "133348.892000", "133350.892000", "133352.892000", "133354.892000", "133356.892000", "133358.892000", "133400.892000", "133402.892000", "133404.891000", "133406.893000", "133408.892000", "133410.892000", "133412.892000", "133414.892000", "133416.892000", "133418.892000", "133420.891000", "133422.891000", "133424.892000", "133426.892000", "133428.892000", "133430.893000", "133432.892000", "133434.892000", "133437.393000", "133438.891000", "133440.891000", "133442.892000", "133444.892000", "133446.892000", "133448.892000", "133450.893000", "133452.892000", "133454.892000", "133456.891000", "133458.891000", "133500.892000", "133502.892000", "133504.892000", "133506.892000", "133508.893000", "133510.892000", "133512.891000", "133514.891000", "133516.892000", "133518.892000", "133520.892000", "133522.892000", "133524.892000", "133526.892000", "133528.892000", "133530.891000", "133532.891000", "133534.892000", "133536.892000", "133538.892000", "133540.893000", "133542.892000", "133544.893000", "133546.893000", "133548.891000", "133550.911000", "133552.892000", "133554.892000", "133556.892000", "133558.892000", "133600.893000", "133602.893000", "133604.892000", "133606.892000", "133608.892000", "133610.893000", "133612.892000", "133614.892000", "133616.892000", "133618.892000", "133620.893000", "133622.891000", "133624.892000", "133626.892000", "133628.892000", "133630.893000", "133632.892000", "133634.893000", "133636.892000", "133638.892000", "133640.891000", "133642.891000", "133644.892000", "133646.893000", "133648.893000", "133650.892000", "133652.892000", "133654.892000", "133656.892000", "133658.891000", "133700.891000", "133702.697000"],
      "InstanceCreationTime": ["132921.396000", "132922.891000", "132924.892000", "132926.892000", "132928.892000", "132930.892000", "132932.892000", "132934.892000", "132936.892000", "132938.912000", "132940.891000", "132942.891000", "132944.893000", "132946.892000", "132948.892000", "132950.893000", "132952.892000", "132954.892000", "132956.893000", "132958.891000", "133000.891000", "133002.892000", "133004.892000", "133006.892000", "133008.892000", "133010.892000", "133012.892000", "133014.892000", "133016.891000", "133018.892000", "133020.892000", "133022.893000", "133024.892000", "133026.892000", "133028.892000", "133030.892000", "133032.891000", "133034.891000", "133036.892000", "133038.892000", "133040.892000", "133042.892000", "133044.892000", "133046.892000", "133048.892000", "133050.891000", "133052.891000", "133054.893000", "133056.892000", "133058.892000", "133100.892000", "133102.892000", "133104.892000", "133106.892000", "133108.891000", "133110.891000", "133112.892000", "133114.892000", "133116.892000", "133118.892000", "133120.892000", "133122.892000", "133124.892000", "133126.891000", "133128.891000", "133130.892000", "133132.892000", "133134.892000", "133136.892000", "133138.892000", "133140.892000", "133142.891000", "133144.891000", "133146.892000", "133148.892000", "133150.892000", "133152.892000", "133154.892000", "133156.892000", "133158.893000", "133200.891000", "133202.891000", "133204.892000", "133206.893000", "133208.892000", "133210.892000", "133212.893000", "133214.892000", "133216.893000", "133218.891000", "133220.891000", "133222.892000", "133224.893000", "133226.893000", "133228.892000", "133230.892000", "133232.893000", "133234.892000", "133236.892000", "133238.891000", "133240.893000", "133242.892000", "133244.892000", "133246.892000", "133248.893000", "133250.892000", "133252.891000", "133254.891000", "133256.893000", "133258.892000", "133300.892000", "133302.892000", "133304.892000", "133306.892000", "133308.892000", "133310.891000", "133312.891000", "133314.892000", "133316.892000", "133318.893000", "133320.892000", "133322.892000", "133324.893000", "133326.892000", "133328.891000", "133330.891000", "133332.892000", "133334.892000", "133336.892000", "133338.892000", "133340.893000", "133342.892000", "133344.892000", "133346.891000", "133348.892000", "133350.892000", "133352.892000", "133354.892000", "133356.892000", "133358.892000", "133400.892000", "133402.892000", "133404.891000", "133406.893000", "133408.892000", "133410.892000", "133412.892000", "133414.892000", "133416.892000", "133418.892000", "133420.891000", "133422.891000", "133424.892000", "133426.892000", "133428.892000", "133430.893000", "133432.892000", "133434.892000", "133437.393000", "133438.891000", "133440.891000", "133442.892000", "133444.892000", "133446.892000", "133448.892000", "133450.893000", "133452.892000", "133454.892000", "133456.891000", "133458.891000", "133500.892000", "133502.892000", "133504.892000", "133506.892000", "133508.893000", "133510.892000", "133512.891000", "133514.891000", "133516.892000", "133518.892000", "133520.892000", "133522.892000", "133524.892000", "133526.892000", "133528.892000", "133530.891000", "133532.891000", "133534.892000", "133536.892000", "133538.892000", "133540.893000", "133542.892000", "133544.893000", "133546.893000", "133548.891000", "133550.911000", "133552.892000", "133554.892000", "133556.892000", "133558.892000", "133600.893000", "133602.893000", "133604.892000", "133606.892000", "133608.892000", "133610.893000", "133612.892000", "133614.892000", "133616.892000", "133618.892000", "133620.893000", "133622.891000", "133624.892000", "133626.892000", "133628.892000", "133630.893000", "133632.892000", "133634.893000", "133636.892000", "133638.892000", "133640.891000", "133642.891000", "133644.892000", "133646.893000", "133648.893000", "133650.892000", "133652.892000", "133654.892000", "133656.892000", "133658.891000", "133700.891000", "133702.697000"],
      "InstanceNumber": [1, 2, 3, 4, 5, 6, 7, 8, 9, 10, 11, 12, 13, 14, 15, 16, 17, 18, 19, 20, 21, 22, 23, 24, 25, 26, 27, 28, 29, 30, 31, 32, 33, 34, 35, 36, 37, 38, 39, 40, 41, 42, 43, 44, 45, 46, 47, 48, 49, 50, 51, 52, 53, 54, 55, 56, 57, 58, 59, 60, 61, 62, 63, 64, 65, 66, 67, 68, 69, 70, 71, 72, 73, 74, 75, 76, 77, 78, 79, 80, 81, 82, 83, 84, 85, 86, 87, 88, 89, 90, 91, 92, 93, 94, 95, 96, 97, 98, 99, 100, 101, 102, 103, 104, 105, 106, 107, 108, 109, 110, 111, 112, 113, 114, 115, 116, 117, 118, 119, 120, 121, 122, 123, 124, 125, 126, 127, 128, 129, 130, 131, 132, 133, 134, 135, 136, 137, 138, 139, 140, 141, 142, 143, 144, 145, 146, 147, 148, 149, 150, 151, 152, 153, 154, 155, 156, 157, 158, 159, 160, 161, 162, 163, 164, 165, 166, 167, 168, 169, 170, 171, 172, 173, 174, 175, 176, 177, 178, 179, 180, 181, 182, 183, 184, 185, 186, 187, 188, 189, 190, 191, 192, 193, 194, 195, 196, 197, 198, 199, 200, 201, 202, 203, 204, 205, 206, 207, 208, 209, 210, 211, 212, 213, 214, 215, 216, 217, 218, 219, 220, 221, 222, 223, 224, 225, 226, 227, 228, 229, 230, 231, 232],
      "LargestImagePixelValue": [3798, 3729, 3673, 3648, 3640, 3675, 3669, 3688, 3666, 3634, 3640, 3633, 3656, 3651, 3625, 3636, 3633, 3512, 3488, 3453, 3395, 3418, 3440, 3590, 3392, 3536, 3458, 3436, 3484, 3530, 3563, 3552, 3534, 3460, 3397, 3440, 3434, 3429, 3489, 3495, 3500, 3497, 3489, 3514, 3539, 3544, 3593, 3552, 3524, 3510, 3523, 3540, 3543, 3587, 3568, 3551, 3549, 3555, 3572, 3549, 3543, 3606, 3605, 3640, 3582, 3558, 3547, 3568, 3577, 3616, 3576, 3594, 3529, 3533, 3561, 3565, 3574, 3568, 3578, 3589, 3574, 3574, 3589, 3554, 3570, 3601, 3557, 3523, 3593, 3557, 3521, 3780, 3523, 3469, 3481, 3531, 3527, 3389, 3450, 3462, 3394, 3438, 3374, 3402, 3416, 3414, 3448, 3447, 3460, 3437, 3439, 3436, 3444, 3468, 3483, 3466, 3458, 3491, 3444, 3479, 3476, 3440, 3469, 3481, 3436, 3471, 3452, 3408, 3460, 3433, 3449, 3511, 3506, 3445, 3377, 3489, 3521, 3392, 3371, 3481, 3438, 3414, 3448, 3421, 3426, 3457, 3456, 3430, 3412, 3451, 3450, 3406, 3456, 3475, 3402, 3407, 3444, 3442, 3389, 3492, 3396, 3532, 3523, 3435, 3465, 3404, 3449, 3424, 3420, 3479, 3432, 3456, 3470, 3495, 3500, 3454, 3452, 3454, 3459, 3470, 3449, 3473, 3479, 3485, 3515, 3506, 3489, 3480, 3506, 3528, 3477, 3488, 3507, 3515, 3501, 3411, 3466, 3452, 3437, 3479, 3493, 3535, 3487, 3512, 3511, 3505, 3532, 3582, 3533, 3515, 3551, 3500, 3557, 3455, 3509, 3407, 3546, 3497, 3476, 3473, 3463, 3476, 3495, 3467, 3506, 3517, 3545, 3554, 3579, 3540, 3562, 3532],
      "WindowCenter": [805.0, 803.0, 803.0, 802.0, 803.0, 803.0, 803.0, 803.0, 803.0, 803.0, 803.0, 803.0, 803.0, 802.0, 802.0, 802.0, 802.0, 802.0, 803.0, 803.0, 802.0, 801.0, 802.0, 803.0, 800.0, 800.0, 802.0, 805.0, 805.0, 802.0, 801.0, 801.0, 802.0, 803.0, 802.0, 804.0, 803.0, 801.0, 800.0, 800.0, 800.0, 801.0, 800.0, 800.0, 801.0, 801.0, 801.0, 801.0, 800.0, 800.0, 800.0, 800.0, 801.0, 801.0, 800.0, 800.0, 800.0, 800.0, 801.0, 801.0, 801.0, 801.0, 800.0, 801.0, 801.0, 801.0, 801.0, 805.0, 803.0, 801.0, 800.0, 800.0, 801.0, 801.0, 801.0, 801.0, 802.0, 803.0, 802.0, 801.0, 799.0, 799.0, 800.0, 800.0, 801.0, 800.0, 801.0, 802.0, 802.0, 801.0, 801.0, 802.0, 801.0, 801.0, 801.0, 801.0, 800.0, 799.0, 800.0, 801.0, 801.0, 801.0, 799.0, 799.0, 800.0, 799.0, 800.0, 801.0, 801.0, 801.0, 802.0, 802.0, 801.0, 802.0, 802.0, 802.0, 801.0, 801.0, 801.0, 802.0, 802.0, 801.0, 800.0, 800.0, 800.0, 800.0, 800.0, 799.0, 800.0, 799.0, 799.0, 800.0, 800.0, 799.0, 798.0, 800.0, 801.0, 799.0, 799.0, 800.0, 800.0, 800.0, 801.0, 801.0, 801.0, 801.0, 800.0, 800.0, 800.0, 801.0, 801.0, 801.0, 802.0, 802.0, 800.0, 799.0, 799.0, 800.0, 799.0, 799.0, 797.0, 799.0, 802.0, 800.0, 799.0, 799.0, 799.0, 800.0, 800.0, 801.0, 801.0, 801.0, 800.0, 799.0, 799.0, 799.0, 800.0, 800.0, 800.0, 800.0, 800.0, 800.0, 801.0, 801.0, 801.0, 801.0, 801.0, 801.0, 801.0, 801.0, 801.0, 801.0, 801.0, 801.0, 804.0, 804.0, 804.0, 801.0, 801.0, 801.0, 801.0, 801.0, 801.0, 800.0, 800.0, 800.0, 801.0, 802.0, 802.0, 801.0, 801.0, 800.0, 799.0, 801.0, 799.0, 800.0, 802.0, 802.0, 802.0, 802.0, 801.0, 801.0, 801.0, 801.0, 802.0, 803.0, 805.0, 804.0, 803.0, 801.0, 800.0, 800.0],
      "WindowWidth": [1740.0, 1735.0, 1733.0, 1733.0, 1733.0, 1735.0, 1734.0, 1735.0, 1735.0, 1735.0, 1734.0, 1735.0, 1734.0, 1733.0, 1732.0, 1732.0, 1733.0, 1731.0, 1733.0, 1734.0, 1733.0, 1730.0, 1731.0, 1735.0, 1727.0, 1727.0, 1732.0, 1740.0, 1738.0, 1732.0, 1729.0, 1730.0, 1731.0, 1733.0, 1732.0, 1737.0, 1732.0, 1728.0, 1725.0, 1727.0, 1725.0, 1729.0, 1727.0, 1727.0, 1729.0, 1729.0, 1729.0, 1728.0, 1726.0, 1726.0, 1727.0, 1728.0, 1728.0, 1728.0, 1727.0, 1726.0, 1726.0, 1727.0, 1728.0, 1729.0, 1728.0, 1728.0, 1727.0, 1728.0, 1728.0, 1730.0, 1731.0, 1739.0, 1734.0, 1728.0, 1726.0, 1727.0, 1728.0, 1729.0, 1730.0, 1731.0, 1731.0, 1734.0, 1732.0, 1728.0, 1725.0, 1724.0, 1725.0, 1727.0, 1728.0, 1728.0, 1729.0, 1732.0, 1732.0, 1730.0, 1729.0, 1733.0, 1729.0, 1728.0, 1728.0, 1728.0, 1727.0, 1725.0, 1726.0, 1728.0, 1728.0, 1728.0, 1725.0, 1725.0, 1726.0, 1725.0, 1727.0, 1729.0, 1729.0, 1730.0, 1730.0, 1731.0, 1730.0, 1731.0, 1731.0, 1730.0, 1730.0, 1729.0, 1728.0, 1732.0, 1732.0, 1728.0, 1726.0, 1726.0, 1727.0, 1727.0, 1726.0, 1725.0, 1727.0, 1725.0, 1724.0, 1727.0, 1725.0, 1724.0, 1722.0, 1727.0, 1730.0, 1724.0, 1725.0, 1727.0, 1727.0, 1727.0, 1728.0, 1729.0, 1729.0, 1728.0, 1727.0, 1727.0, 1726.0, 1728.0, 1729.0, 1729.0, 1732.0, 1730.0, 1726.0, 1724.0, 1724.0, 1725.0, 1724.0, 1725.0, 1718.0, 1725.0, 1731.0, 1726.0, 1723.0, 1722.0, 1724.0, 1725.0, 1726.0, 1729.0, 1728.0, 1727.0, 1725.0, 1723.0, 1723.0, 1724.0, 1726.0, 1727.0, 1727.0, 1726.0, 1725.0, 1727.0, 1728.0, 1728.0, 1728.0, 1727.0, 1728.0, 1728.0, 1728.0, 1728.0, 1728.0, 1728.0, 1728.0, 1728.0, 1737.0, 1735.0, 1735.0, 1729.0, 1727.0, 1727.0, 1727.0, 1729.0, 1728.0, 1727.0, 1726.0, 1727.0, 1730.0, 1732.0, 1732.0, 1729.0, 1729.0, 1727.0, 1724.0, 1729.0, 1725.0, 1725.0, 1730.0, 1730.0, 1731.0, 1732.0, 1729.0, 1728.0, 1729.0, 1729.0, 1731.0, 1734.0, 1738.0, 1737.0, 1732.0, 1727.0, 1725.0, 1726.0]
    },
    "slices": {}
  }
}