{
  "AcquisitionMatrixPE": 100,
  "AcquisitionNumber": 1,
  "AcquisitionTime": "12:51:19.055000",
  "BandwidthPerPixelPhaseEncode": 18.519,
  "BaseResolution": 100,
  "BodyPartExamined": "BRAIN",
  "ConsistencyInfo": "N4_VE11C_LATEST_20160120",
  "ConversionSoftware": "dcm2niix",
  "ConversionSoftwareVersion": "v1.0.20180622 GCC4.9.2",
  "DerivedVendorReportedEchoSpacing": 0.000539986,
  "DeviceSerialNumber": "166078",
  "DwellTime": 2.1e-06,
  "EchoTime": 0.034,
  "EchoTrainLength": 100,
  "EffectiveEchoSpacing": 0.000539986,
  "FlipAngle": 90,
  "ImageOrientationPatientDICOM": [0.998016, 0.0629476, -0.00146323, -0.0627899, 0.993248, -0.097554],
  "ImageType": [
    "ORIGINAL",
    "PRIMARY",
    "M",
    "ND",
    "MOSAIC"
],
  "InPlanePhaseEncodingDirectionDICOM": "COL",
  "InstitutionAddress": "Street_StreetNo_Bei_Jing_District_CN_ZIP",
  "InstitutionName": "BeiJing_Normal_University",
  "InstitutionalDepartmentName": "Department",
  "MRAcquisitionType": "2D",
  "MagneticFieldStrength": 3,
  "Manufacturer": "Siemens",
  "ManufacturersModelName": "Prisma",
  "Modality": "MR",
  "MultibandAccelerationFactor": 3,
  "PartialFourier": 1,
  "PatientPosition": "HFS",
  "PercentPhaseFOV": 100,
  "PhaseEncodingDirection": "j-",
  "PhaseEncodingSteps": 100,
  "PhaseResolution": 1,
  "PixelBandwidth": 2380,
  "ProcedureStepDescription": "BNU_P2018_64CH_Liu.Jia",
  "ProtocolName": "bold_100x100_s3_2x2x2_232",
  "PulseSequenceDetails": "%SiemensSeq%_ep2d_bold",
  "ReceiveCoilActiveElements": "HC1-7;NC1",
  "ReceiveCoilName": "HeadNeck_64",
  "ReconMatrixPE": 100,
  "RepetitionTime": 2,
  "SAR": 0.0707031,
  "ScanOptions": "FS",
  "ScanningSequence": "EP",
  "SequenceName": "_epfid2d1_100",
  "SequenceVariant": "SK",
  "SeriesDescription": "bold_100x100_s3_2x2x2_232",
  "SeriesNumber": 3,
  "ShimSetting": [-5474, -11467, -1275, 308, -51, -196, -126, 104],
  "SliceThickness": 2,
  "SliceTiming": [1.485, 0, 0.99, 0.0825, 1.0725, 0.165, 1.155, 0.2475, 1.2375, 0.33, 1.32, 0.4125, 1.4025, 0.5775, 1.5675, 0.66, 1.65, 0.7425, 1.7325, 0.825, 1.815, 0.9075, 1.8975, 0.495, 1.485, 0, 0.99, 0.0825, 1.0725, 0.165, 1.155, 0.2475, 1.2375, 0.33, 1.32, 0.4125, 1.4025, 0.5775, 1.5675, 0.66, 1.65, 0.7425, 1.7325, 0.825, 1.815, 0.9075, 1.8975, 0.495, 1.485, 0, 0.99, 0.0825, 1.0725, 0.165, 1.155, 0.2475, 1.2375, 0.33, 1.32, 0.4125, 1.4025, 0.5775, 1.5675, 0.66, 1.65, 0.7425, 1.7325, 0.825, 1.815, 0.9075, 1.8975, 0.495],
  "SoftwareVersions": "syngo_MR_E11",
  "SpacingBetweenSlices": 2,
  "StationName": "AWP166078",
  "TaskName": "motor",
  "TotalReadoutTime": 0.0534586,
  "TxRefAmp": 221.104,
  "dcmmeta_affine": [
    [-1.9960315227508545, -0.12557972967624664, 0.009374881163239479, 105.8792953491211],
    [-0.1258951723575592, 1.986495018005371, -0.19490458071231842, -77.81704711914062],
    [-0.0029264551121741533, 0.19510796666145325, 1.990458369255066, -87.76549530029297],
    [0.0, 0.0, 0.0, 1.0]
],
  "dcmmeta_reorient_transform": [
    [0.0, -1.0, 0.0, 99.0],
    [1.0, 0.0, 0.0, 0.0],
    [0.0, 0.0, 1.0, 0.0],
    [0.0, 0.0, 0.0, 1.0]
],
  "dcmmeta_shape": [100, 100, 72, 232],
  "dcmmeta_slice_dim": 2,
  "dcmmeta_version": 0.6,
  "global": {
    "const": {
      "AcquisitionMatrix": [100, 0, 0, 100],
      "AngioFlag": "N",
      "BitsAllocated": 16,
      "BitsStored": 12,
      "BodyPartExamined": "BRAIN",
      "Columns": 900,
      "EchoNumbers": 1,
      "EchoTime": 34.0,
      "EchoTrainLength": 100,
      "FlipAngle": 90.0,
      "HighBit": 11,
      "ImageOrientationPatient": [0.99801576167767, 0.06294758460788, -0.0014632275872, -0.0627898665636, 0.99324752822433, -0.0975539867621],
      "ImagePositionPatient": [-841.62761709895, -963.80205533012, 10.763968561382],
      "ImageType": [
        "ORIGINAL",
        "PRIMARY",
        "M",
        "ND",
        "MOSAIC"
],
      "ImagedNucleus": "1H",
      "ImagingFrequency": 123.257847,
      "InPlanePhaseEncodingDirection": "COL",
      "MRAcquisitionType": "2D",
      "MagneticFieldStrength": 3.0,
      "Manufacturer": "SIEMENS",
      "ManufacturerModelName": "Prisma",
      "Modality": "MR",
      "NumberOfAverages": 1.0,
      "NumberOfPhaseEncodingSteps": 100,
      "PercentPhaseFieldOfView": 100.0,
      "PercentSampling": 100.0,
      "PerformedProcedureStepStartTime": "124801.352000",
      "PhotometricInterpretation": "MONOCHROME2",
      "PixelBandwidth": 2380.0,
      "PixelRepresentation": 0,
      "PixelSpacing": [2.0, 2.0],
      "ProtocolName": "bold_100x100_s3_2x2x2_232",
      "RepetitionTime": 2000.0,
      "Rows": 900,
      "SAR": 0.07070312321854,
      "SamplesPerPixel": 1,
      "ScanOptions": "FS",
      "ScanningSequence": "EP",
      "SequenceName": "*epfid2d1_100",
      "SequenceVariant": "SK",
      "SeriesDescription": "bold_100x100_s3_2x2x2_232",
      "SeriesNumber": 3,
      "SeriesTime": "125121.619000",
      "SliceLocation": -79.267024701654,
      "SliceThickness": 2.0,
      "SmallestImagePixelValue": 0,
      "SoftwareVersions": "syngo MR E11",
      "SpacingBetweenSlices": 1.9999999956878,
      "SpecificCharacterSet": "ISO_IR 100",
      "StudyID": "1",
      "StudyTime": "124801.286000",
      "TransmitCoilName": "Body",
      "VariableFlipAngleFlag": "N",
      "WindowCenterWidthExplanation": "Algo1",
      "dBdt": 0.0},
    "slices": {}
  },
  "time": {
    "samples": {
      "AcquisitionNumber": [1, 2, 3, 4, 5, 6, 7, 8, 9, 10, 11, 12, 13, 14, 15, 16, 17, 18, 19, 20, 21, 22, 23, 24, 25, 26, 27, 28, 29, 30, 31, 32, 33, 34, 35, 36, 37, 38, 39, 40, 41, 42, 43, 44, 45, 46, 47, 48, 49, 50, 51, 52, 53, 54, 55, 56, 57, 58, 59, 60, 61, 62, 63, 64, 65, 66, 67, 68, 69, 70, 71, 72, 73, 74, 75, 76, 77, 78, 79, 80, 81, 82, 83, 84, 85, 86, 87, 88, 89, 90, 91, 92, 93, 94, 95, 96, 97, 98, 99, 100, 101, 102, 103, 104, 105, 106, 107, 108, 109, 110, 111, 112, 113, 114, 115, 116, 117, 118, 119, 120, 121, 122, 123, 124, 125, 126, 127, 128, 129, 130, 131, 132, 133, 134, 135, 136, 137, 138, 139, 140, 141, 142, 143, 144, 145, 146, 147, 148, 149, 150, 151, 152, 153, 154, 155, 156, 157, 158, 159, 160, 161, 162, 163, 164, 165, 166, 167, 168, 169, 170, 171, 172, 173, 174, 175, 176, 177, 178, 179, 180, 181, 182, 183, 184, 185, 186, 187, 188, 189, 190, 191, 192, 193, 194, 195, 196, 197, 198, 199, 200, 201, 202, 203, 204, 205, 206, 207, 208, 209, 210, 211, 212, 213, 214, 215, 216, 217, 218, 219, 220, 221, 222, 223, 224, 225, 226, 227, 228, 229, 230, 231, 232],
      "AcquisitionTime": ["125119.055000", "125121.055000", "125123.055000", "125125.055000", "125127.055000", "125129.055000", "125131.055000", "125133.055000", "125135.055000", "125137.055000", "125139.055000", "125141.055000", "125143.055000", "125145.055000", "125147.055000", "125149.055000", "125151.055000", "125153.055000", "125155.055000", "125157.055000", "125159.055000", "125201.055000", "125203.055000", "125205.055000", "125207.055000", "125209.055000", "125211.055000", "125213.055000", "125215.055000", "125217.055000", "125219.055000", "125221.055000", "125223.055000", "125225.055000", "125227.055000", "125229.055000", "125231.055000", "125233.055000", "125235.055000", "125237.055000", "125239.055000", "125241.055000", "125243.055000", "125245.055000", "125247.055000", "125249.055000", "125251.055000", "125253.055000", "125255.055000", "125257.055000", "125259.055000", "125301.055000", "125303.055000", "125305.055000", "125307.055000", "125309.055000", "125311.055000", "125313.055000", "125315.055000", "125317.055000", "125319.055000", "125321.055000", "125323.055000", "125325.055000", "125327.055000", "125329.055000", "125331.055000", "125333.055000", "125335.055000", "125337.055000", "125339.055000", "125341.055000", "125343.055000", "125345.055000", "125347.055000", "125349.055000", "125351.055000", "125353.055000", "125355.055000", "125357.055000", "125359.055000", "125401.055000", "125403.055000", "125405.055000", "125407.055000", "125409.055000", "125411.055000", "125413.055000", "125415.055000", "125417.055000", "125419.055000", "125421.055000", "125423.055000", "125425.055000", "125427.055000", "125429.055000", "125431.055000", "125433.055000", "125435.055000", "125437.055000", "125439.055000", "125441.055000", "125443.055000", "125445.055000", "125447.055000", "125449.055000", "125451.055000", "125453.055000", "125455.055000", "125457.055000", "125459.055000", "125501.055000", "125503.055000", "125505.055000", "125507.055000", "125509.055000", "125511.055000", "125513.055000", "125515.055000", "125517.055000", "125519.055000", "125521.055000", "125523.055000", "125525.055000", "125527.055000", "125529.055000", "125531.055000", "125533.055000", "125535.055000", "125537.055000", "125539.055000", "125541.055000", "125543.055000", "125545.055000", "125547.055000", "125549.055000", "125551.055000", "125553.055000", "125555.055000", "125557.055000", "125559.055000", "125601.055000", "125603.055000", "125605.055000", "125607.055000", "125609.055000", "125611.055000", "125613.055000", "125615.055000", "125617.055000", "125619.055000", "125621.055000", "125623.055000", "125625.055000", "125627.055000", "125629.055000", "125631.055000", "125633.055000", "125635.055000", "125637.055000", "125639.055000", "125641.055000", "125643.055000", "125645.055000", "125647.055000", "125649.055000", "125651.055000", "125653.055000", "125655.055000", "125657.055000", "125659.055000", "125701.055000", "125703.055000", "125705.055000", "125707.055000", "125709.055000", "125711.055000", "125713.055000", "125715.055000", "125717.055000", "125719.055000", "125721.055000", "125723.055000", "125725.055000", "125727.055000", "125729.055000", "125731.055000", "125733.055000", "125735.055000", "125737.055000", "125739.055000", "125741.055000", "125743.055000", "125745.055000", "125747.055000", "125749.055000", "125751.055000", "125753.055000", "125755.055000", "125757.055000", "125759.055000", "125801.055000", "125803.055000", "125805.055000", "125807.055000", "125809.055000", "125811.055000", "125813.055000", "125815.055000", "125817.055000", "125819.055000", "125821.055000", "125823.055000", "125825.055000", "125827.055000", "125829.055000", "125831.055000", "125833.055000", "125835.055000", "125837.055000", "125839.055000", "125841.055000", "125843.055000", "125845.055000", "125847.055000", "125849.055000", "125851.055000", "125853.055000", "125855.055000", "125857.055000", "125859.055000", "125901.055000"],
      "ContentTime": ["125121.622000", "125123.118000", "125124.618000", "125127.118000", "125129.118000", "125131.118000", "125133.118000", "125135.119000", "125137.118000", "125139.119000", "125141.118000", "125142.618000", "125145.119000", "125147.118000", "125149.118000", "125150.618000", "125153.120000", "125155.118000", "125157.118000", "125159.119000", "125201.118000", "125203.118000", "125204.618000", "125207.118000", "125209.119000", "125211.118000", "125212.618000", "125214.618000", "125216.618000", "125219.118000", "125221.118000", "125222.618000", "125225.118000", "125227.119000", "125228.618000", "125230.618000", "125232.618000", "125235.118000", "125237.118000", "125239.118000", "125241.118000", "125243.118000", "125245.119000", "125247.118000", "125249.119000", "125251.119000", "125253.119000", "125255.119000", "125256.618000", "125258.618000", "125301.118000", "125303.119000", "125305.118000", "125306.619000", "125309.118000", "125311.119000", "125312.618000", "125314.618000", "125317.118000", "125319.119000", "125321.118000", "125322.618000", "125325.118000", "125326.619000", "125329.118000", "125331.119000", "125333.118000", "125334.618000", "125336.619000", "125338.619000", "125340.618000", "125343.119000", "125345.118000", "125347.118000", "125349.118000", "125350.619000", "125353.119000", "125355.119000", "125356.618000", "125359.118000", "125400.618000", "125403.118000", "125404.618000", "125407.118000", "125409.118000", "125411.119000", "125412.619000", "125414.618000", "125417.119000", "125418.618000", "125421.118000", "125422.618000", "125424.618000", "125427.118000", "125429.120000", "125431.118000", "125432.618000", "125435.119000", "125437.118000", "125439.119000", "125440.618000", "125443.119000", "125445.118000", "125447.119000", "125449.119000", "125451.118000", "125453.118000", "125454.618000", "125457.118000", "125459.118000", "125501.119000", "125503.118000", "125505.119000", "125506.619000", "125508.618000", "125511.118000", "125513.118000", "125515.119000", "125517.118000", "125519.118000", "125521.118000", "125523.119000", "125524.618000", "125527.118000", "125529.119000", "125531.118000", "125533.118000", "125535.118000", "125536.619000", "125539.119000", "125540.619000", "125543.119000", "125544.618000", "125547.118000", "125549.119000", "125551.118000", "125553.119000", "125555.118000", "125557.119000", "125558.618000", "125601.118000", "125603.119000", "125604.618000", "125607.118000", "125608.618000", "125611.118000", "125613.119000", "125615.119000", "125617.119000", "125619.118000", "125621.118000", "125623.119000", "125625.118000", "125626.618000", "125628.618000", "125631.118000", "125633.119000", "125635.118000", "125637.118000", "125639.118000", "125641.118000", "125642.618000", "125645.118000", "125647.119000", "125649.119000", "125650.619000", "125653.118000", "125655.119000", "125657.118000", "125659.119000", "125701.119000", "125703.118000", "125705.119000", "125706.619000", "125709.119000", "125711.118000", "125713.119000", "125715.119000", "125717.119000", "125719.118000", "125721.119000", "125723.118000", "125725.119000", "125727.118000", "125729.119000", "125730.618000", "125733.118000", "125734.628000", "125736.618000", "125739.118000", "125741.119000", "125742.619000", "125745.118000", "125747.118000", "125749.119000", "125751.118000", "125752.619000", "125755.118000", "125757.118000", "125759.120000", "125800.620000", "125803.119000", "125805.119000", "125806.618000", "125809.119000", "125811.119000", "125813.119000", "125815.118000", "125817.119000", "125819.118000", "125820.618000", "125823.118000", "125825.119000", "125827.119000", "125829.118000", "125830.618000", "125833.119000", "125835.120000", "125837.118000", "125839.119000", "125840.618000", "125843.118000", "125845.118000", "125846.619000", "125849.118000", "125850.619000", "125852.619000", "125855.118000", "125857.118000", "125859.118000", "125901.118000", "125902.559000"],
      "InstanceCreationTime": ["125121.622000", "125123.118000", "125124.618000", "125127.118000", "125129.118000", "125131.118000", "125133.118000", "125135.119000", "125137.118000", "125139.119000", "125141.118000", "125142.618000", "125145.119000", "125147.118000", "125149.118000", "125150.618000", "125153.120000", "125155.118000", "125157.118000", "125159.119000", "125201.118000", "125203.118000", "125204.618000", "125207.118000", "125209.119000", "125211.118000", "125212.618000", "125214.618000", "125216.618000", "125219.118000", "125221.118000", "125222.618000", "125225.118000", "125227.119000", "125228.618000", "125230.618000", "125232.618000", "125235.118000", "125237.118000", "125239.118000", "125241.118000", "125243.118000", "125245.119000", "125247.118000", "125249.119000", "125251.119000", "125253.119000", "125255.119000", "125256.618000", "125258.618000", "125301.118000", "125303.119000", "125305.118000", "125306.619000", "125309.118000", "125311.119000", "125312.618000", "125314.618000", "125317.118000", "125319.119000", "125321.118000", "125322.618000", "125325.118000", "125326.619000", "125329.118000", "125331.119000", "125333.118000", "125334.618000", "125336.619000", "125338.619000", "125340.618000", "125343.119000", "125345.118000", "125347.118000", "125349.118000", "125350.619000", "125353.119000", "125355.119000", "125356.618000", "125359.118000", "125400.618000", "125403.118000", "125404.618000", "125407.118000", "125409.118000", "125411.119000", "125412.619000", "125414.618000", "125417.119000", "125418.618000", "125421.118000", "125422.618000", "125424.618000", "125427.118000", "125429.120000", "125431.118000", "125432.618000", "125435.119000", "125437.118000", "125439.119000", "125440.618000", "125443.119000", "125445.118000", "125447.119000", "125449.119000", "125451.118000", "125453.118000", "125454.618000", "125457.118000", "125459.118000", "125501.119000", "125503.118000", "125505.119000", "125506.619000", "125508.618000", "125511.118000", "125513.118000", "125515.119000", "125517.118000", "125519.118000", "125521.118000", "125523.119000", "125524.618000", "125527.118000", "125529.119000", "125531.118000", "125533.118000", "125535.118000", "125536.619000", "125539.119000", "125540.619000", "125543.119000", "125544.618000", "125547.118000", "125549.119000", "125551.118000", "125553.119000", "125555.118000", "125557.119000", "125558.618000", "125601.118000", "125603.119000", "125604.618000", "125607.118000", "125608.618000", "125611.118000", "125613.119000", "125615.119000", "125617.119000", "125619.118000", "125621.118000", "125623.119000", "125625.118000", "125626.618000", "125628.618000", "125631.118000", "125633.119000", "125635.118000", "125637.118000", "125639.118000", "125641.118000", "125642.618000", "125645.118000", "125647.119000", "125649.119000", "125650.619000", "125653.118000", "125655.119000", "125657.118000", "125659.119000", "125701.119000", "125703.118000", "125705.119000", "125706.619000", "125709.119000", "125711.118000", "125713.119000", "125715.119000", "125717.119000", "125719.118000", "125721.119000", "125723.118000", "125725.119000", "125727.118000", "125729.119000", "125730.618000", "125733.118000", "125734.628000", "125736.618000", "125739.118000", "125741.119000", "125742.619000", "125745.118000", "125747.118000", "125749.119000", "125751.118000", "125752.619000", "125755.118000", "125757.118000", "125759.120000", "125800.620000", "125803.119000", "125805.119000", "125806.618000", "125809.119000", "125811.119000", "125813.119000", "125815.118000", "125817.119000", "125819.118000", "125820.618000", "125823.118000", "125825.119000", "125827.119000", "125829.118000", "125830.618000", "125833.119000", "125835.120000", "125837.118000", "125839.119000", "125840.618000", "125843.118000", "125845.118000", "125846.619000", "125849.118000", "125850.619000", "125852.619000", "125855.118000", "125857.118000", "125859.118000", "125901.118000", "125902.559000"],
      "InstanceNumber": [1, 2, 3, 4, 5, 6, 7, 8, 9, 10, 11, 12, 13, 14, 15, 16, 17, 18, 19, 20, 21, 22, 23, 24, 25, 26, 27, 28, 29, 30, 31, 32, 33, 34, 35, 36, 37, 38, 39, 40, 41, 42, 43, 44, 45, 46, 47, 48, 49, 50, 51, 52, 53, 54, 55, 56, 57, 58, 59, 60, 61, 62, 63, 64, 65, 66, 67, 68, 69, 70, 71, 72, 73, 74, 75, 76, 77, 78, 79, 80, 81, 82, 83, 84, 85, 86, 87, 88, 89, 90, 91, 92, 93, 94, 95, 96, 97, 98, 99, 100, 101, 102, 103, 104, 105, 106, 107, 108, 109, 110, 111, 112, 113, 114, 115, 116, 117, 118, 119, 120, 121, 122, 123, 124, 125, 126, 127, 128, 129, 130, 131, 132, 133, 134, 135, 136, 137, 138, 139, 140, 141, 142, 143, 144, 145, 146, 147, 148, 149, 150, 151, 152, 153, 154, 155, 156, 157, 158, 159, 160, 161, 162, 163, 164, 165, 166, 167, 168, 169, 170, 171, 172, 173, 174, 175, 176, 177, 178, 179, 180, 181, 182, 183, 184, 185, 186, 187, 188, 189, 190, 191, 192, 193, 194, 195, 196, 197, 198, 199, 200, 201, 202, 203, 204, 205, 206, 207, 208, 209, 210, 211, 212, 213, 214, 215, 216, 217, 218, 219, 220, 221, 222, 223, 224, 225, 226, 227, 228, 229, 230, 231, 232],
      "LargestImagePixelValue": [3584, 3519, 3474, 3447, 3481, 3461, 3460, 3466, 3480, 3644, 3620, 3627, 3597, 3602, 3646, 3655, 3659, 3629, 3623, 3614, 3609, 3603, 3638, 3629, 3624, 3626, 3622, 3593, 3593, 3593, 3590, 3608, 3622, 3638, 3631, 3593, 3640, 3646, 3627, 3653, 3632, 3694, 3570, 3620, 3634, 3503, 3467, 3639, 3605, 3550, 3608, 3656, 3633, 3617, 3617, 3644, 3629, 3650, 3588, 3614, 3597, 3606, 3685, 3686, 3654, 3700, 3696, 3654, 3675, 3642, 3641, 3665, 3657, 3659, 3658, 3661, 3669, 3674, 3613, 3620, 3608, 3632, 3605, 3655, 3679, 3703, 3679, 3683, 3681, 3692, 3704, 3688, 3686, 3700, 3635, 3675, 3670, 3674, 3693, 3704, 3662, 3680, 3669, 3711, 3744, 3589, 3476, 3516, 3586, 3543, 3555, 3642, 3609, 3707, 3631, 3584, 3660, 3615, 3680, 3674, 3681, 3482, 3560, 3599, 3649, 3612, 3697, 3641, 3740, 3657, 3687, 3693, 3695, 3615, 3698, 3706, 3714, 3714, 3699, 3678, 3655, 3692, 3717, 3711, 3679, 3689, 3708, 3676, 3691, 3708, 3694, 3673, 3649, 3649, 3621, 3609, 3660, 3690, 3690, 3691, 3663, 3624, 3664, 3631, 3681, 3669, 3669, 3645, 3633, 3642, 3656, 3635, 3647, 3717, 3694, 3698, 3707, 3686, 3660, 3662, 3677, 3667, 3681, 3692, 3689, 3692, 3610, 3582, 3562, 3522, 3548, 3621, 3620, 3654, 3663, 3635, 3647, 3632, 3660, 3652, 3648, 3659, 3651, 3653, 3661, 3668, 3655, 3684, 3694, 3663, 3619, 3640, 3645, 3657, 3660, 3688, 3671, 3697, 3662, 3663, 3656, 3658, 3617, 3638, 3648, 3655, 3673, 3639, 3627, 3663, 3666, 3668],
      "WindowCenter": [797.0, 794.0, 794.0, 794.0, 795.0, 795.0, 794.0, 793.0, 793.0, 795.0, 796.0, 797.0, 796.0, 794.0, 794.0, 794.0, 794.0, 795.0, 795.0, 795.0, 795.0, 795.0, 795.0, 795.0, 795.0, 796.0, 797.0, 798.0, 797.0, 797.0, 796.0, 796.0, 796.0, 797.0, 797.0, 796.0, 796.0, 795.0, 794.0, 793.0, 793.0, 790.0, 795.0, 794.0, 799.0, 795.0, 794.0, 795.0, 792.0, 795.0, 795.0, 797.0, 797.0, 798.0, 799.0, 798.0, 798.0, 798.0, 797.0, 799.0, 797.0, 795.0, 795.0, 794.0, 794.0, 795.0, 795.0, 796.0, 795.0, 794.0, 794.0, 794.0, 795.0, 795.0, 795.0, 795.0, 795.0, 795.0, 795.0, 796.0, 796.0, 795.0, 795.0, 795.0, 795.0, 795.0, 795.0, 795.0, 795.0, 795.0, 796.0, 796.0, 796.0, 796.0, 795.0, 795.0, 796.0, 795.0, 796.0, 796.0, 794.0, 794.0, 793.0, 794.0, 793.0, 792.0, 792.0, 792.0, 793.0, 793.0, 792.0, 794.0, 793.0, 795.0, 796.0, 798.0, 796.0, 795.0, 795.0, 795.0, 795.0, 794.0, 793.0, 795.0, 793.0, 795.0, 795.0, 795.0, 795.0, 793.0, 795.0, 796.0, 797.0, 796.0, 796.0, 795.0, 794.0, 795.0, 795.0, 795.0, 795.0, 795.0, 794.0, 795.0, 794.0, 794.0, 794.0, 795.0, 795.0, 795.0, 796.0, 795.0, 794.0, 797.0, 796.0, 794.0, 795.0, 794.0, 795.0, 795.0, 795.0, 796.0, 796.0, 796.0, 795.0, 795.0, 795.0, 794.0, 794.0, 794.0, 798.0, 797.0, 795.0, 794.0, 794.0, 795.0, 795.0, 795.0, 796.0, 796.0, 795.0, 794.0, 794.0, 794.0, 794.0, 795.0, 794.0, 794.0, 794.0, 794.0, 794.0, 795.0, 795.0, 795.0, 796.0, 797.0, 797.0, 797.0, 797.0, 797.0, 796.0, 796.0, 796.0, 796.0, 796.0, 796.0, 795.0, 796.0, 796.0, 795.0, 795.0, 795.0, 795.0, 795.0, 795.0, 795.0, 795.0, 795.0, 795.0, 795.0, 795.0, 796.0, 796.0, 795.0, 795.0, 795.0, 797.0, 798.0, 796.0, 795.0, 794.0, 794.0],
      "WindowWidth": [1722.0, 1716.0, 1715.0, 1714.0, 1716.0, 1716.0, 1714.0, 1713.0, 1711.0, 1716.0, 1721.0, 1723.0, 1719.0, 1714.0, 1713.0, 1713.0, 1714.0, 1716.0, 1717.0, 1717.0, 1716.0, 1716.0, 1717.0, 1717.0, 1718.0, 1718.0, 1720.0, 1724.0, 1722.0, 1721.0, 1720.0, 1719.0, 1720.0, 1721.0, 1722.0, 1721.0, 1718.0, 1716.0, 1713.0, 1712.0, 1711.0, 1704.0, 1718.0, 1716.0, 1728.0, 1717.0, 1713.0, 1716.0, 1710.0, 1715.0, 1717.0, 1720.0, 1722.0, 1725.0, 1726.0, 1725.0, 1723.0, 1723.0, 1722.0, 1727.0, 1720.0, 1716.0, 1714.0, 1713.0, 1713.0, 1715.0, 1717.0, 1717.0, 1716.0, 1713.0, 1714.0, 1714.0, 1715.0, 1715.0, 1716.0, 1717.0, 1715.0, 1716.0, 1716.0, 1718.0, 1718.0, 1718.0, 1717.0, 1717.0, 1716.0, 1715.0, 1716.0, 1716.0, 1716.0, 1716.0, 1717.0, 1719.0, 1718.0, 1718.0, 1716.0, 1717.0, 1718.0, 1715.0, 1718.0, 1717.0, 1714.0, 1713.0, 1711.0, 1712.0, 1711.0, 1710.0, 1709.0, 1709.0, 1710.0, 1710.0, 1708.0, 1714.0, 1712.0, 1715.0, 1719.0, 1722.0, 1719.0, 1715.0, 1715.0, 1716.0, 1716.0, 1713.0, 1711.0, 1716.0, 1711.0, 1716.0, 1714.0, 1715.0, 1715.0, 1711.0, 1714.0, 1718.0, 1722.0, 1718.0, 1718.0, 1716.0, 1714.0, 1715.0, 1716.0, 1717.0, 1716.0, 1714.0, 1714.0, 1715.0, 1713.0, 1712.0, 1713.0, 1714.0, 1715.0, 1716.0, 1717.0, 1717.0, 1714.0, 1721.0, 1718.0, 1713.0, 1714.0, 1713.0, 1715.0, 1716.0, 1717.0, 1717.0, 1718.0, 1717.0, 1717.0, 1716.0, 1715.0, 1713.0, 1713.0, 1713.0, 1723.0, 1720.0, 1714.0, 1713.0, 1713.0, 1715.0, 1715.0, 1715.0, 1717.0, 1717.0, 1715.0, 1713.0, 1713.0, 1714.0, 1713.0, 1716.0, 1713.0, 1714.0, 1712.0, 1712.0, 1712.0, 1714.0, 1714.0, 1715.0, 1718.0, 1721.0, 1721.0, 1720.0, 1720.0, 1719.0, 1718.0, 1717.0, 1718.0, 1717.0, 1717.0, 1716.0, 1716.0, 1718.0, 1716.0, 1715.0, 1714.0, 1716.0, 1716.0, 1715.0, 1714.0, 1715.0, 1715.0, 1716.0, 1715.0, 1716.0, 1716.0, 1716.0, 1716.0, 1716.0, 1715.0, 1716.0, 1720.0, 1722.0, 1716.0, 1713.0, 1711.0, 1711.0]
    },
    "slices": {}
  }
}