{
  "AcquisitionMatrixPE": 100,
  "AcquisitionNumber": 1,
  "AcquisitionTime": "13:37:52.485000",
  "BandwidthPerPixelPhaseEncode": 18.519,
  "BaseResolution": 100,
  "BodyPartExamined": "BRAIN",
  "ConsistencyInfo": "N4_VE11C_LATEST_20160120",
  "ConversionSoftware": "dcm2niix",
  "ConversionSoftwareVersion": "v1.0.20180622 GCC4.9.2",
  "DerivedVendorReportedEchoSpacing": 0.000539986,
  "DeviceSerialNumber": "166078",
  "DwellTime": 2.1e-06,
  "EchoTime": 0.034,
  "EchoTrainLength": 100,
  "EffectiveEchoSpacing": 0.000539986,
  "FlipAngle": 90,
  "ImageOrientationPatientDICOM": [0.998016, 0.0629476, -0.00146323, -0.0627899, 0.993248, -0.097554],
  "ImageType": [
    "ORIGINAL",
    "PRIMARY",
    "M",
    "ND",
    "MOSAIC"
],
  "InPlanePhaseEncodingDirectionDICOM": "COL",
  "InstitutionAddress": "Street_StreetNo_Bei_Jing_District_CN_ZIP",
  "InstitutionName": "BeiJing_Normal_University",
  "InstitutionalDepartmentName": "Department",
  "MRAcquisitionType": "2D",
  "MagneticFieldStrength": 3,
  "Manufacturer": "Siemens",
  "ManufacturersModelName": "Prisma",
  "Modality": "MR",
  "MultibandAccelerationFactor": 3,
  "PartialFourier": 1,
  "PatientPosition": "HFS",
  "PercentPhaseFOV": 100,
  "PhaseEncodingDirection": "j-",
  "PhaseEncodingSteps": 100,
  "PhaseResolution": 1,
  "PixelBandwidth": 2380,
  "ProcedureStepDescription": "BNU_P2018_64CH_Liu.Jia",
  "ProtocolName": "bold_100x100_s3_2x2x2_232",
  "PulseSequenceDetails": "%SiemensSeq%_ep2d_bold",
  "ReceiveCoilActiveElements": "HC1-7;NC1",
  "ReceiveCoilName": "HeadNeck_64",
  "ReconMatrixPE": 100,
  "RepetitionTime": 2,
  "SAR": 0.0707031,
  "ScanOptions": "FS",
  "ScanningSequence": "EP",
  "SequenceName": "_epfid2d1_100",
  "SequenceVariant": "SK",
  "SeriesDescription": "bold_100x100_s3_2x2x2_232",
  "SeriesNumber": 10,
  "ShimSetting": [-5474, -11467, -1275, 308, -51, -196, -126, 104],
  "SliceThickness": 2,
  "SliceTiming": [1.485, 0, 0.99, 0.0825, 1.0725, 0.165, 1.155, 0.2475, 1.2375, 0.33, 1.32, 0.4125, 1.4025, 0.5775, 1.5675, 0.66, 1.65, 0.7425, 1.7325, 0.825, 1.815, 0.9075, 1.8975, 0.495, 1.485, 0, 0.99, 0.0825, 1.0725, 0.165, 1.155, 0.2475, 1.2375, 0.33, 1.32, 0.4125, 1.4025, 0.5775, 1.5675, 0.66, 1.65, 0.7425, 1.7325, 0.825, 1.815, 0.9075, 1.8975, 0.495, 1.485, 0, 0.99, 0.0825, 1.0725, 0.165, 1.155, 0.2475, 1.2375, 0.33, 1.32, 0.4125, 1.4025, 0.5775, 1.5675, 0.66, 1.65, 0.7425, 1.7325, 0.825, 1.815, 0.9075, 1.8975, 0.495],
  "SoftwareVersions": "syngo_MR_E11",
  "SpacingBetweenSlices": 2,
  "StationName": "AWP166078",
  "TaskName": "motor",
  "TotalReadoutTime": 0.0534586,
  "TxRefAmp": 221.104,
  "dcmmeta_affine": [
    [-1.9960315227508545, -0.12557972967624664, 0.009374881163239479, 105.8792953491211],
    [-0.1258951723575592, 1.986495018005371, -0.19490458071231842, -77.81704711914062],
    [-0.0029264551121741533, 0.19510796666145325, 1.990458369255066, -87.76549530029297],
    [0.0, 0.0, 0.0, 1.0]
],
  "dcmmeta_reorient_transform": [
    [0.0, -1.0, 0.0, 99.0],
    [1.0, 0.0, 0.0, 0.0],
    [0.0, 0.0, 1.0, 0.0],
    [0.0, 0.0, 0.0, 1.0]
],
  "dcmmeta_shape": [100, 100, 72, 232],
  "dcmmeta_slice_dim": 2,
  "dcmmeta_version": 0.6,
  "global": {
    "const": {
      "AcquisitionMatrix": [100, 0, 0, 100],
      "AngioFlag": "N",
      "BitsAllocated": 16,
      "BitsStored": 12,
      "BodyPartExamined": "BRAIN",
      "Columns": 900,
      "EchoNumbers": 1,
      "EchoTime": 34.0,
      "EchoTrainLength": 100,
      "FlipAngle": 90.0,
      "HighBit": 11,
      "ImageOrientationPatient": [0.99801576167767, 0.06294758460788, -0.0014632275872, -0.0627898665636, 0.99324752822433, -0.0975539867621],
      "ImagePositionPatient": [-841.62761709895, -963.80205533012, 10.763968561382],
      "ImageType": [
        "ORIGINAL",
        "PRIMARY",
        "M",
        "ND",
        "MOSAIC"
],
      "ImagedNucleus": "1H",
      "ImagingFrequency": 123.257861,
      "InPlanePhaseEncodingDirection": "COL",
      "MRAcquisitionType": "2D",
      "MagneticFieldStrength": 3.0,
      "Manufacturer": "SIEMENS",
      "ManufacturerModelName": "Prisma",
      "Modality": "MR",
      "NumberOfAverages": 1.0,
      "NumberOfPhaseEncodingSteps": 100,
      "PercentPhaseFieldOfView": 100.0,
      "PercentSampling": 100.0,
      "PerformedProcedureStepStartTime": "124801.352000",
      "PhotometricInterpretation": "MONOCHROME2",
      "PixelBandwidth": 2380.0,
      "PixelRepresentation": 0,
      "PixelSpacing": [2.0, 2.0],
      "ProtocolName": "bold_100x100_s3_2x2x2_232",
      "RepetitionTime": 2000.0,
      "Rows": 900,
      "SAR": 0.07070312321854,
      "SamplesPerPixel": 1,
      "ScanOptions": "FS",
      "ScanningSequence": "EP",
      "SequenceName": "*epfid2d1_100",
      "SequenceVariant": "SK",
      "SeriesDescription": "bold_100x100_s3_2x2x2_232",
      "SeriesNumber": 10,
      "SeriesTime": "133755.403000",
      "SliceLocation": -79.267024701654,
      "SliceThickness": 2.0,
      "SmallestImagePixelValue": 0,
      "SoftwareVersions": "syngo MR E11",
      "SpacingBetweenSlices": 1.9999999956878,
      "SpecificCharacterSet": "ISO_IR 100",
      "StudyID": "1",
      "StudyTime": "124801.286000",
      "TransmitCoilName": "Body",
      "VariableFlipAngleFlag": "N",
      "WindowCenterWidthExplanation": "Algo1",
      "dBdt": 0.0},
    "slices": {}
  },
  "time": {
    "samples": {
      "AcquisitionNumber": [1, 2, 3, 4, 5, 6, 7, 8, 9, 10, 11, 12, 13, 14, 15, 16, 17, 18, 19, 20, 21, 22, 23, 24, 25, 26, 27, 28, 29, 30, 31, 32, 33, 34, 35, 36, 37, 38, 39, 40, 41, 42, 43, 44, 45, 46, 47, 48, 49, 50, 51, 52, 53, 54, 55, 56, 57, 58, 59, 60, 61, 62, 63, 64, 65, 66, 67, 68, 69, 70, 71, 72, 73, 74, 75, 76, 77, 78, 79, 80, 81, 82, 83, 84, 85, 86, 87, 88, 89, 90, 91, 92, 93, 94, 95, 96, 97, 98, 99, 100, 101, 102, 103, 104, 105, 106, 107, 108, 109, 110, 111, 112, 113, 114, 115, 116, 117, 118, 119, 120, 121, 122, 123, 124, 125, 126, 127, 128, 129, 130, 131, 132, 133, 134, 135, 136, 137, 138, 139, 140, 141, 142, 143, 144, 145, 146, 147, 148, 149, 150, 151, 152, 153, 154, 155, 156, 157, 158, 159, 160, 161, 162, 163, 164, 165, 166, 167, 168, 169, 170, 171, 172, 173, 174, 175, 176, 177, 178, 179, 180, 181, 182, 183, 184, 185, 186, 187, 188, 189, 190, 191, 192, 193, 194, 195, 196, 197, 198, 199, 200, 201, 202, 203, 204, 205, 206, 207, 208, 209, 210, 211, 212, 213, 214, 215, 216, 217, 218, 219, 220, 221, 222, 223, 224, 225, 226, 227, 228, 229, 230, 231, 232],
      "AcquisitionTime": ["133752.485000", "133754.485000", "133756.485000", "133758.485000", "133800.485000", "133802.485000", "133804.485000", "133806.485000", "133808.485000", "133810.485000", "133812.485000", "133814.485000", "133816.485000", "133818.485000", "133820.485000", "133822.485000", "133824.485000", "133826.485000", "133828.485000", "133830.485000", "133832.485000", "133834.485000", "133836.485000", "133838.485000", "133840.485000", "133842.485000", "133844.485000", "133846.485000", "133848.485000", "133850.485000", "133852.485000", "133854.485000", "133856.485000", "133858.485000", "133900.485000", "133902.485000", "133904.485000", "133906.485000", "133908.485000", "133910.485000", "133912.485000", "133914.485000", "133916.485000", "133918.485000", "133920.485000", "133922.485000", "133924.485000", "133926.485000", "133928.485000", "133930.485000", "133932.485000", "133934.485000", "133936.485000", "133938.485000", "133940.485000", "133942.485000", "133944.485000", "133946.485000", "133948.485000", "133950.485000", "133952.485000", "133954.485000", "133956.485000", "133958.485000", "134000.485000", "134002.485000", "134004.485000", "134006.485000", "134008.485000", "134010.485000", "134012.485000", "134014.485000", "134016.485000", "134018.485000", "134020.485000", "134022.485000", "134024.485000", "134026.485000", "134028.485000", "134030.485000", "134032.485000", "134034.485000", "134036.485000", "134038.485000", "134040.485000", "134042.485000", "134044.485000", "134046.485000", "134048.485000", "134050.485000", "134052.485000", "134054.485000", "134056.485000", "134058.485000", "134100.485000", "134102.485000", "134104.485000", "134106.485000", "134108.485000", "134110.485000", "134112.485000", "134114.485000", "134116.485000", "134118.485000", "134120.485000", "134122.485000", "134124.485000", "134126.485000", "134128.485000", "134130.485000", "134132.485000", "134134.485000", "134136.485000", "134138.485000", "134140.485000", "134142.485000", "134144.485000", "134146.485000", "134148.485000", "134150.485000", "134152.485000", "134154.485000", "134156.485000", "134158.485000", "134200.485000", "134202.485000", "134204.485000", "134206.485000", "134208.485000", "134210.485000", "134212.485000", "134214.485000", "134216.485000", "134218.485000", "134220.485000", "134222.485000", "134224.485000", "134226.485000", "134228.485000", "134230.485000", "134232.485000", "134234.485000", "134236.485000", "134238.485000", "134240.485000", "134242.485000", "134244.485000", "134246.485000", "134248.485000", "134250.485000", "134252.485000", "134254.485000", "134256.485000", "134258.485000", "134300.485000", "134302.485000", "134304.485000", "134306.485000", "134308.485000", "134310.485000", "134312.485000", "134314.485000", "134316.485000", "134318.485000", "134320.485000", "134322.485000", "134324.485000", "134326.485000", "134328.485000", "134330.485000", "134332.485000", "134334.485000", "134336.485000", "134338.485000", "134340.485000", "134342.485000", "134344.485000", "134346.485000", "134348.485000", "134350.485000", "134352.485000", "134354.485000", "134356.485000", "134358.485000", "134400.485000", "134402.485000", "134404.485000", "134406.485000", "134408.485000", "134410.485000", "134412.485000", "134414.485000", "134416.485000", "134418.485000", "134420.485000", "134422.485000", "134424.485000", "134426.485000", "134428.485000", "134430.485000", "134432.485000", "134434.485000", "134436.485000", "134438.485000", "134440.485000", "134442.485000", "134444.485000", "134446.485000", "134448.485000", "134450.485000", "134452.485000", "134454.485000", "134456.485000", "134458.485000", "134500.485000", "134502.485000", "134504.485000", "134506.485000", "134508.485000", "134510.485000", "134512.485000", "134514.485000", "134516.485000", "134518.485000", "134520.485000", "134522.485000", "134524.485000", "134526.485000", "134528.485000", "134530.485000", "134532.485000", "134534.485000"],
      "ContentTime": ["133755.407000", "133756.402000", "133758.401000", "133800.402000", "133802.401000", "133804.901000", "133806.901000", "133808.401000", "133810.401000", "133812.902000", "133814.901000", "133816.901000", "133818.401000", "133820.401000", "133822.901000", "133824.902000", "133826.402000", "133828.903000", "133830.902000", "133832.902000", "133834.901000", "133836.402000", "133838.401000", "133840.401000", "133842.401000", "133844.402000", "133846.403000", "133848.402000", "133850.902000", "133852.901000", "133854.401000", "133856.401000", "133858.401000", "133900.401000", "133902.401000", "133904.902000", "133906.402000", "133908.901000", "133910.902000", "133912.901000", "133914.902000", "133916.902000", "133918.901000", "133920.402000", "133922.402000", "133924.402000", "133926.401000", "133928.902000", "133930.901000", "133932.401000", "133934.401000", "133936.901000", "133938.902000", "133940.402000", "133942.902000", "133944.401000", "133946.901000", "133948.901000", "133950.401000", "133952.901000", "133954.902000", "133956.402000", "133958.402000", "134000.402000", "134002.401000", "134004.402000", "134006.401000", "134008.402000", "134010.401000", "134012.901000", "134014.902000", "134016.402000", "134018.401000", "134020.901000", "134022.901000", "134024.902000", "134026.402000", "134028.901000", "134030.401000", "134032.902000", "134034.402000", "134036.901000", "134038.401000", "134040.401000", "134042.901000", "134044.401000", "134046.901000", "134048.903000", "134050.402000", "134052.401000", "134054.401000", "134056.401000", "134058.401000", "134100.401000", "134102.901000", "134104.901000", "134106.402000", "134108.402000", "134110.901000", "134112.401000", "134114.401000", "134116.401000", "134118.401000", "134120.401000", "134122.402000", "134124.902000", "134126.902000", "134128.901000", "134130.901000", "134132.401000", "134134.901000", "134136.401000", "134138.901000", "134140.401000", "134142.402000", "134144.402000", "134146.902000", "134148.901000", "134150.901000", "134152.901000", "134154.902000", "134156.902000", "134158.401000", "134200.902000", "134202.901000", "134204.902000", "134206.901000", "134208.902000", "134210.401000", "134212.901000", "134214.901000", "134216.402000", "134218.902000", "134220.901000", "134222.901000", "134224.901000", "134226.901000", "134228.901000", "134230.901000", "134232.402000", "134234.903000", "134236.403000", "134238.901000", "134240.901000", "134242.902000", "134244.401000", "134246.901000", "134248.902000", "134250.901000", "134252.402000", "134254.902000", "134256.901000", "134258.901000", "134300.401000", "134302.401000", "134304.901000", "134306.901000", "134308.402000", "134310.903000", "134312.901000", "134314.901000", "134316.901000", "134318.401000", "134320.401000", "134322.402000", "134324.401000", "134326.402000", "134328.402000", "134330.901000", "134332.901000", "134334.901000", "134336.901000", "134338.901000", "134340.401000", "134342.901000", "134344.902000", "134346.903000", "134348.901000", "134350.901000", "134352.401000", "134354.902000", "134356.401000", "134358.902000", "134400.402000", "134402.903000", "134404.402000", "134406.901000", "134408.901000", "134410.902000", "134412.401000", "134414.402000", "134416.401000", "134418.402000", "134420.903000", "134422.401000", "134424.902000", "134426.401000", "134428.402000", "134430.902000", "134432.901000", "134434.902000", "134436.902000", "134438.402000", "134440.901000", "134442.902000", "134444.401000", "134446.902000", "134448.901000", "134450.901000", "134452.902000", "134454.902000", "134456.403000", "134458.402000", "134500.901000", "134502.901000", "134504.902000", "134506.401000", "134508.401000", "134510.401000", "134512.903000", "134514.902000", "134516.401000", "134518.401000", "134520.401000", "134522.901000", "134524.401000", "134526.901000", "134528.902000", "134530.403000", "134532.902000", "134534.902000", "134536.348000"],
      "InstanceCreationTime": ["133755.407000", "133756.402000", "133758.401000", "133800.402000", "133802.401000", "133804.901000", "133806.901000", "133808.401000", "133810.401000", "133812.902000", "133814.901000", "133816.901000", "133818.401000", "133820.401000", "133822.901000", "133824.902000", "133826.402000", "133828.903000", "133830.902000", "133832.902000", "133834.901000", "133836.402000", "133838.401000", "133840.401000", "133842.401000", "133844.402000", "133846.403000", "133848.402000", "133850.902000", "133852.901000", "133854.401000", "133856.401000", "133858.401000", "133900.401000", "133902.401000", "133904.902000", "133906.402000", "133908.901000", "133910.902000", "133912.901000", "133914.902000", "133916.902000", "133918.901000", "133920.402000", "133922.402000", "133924.402000", "133926.401000", "133928.902000", "133930.901000", "133932.401000", "133934.401000", "133936.901000", "133938.902000", "133940.402000", "133942.902000", "133944.401000", "133946.901000", "133948.901000", "133950.401000", "133952.901000", "133954.902000", "133956.402000", "133958.402000", "134000.402000", "134002.401000", "134004.402000", "134006.401000", "134008.402000", "134010.401000", "134012.901000", "134014.902000", "134016.402000", "134018.401000", "134020.901000", "134022.901000", "134024.902000", "134026.402000", "134028.901000", "134030.401000", "134032.902000", "134034.402000", "134036.901000", "134038.401000", "134040.401000", "134042.901000", "134044.401000", "134046.901000", "134048.903000", "134050.402000", "134052.401000", "134054.401000", "134056.401000", "134058.401000", "134100.401000", "134102.901000", "134104.901000", "134106.402000", "134108.402000", "134110.901000", "134112.401000", "134114.401000", "134116.401000", "134118.401000", "134120.401000", "134122.402000", "134124.902000", "134126.902000", "134128.901000", "134130.901000", "134132.401000", "134134.901000", "134136.401000", "134138.901000", "134140.401000", "134142.402000", "134144.402000", "134146.902000", "134148.901000", "134150.901000", "134152.901000", "134154.902000", "134156.902000", "134158.401000", "134200.902000", "134202.901000", "134204.902000", "134206.901000", "134208.902000", "134210.401000", "134212.901000", "134214.901000", "134216.402000", "134218.902000", "134220.901000", "134222.901000", "134224.901000", "134226.901000", "134228.901000", "134230.901000", "134232.402000", "134234.903000", "134236.403000", "134238.901000", "134240.901000", "134242.902000", "134244.401000", "134246.901000", "134248.902000", "134250.901000", "134252.402000", "134254.902000", "134256.901000", "134258.901000", "134300.401000", "134302.401000", "134304.901000", "134306.901000", "134308.402000", "134310.903000", "134312.901000", "134314.901000", "134316.901000", "134318.401000", "134320.401000", "134322.402000", "134324.401000", "134326.402000", "134328.402000", "134330.901000", "134332.901000", "134334.901000", "134336.901000", "134338.901000", "134340.401000", "134342.901000", "134344.902000", "134346.903000", "134348.901000", "134350.901000", "134352.401000", "134354.902000", "134356.401000", "134358.902000", "134400.402000", "134402.903000", "134404.402000", "134406.901000", "134408.901000", "134410.902000", "134412.401000", "134414.402000", "134416.401000", "134418.402000", "134420.903000", "134422.401000", "134424.902000", "134426.401000", "134428.402000", "134430.902000", "134432.901000", "134434.902000", "134436.902000", "134438.402000", "134440.901000", "134442.902000", "134444.401000", "134446.902000", "134448.901000", "134450.901000", "134452.902000", "134454.902000", "134456.403000", "134458.402000", "134500.901000", "134502.901000", "134504.902000", "134506.401000", "134508.401000", "134510.401000", "134512.903000", "134514.902000", "134516.401000", "134518.401000", "134520.401000", "134522.901000", "134524.401000", "134526.901000", "134528.902000", "134530.403000", "134532.902000", "134534.902000", "134536.348000"],
      "InstanceNumber": [1, 2, 3, 4, 5, 6, 7, 8, 9, 10, 11, 12, 13, 14, 15, 16, 17, 18, 19, 20, 21, 22, 23, 24, 25, 26, 27, 28, 29, 30, 31, 32, 33, 34, 35, 36, 37, 38, 39, 40, 41, 42, 43, 44, 45, 46, 47, 48, 49, 50, 51, 52, 53, 54, 55, 56, 57, 58, 59, 60, 61, 62, 63, 64, 65, 66, 67, 68, 69, 70, 71, 72, 73, 74, 75, 76, 77, 78, 79, 80, 81, 82, 83, 84, 85, 86, 87, 88, 89, 90, 91, 92, 93, 94, 95, 96, 97, 98, 99, 100, 101, 102, 103, 104, 105, 106, 107, 108, 109, 110, 111, 112, 113, 114, 115, 116, 117, 118, 119, 120, 121, 122, 123, 124, 125, 126, 127, 128, 129, 130, 131, 132, 133, 134, 135, 136, 137, 138, 139, 140, 141, 142, 143, 144, 145, 146, 147, 148, 149, 150, 151, 152, 153, 154, 155, 156, 157, 158, 159, 160, 161, 162, 163, 164, 165, 166, 167, 168, 169, 170, 171, 172, 173, 174, 175, 176, 177, 178, 179, 180, 181, 182, 183, 184, 185, 186, 187, 188, 189, 190, 191, 192, 193, 194, 195, 196, 197, 198, 199, 200, 201, 202, 203, 204, 205, 206, 207, 208, 209, 210, 211, 212, 213, 214, 215, 216, 217, 218, 219, 220, 221, 222, 223, 224, 225, 226, 227, 228, 229, 230, 231, 232],
      "LargestImagePixelValue": [3670, 3605, 3551, 3532, 3515, 3528, 3556, 3571, 3560, 3520, 3573, 3572, 3553, 3571, 3570, 3563, 3566, 3548, 3432, 3620, 3478, 3425, 3490, 3474, 3481, 3487, 3476, 3488, 3476, 3495, 3472, 3495, 3480, 3509, 3507, 3480, 3491, 3489, 3527, 3501, 3504, 3482, 3495, 3520, 3485, 3503, 3506, 3520, 3546, 3707, 3473, 3419, 3460, 3503, 3545, 3529, 3538, 3553, 3556, 3551, 3552, 3597, 3604, 3560, 3534, 3509, 3523, 3549, 3549, 3577, 3547, 3523, 3540, 3562, 3553, 3533, 3950, 3542, 3546, 3563, 3549, 3501, 3453, 3456, 3466, 3551, 3564, 3516, 3541, 3508, 3465, 3527, 3532, 3531, 3530, 3546, 3548, 3515, 3515, 3514, 3549, 3530, 3491, 3537, 3524, 3478, 3487, 3473, 3469, 3491, 3489, 3479, 3485, 3512, 3500, 3535, 3504, 3577, 3545, 3545, 3575, 3603, 3600, 3552, 3580, 3561, 3558, 3568, 3550, 3526, 3527, 3502, 3519, 3503, 3505, 3530, 3514, 3511, 3512, 3525, 3500, 3520, 3492, 3494, 3480, 3526, 3410, 3504, 3366, 3398, 3380, 3371, 3385, 3335, 3493, 3432, 3413, 3420, 3434, 3424, 3413, 3411, 3446, 3419, 3415, 3443, 3451, 3433, 3445, 3449, 3439, 3455, 3437, 3459, 3454, 3480, 3486, 3463, 3420, 3454, 3495, 3445, 3385, 3489, 3531, 3508, 3523, 3486, 3506, 3502, 3506, 3514, 3553, 3468, 3493, 3489, 3559, 3535, 3567, 3562, 3582, 3556, 3537, 3526, 3540, 3525, 3525, 3502, 3521, 3399, 3537, 3405, 3479, 3338, 3378, 3383, 3393, 3489, 3450, 3467, 3491, 3480, 3475, 3452, 3481, 3468, 3467, 3499, 3466, 3487, 3485, 3466],
      "WindowCenter": [803.0, 801.0, 801.0, 801.0, 801.0, 801.0, 801.0, 802.0, 801.0, 801.0, 801.0, 801.0, 801.0, 801.0, 800.0, 800.0, 800.0, 800.0, 800.0, 802.0, 801.0, 799.0, 800.0, 802.0, 801.0, 801.0, 801.0, 801.0, 801.0, 802.0, 801.0, 801.0, 801.0, 801.0, 801.0, 801.0, 801.0, 800.0, 801.0, 801.0, 801.0, 801.0, 803.0, 802.0, 801.0, 801.0, 800.0, 800.0, 799.0, 794.0, 802.0, 802.0, 801.0, 801.0, 800.0, 800.0, 800.0, 800.0, 803.0, 802.0, 800.0, 800.0, 800.0, 801.0, 802.0, 802.0, 802.0, 802.0, 803.0, 803.0, 802.0, 802.0, 802.0, 802.0, 803.0, 804.0, 806.0, 803.0, 802.0, 803.0, 804.0, 804.0, 802.0, 803.0, 801.0, 800.0, 803.0, 800.0, 800.0, 801.0, 802.0, 803.0, 803.0, 802.0, 802.0, 802.0, 802.0, 801.0, 801.0, 801.0, 801.0, 801.0, 802.0, 802.0, 801.0, 801.0, 802.0, 801.0, 802.0, 802.0, 802.0, 802.0, 802.0, 802.0, 804.0, 804.0, 801.0, 802.0, 804.0, 803.0, 801.0, 801.0, 801.0, 801.0, 802.0, 802.0, 802.0, 802.0, 802.0, 802.0, 802.0, 802.0, 802.0, 801.0, 801.0, 801.0, 801.0, 801.0, 802.0, 803.0, 803.0, 802.0, 801.0, 801.0, 801.0, 801.0, 799.0, 802.0, 799.0, 801.0, 798.0, 800.0, 801.0, 800.0, 801.0, 801.0, 801.0, 803.0, 802.0, 802.0, 802.0, 802.0, 803.0, 803.0, 802.0, 801.0, 800.0, 800.0, 800.0, 800.0, 801.0, 801.0, 800.0, 800.0, 800.0, 801.0, 802.0, 803.0, 802.0, 801.0, 802.0, 801.0, 802.0, 802.0, 802.0, 802.0, 802.0, 801.0, 801.0, 802.0, 802.0, 802.0, 802.0, 801.0, 802.0, 802.0, 804.0, 805.0, 803.0, 801.0, 801.0, 801.0, 802.0, 802.0, 802.0, 801.0, 802.0, 801.0, 801.0, 800.0, 802.0, 803.0, 801.0, 801.0, 800.0, 800.0, 798.0, 800.0, 801.0, 800.0, 801.0, 801.0, 801.0, 801.0, 801.0, 801.0, 801.0, 802.0, 801.0, 801.0, 801.0, 801.0],
      "WindowWidth": [1734.0, 1730.0, 1729.0, 1730.0, 1730.0, 1729.0, 1729.0, 1730.0, 1730.0, 1730.0, 1730.0, 1730.0, 1729.0, 1728.0, 1727.0, 1726.0, 1727.0, 1727.0, 1725.0, 1730.0, 1729.0, 1722.0, 1726.0, 1732.0, 1730.0, 1729.0, 1729.0, 1730.0, 1730.0, 1730.0, 1729.0, 1728.0, 1729.0, 1730.0, 1730.0, 1729.0, 1729.0, 1727.0, 1729.0, 1728.0, 1728.0, 1730.0, 1733.0, 1732.0, 1728.0, 1727.0, 1725.0, 1725.0, 1724.0, 1710.0, 1730.0, 1731.0, 1726.0, 1727.0, 1726.0, 1727.0, 1725.0, 1727.0, 1733.0, 1730.0, 1726.0, 1725.0, 1726.0, 1728.0, 1730.0, 1729.0, 1730.0, 1731.0, 1732.0, 1733.0, 1732.0, 1732.0, 1731.0, 1731.0, 1733.0, 1737.0, 1742.0, 1733.0, 1732.0, 1733.0, 1735.0, 1736.0, 1730.0, 1734.0, 1728.0, 1726.0, 1733.0, 1726.0, 1727.0, 1728.0, 1731.0, 1733.0, 1733.0, 1732.0, 1732.0, 1730.0, 1730.0, 1729.0, 1728.0, 1728.0, 1729.0, 1729.0, 1730.0, 1731.0, 1730.0, 1729.0, 1731.0, 1730.0, 1731.0, 1731.0, 1732.0, 1731.0, 1731.0, 1731.0, 1736.0, 1735.0, 1728.0, 1729.0, 1736.0, 1732.0, 1729.0, 1727.0, 1728.0, 1729.0, 1731.0, 1732.0, 1732.0, 1732.0, 1731.0, 1731.0, 1731.0, 1731.0, 1731.0, 1729.0, 1729.0, 1729.0, 1729.0, 1728.0, 1730.0, 1733.0, 1733.0, 1730.0, 1729.0, 1728.0, 1729.0, 1728.0, 1724.0, 1731.0, 1722.0, 1727.0, 1720.0, 1726.0, 1727.0, 1724.0, 1729.0, 1728.0, 1730.0, 1733.0, 1731.0, 1731.0, 1732.0, 1732.0, 1733.0, 1733.0, 1730.0, 1728.0, 1727.0, 1726.0, 1726.0, 1726.0, 1727.0, 1728.0, 1726.0, 1725.0, 1725.0, 1728.0, 1731.0, 1733.0, 1730.0, 1728.0, 1730.0, 1728.0, 1730.0, 1731.0, 1732.0, 1731.0, 1731.0, 1729.0, 1729.0, 1731.0, 1732.0, 1731.0, 1730.0, 1729.0, 1731.0, 1731.0, 1737.0, 1739.0, 1733.0, 1729.0, 1728.0, 1729.0, 1730.0, 1732.0, 1731.0, 1730.0, 1730.0, 1729.0, 1730.0, 1727.0, 1730.0, 1733.0, 1729.0, 1729.0, 1727.0, 1727.0, 1721.0, 1726.0, 1727.0, 1727.0, 1729.0, 1729.0, 1729.0, 1729.0, 1728.0, 1728.0, 1729.0, 1730.0, 1730.0, 1730.0, 1728.0, 1729.0]
    },
    "slices": {}
  }
}