{
  "AcquisitionMatrixPE": 100,
  "AcquisitionNumber": 1,
  "AcquisitionTime": "13:20:44.172500",
  "BandwidthPerPixelPhaseEncode": 18.519,
  "BaseResolution": 100,
  "BodyPartExamined": "BRAIN",
  "ConsistencyInfo": "N4_VE11C_LATEST_20160120",
  "ConversionSoftware": "dcm2niix",
  "ConversionSoftwareVersion": "v1.0.20180622 GCC4.9.2",
  "DerivedVendorReportedEchoSpacing": 0.000539986,
  "DeviceSerialNumber": "166078",
  "DwellTime": 2.1e-06,
  "EchoTime": 0.034,
  "EchoTrainLength": 100,
  "EffectiveEchoSpacing": 0.000539986,
  "FlipAngle": 90,
  "ImageOrientationPatientDICOM": [0.998016, 0.0629476, -0.00146323, -0.0627899, 0.993248, -0.097554],
  "ImageType": [
    "ORIGINAL",
    "PRIMARY",
    "M",
    "ND",
    "MOSAIC"
],
  "InPlanePhaseEncodingDirectionDICOM": "COL",
  "InstitutionAddress": "Street_StreetNo_Bei_Jing_District_CN_ZIP",
  "InstitutionName": "BeiJing_Normal_University",
  "InstitutionalDepartmentName": "Department",
  "MRAcquisitionType": "2D",
  "MagneticFieldStrength": 3,
  "Manufacturer": "Siemens",
  "ManufacturersModelName": "Prisma",
  "Modality": "MR",
  "MultibandAccelerationFactor": 3,
  "PartialFourier": 1,
  "PatientPosition": "HFS",
  "PercentPhaseFOV": 100,
  "PhaseEncodingDirection": "j-",
  "PhaseEncodingSteps": 100,
  "PhaseResolution": 1,
  "PixelBandwidth": 2380,
  "ProcedureStepDescription": "BNU_P2018_64CH_Liu.Jia",
  "ProtocolName": "bold_100x100_s3_2x2x2_232",
  "PulseSequenceDetails": "%SiemensSeq%_ep2d_bold",
  "ReceiveCoilActiveElements": "HC1-7;NC1",
  "ReceiveCoilName": "HeadNeck_64",
  "ReconMatrixPE": 100,
  "RepetitionTime": 2,
  "SAR": 0.0707031,
  "ScanOptions": "FS",
  "ScanningSequence": "EP",
  "SequenceName": "_epfid2d1_100",
  "SequenceVariant": "SK",
  "SeriesDescription": "bold_100x100_s3_2x2x2_232",
  "SeriesNumber": 8,
  "ShimSetting": [-5474, -11467, -1275, 308, -51, -196, -126, 104],
  "SliceThickness": 2,
  "SliceTiming": [1.485, 0, 0.99, 0.0825, 1.0725, 0.165, 1.155, 0.2475, 1.2375, 0.33, 1.32, 0.4125, 1.4025, 0.5775, 1.5675, 0.66, 1.65, 0.7425, 1.7325, 0.825, 1.815, 0.9075, 1.8975, 0.495, 1.485, 0, 0.99, 0.0825, 1.0725, 0.165, 1.155, 0.2475, 1.2375, 0.33, 1.32, 0.4125, 1.4025, 0.5775, 1.5675, 0.66, 1.65, 0.7425, 1.7325, 0.825, 1.815, 0.9075, 1.8975, 0.495, 1.485, 0, 0.99, 0.0825, 1.0725, 0.165, 1.155, 0.2475, 1.2375, 0.33, 1.32, 0.4125, 1.4025, 0.5775, 1.5675, 0.66, 1.65, 0.7425, 1.7325, 0.825, 1.815, 0.9075, 1.8975, 0.495],
  "SoftwareVersions": "syngo_MR_E11",
  "SpacingBetweenSlices": 2,
  "StationName": "AWP166078",
  "TaskName": "motor",
  "TotalReadoutTime": 0.0534586,
  "TxRefAmp": 221.104,
  "dcmmeta_affine": [
    [-1.9960315227508545, -0.12557972967624664, 0.009374881163239479, 105.8792953491211],
    [-0.1258951723575592, 1.986495018005371, -0.19490458071231842, -77.81704711914062],
    [-0.0029264551121741533, 0.19510796666145325, 1.990458369255066, -87.76549530029297],
    [0.0, 0.0, 0.0, 1.0]
],
  "dcmmeta_reorient_transform": [
    [0.0, -1.0, 0.0, 99.0],
    [1.0, 0.0, 0.0, 0.0],
    [0.0, 0.0, 1.0, 0.0],
    [0.0, 0.0, 0.0, 1.0]
],
  "dcmmeta_shape": [100, 100, 72, 232],
  "dcmmeta_slice_dim": 2,
  "dcmmeta_version": 0.6,
  "global": {
    "const": {
      "AcquisitionMatrix": [100, 0, 0, 100],
      "AngioFlag": "N",
      "BitsAllocated": 16,
      "BitsStored": 12,
      "BodyPartExamined": "BRAIN",
      "Columns": 900,
      "EchoNumbers": 1,
      "EchoTime": 34.0,
      "EchoTrainLength": 100,
      "FlipAngle": 90.0,
      "HighBit": 11,
      "ImageOrientationPatient": [0.99801576167767, 0.06294758460788, -0.0014632275872, -0.0627898665636, 0.99324752822433, -0.0975539867621],
      "ImagePositionPatient": [-841.62761709895, -963.80205533012, 10.763968561382],
      "ImageType": [
        "ORIGINAL",
        "PRIMARY",
        "M",
        "ND",
        "MOSAIC"
],
      "ImagedNucleus": "1H",
      "ImagingFrequency": 123.257853,
      "InPlanePhaseEncodingDirection": "COL",
      "MRAcquisitionType": "2D",
      "MagneticFieldStrength": 3.0,
      "Manufacturer": "SIEMENS",
      "ManufacturerModelName": "Prisma",
      "Modality": "MR",
      "NumberOfAverages": 1.0,
      "NumberOfPhaseEncodingSteps": 100,
      "PercentPhaseFieldOfView": 100.0,
      "PercentSampling": 100.0,
      "PerformedProcedureStepStartTime": "124801.352000",
      "PhotometricInterpretation": "MONOCHROME2",
      "PixelBandwidth": 2380.0,
      "PixelRepresentation": 0,
      "PixelSpacing": [2.0, 2.0],
      "ProtocolName": "bold_100x100_s3_2x2x2_232",
      "RepetitionTime": 2000.0,
      "Rows": 900,
      "SAR": 0.07070312321854,
      "SamplesPerPixel": 1,
      "ScanOptions": "FS",
      "ScanningSequence": "EP",
      "SequenceName": "*epfid2d1_100",
      "SequenceVariant": "SK",
      "SeriesDescription": "bold_100x100_s3_2x2x2_232",
      "SeriesNumber": 8,
      "SeriesTime": "132047.082000",
      "SliceLocation": -79.267024701654,
      "SliceThickness": 2.0,
      "SmallestImagePixelValue": 0,
      "SoftwareVersions": "syngo MR E11",
      "SpacingBetweenSlices": 1.9999999956878,
      "SpecificCharacterSet": "ISO_IR 100",
      "StudyID": "1",
      "StudyTime": "124801.286000",
      "TransmitCoilName": "Body",
      "VariableFlipAngleFlag": "N",
      "WindowCenterWidthExplanation": "Algo1",
      "dBdt": 0.0},
    "slices": {}
  },
  "time": {
    "samples": {
      "AcquisitionNumber": [1, 2, 3, 4, 5, 6, 7, 8, 9, 10, 11, 12, 13, 14, 15, 16, 17, 18, 19, 20, 21, 22, 23, 24, 25, 26, 27, 28, 29, 30, 31, 32, 33, 34, 35, 36, 37, 38, 39, 40, 41, 42, 43, 44, 45, 46, 47, 48, 49, 50, 51, 52, 53, 54, 55, 56, 57, 58, 59, 60, 61, 62, 63, 64, 65, 66, 67, 68, 69, 70, 71, 72, 73, 74, 75, 76, 77, 78, 79, 80, 81, 82, 83, 84, 85, 86, 87, 88, 89, 90, 91, 92, 93, 94, 95, 96, 97, 98, 99, 100, 101, 102, 103, 104, 105, 106, 107, 108, 109, 110, 111, 112, 113, 114, 115, 116, 117, 118, 119, 120, 121, 122, 123, 124, 125, 126, 127, 128, 129, 130, 131, 132, 133, 134, 135, 136, 137, 138, 139, 140, 141, 142, 143, 144, 145, 146, 147, 148, 149, 150, 151, 152, 153, 154, 155, 156, 157, 158, 159, 160, 161, 162, 163, 164, 165, 166, 167, 168, 169, 170, 171, 172, 173, 174, 175, 176, 177, 178, 179, 180, 181, 182, 183, 184, 185, 186, 187, 188, 189, 190, 191, 192, 193, 194, 195, 196, 197, 198, 199, 200, 201, 202, 203, 204, 205, 206, 207, 208, 209, 210, 211, 212, 213, 214, 215, 216, 217, 218, 219, 220, 221, 222, 223, 224, 225, 226, 227, 228, 229, 230, 231, 232],
      "AcquisitionTime": ["132044.172500", "132046.172500", "132048.172500", "132050.172500", "132052.172500", "132054.172500", "132056.172500", "132058.172500", "132100.172500", "132102.172500", "132104.172500", "132106.172500", "132108.172500", "132110.172500", "132112.172500", "132114.172500", "132116.172500", "132118.172500", "132120.172500", "132122.172500", "132124.172500", "132126.172500", "132128.172500", "132130.172500", "132132.172500", "132134.172500", "132136.172500", "132138.172500", "132140.172500", "132142.172500", "132144.172500", "132146.172500", "132148.172500", "132150.172500", "132152.172500", "132154.172500", "132156.172500", "132158.172500", "132200.172500", "132202.172500", "132204.172500", "132206.172500", "132208.172500", "132210.172500", "132212.172500", "132214.172500", "132216.172500", "132218.172500", "132220.172500", "132222.172500", "132224.172500", "132226.172500", "132228.172500", "132230.172500", "132232.172500", "132234.172500", "132236.172500", "132238.172500", "132240.172500", "132242.172500", "132244.172500", "132246.172500", "132248.172500", "132250.172500", "132252.172500", "132254.172500", "132256.172500", "132258.172500", "132300.172500", "132302.172500", "132304.172500", "132306.172500", "132308.172500", "132310.172500", "132312.172500", "132314.172500", "132316.172500", "132318.172500", "132320.172500", "132322.172500", "132324.172500", "132326.172500", "132328.172500", "132330.172500", "132332.172500", "132334.172500", "132336.172500", "132338.172500", "132340.172500", "132342.172500", "132344.172500", "132346.172500", "132348.172500", "132350.172500", "132352.172500", "132354.172500", "132356.172500", "132358.172500", "132400.172500", "132402.172500", "132404.172500", "132406.172500", "132408.172500", "132410.172500", "132412.172500", "132414.172500", "132416.172500", "132418.172500", "132420.172500", "132422.172500", "132424.172500", "132426.172500", "132428.172500", "132430.172500", "132432.172500", "132434.172500", "132436.172500", "132438.172500", "132440.172500", "132442.172500", "132444.172500", "132446.172500", "132448.172500", "132450.172500", "132452.172500", "132454.172500", "132456.172500", "132458.172500", "132500.172500", "132502.172500", "132504.172500", "132506.172500", "132508.172500", "132510.172500", "132512.172500", "132514.172500", "132516.172500", "132518.172500", "132520.172500", "132522.172500", "132524.172500", "132526.172500", "132528.172500", "132530.172500", "132532.172500", "132534.172500", "132536.172500", "132538.172500", "132540.172500", "132542.172500", "132544.172500", "132546.172500", "132548.172500", "132550.172500", "132552.172500", "132554.172500", "132556.172500", "132558.172500", "132600.172500", "132602.172500", "132604.172500", "132606.172500", "132608.172500", "132610.172500", "132612.172500", "132614.172500", "132616.172500", "132618.172500", "132620.172500", "132622.172500", "132624.172500", "132626.172500", "132628.172500", "132630.172500", "132632.172500", "132634.172500", "132636.172500", "132638.172500", "132640.172500", "132642.172500", "132644.172500", "132646.172500", "132648.172500", "132650.172500", "132652.172500", "132654.172500", "132656.172500", "132658.172500", "132700.172500", "132702.172500", "132704.172500", "132706.172500", "132708.172500", "132710.172500", "132712.172500", "132714.172500", "132716.172500", "132718.172500", "132720.172500", "132722.172500", "132724.172500", "132726.172500", "132728.172500", "132730.172500", "132732.172500", "132734.172500", "132736.172500", "132738.172500", "132740.172500", "132742.172500", "132744.172500", "132746.172500", "132748.172500", "132750.172500", "132752.172500", "132754.172500", "132756.172500", "132758.172500", "132800.172500", "132802.172500", "132804.172500", "132806.172500", "132808.172500", "132810.172500", "132812.172500", "132814.172500", "132816.172500", "132818.172500", "132820.172500", "132822.172500", "132824.172500", "132826.172500"],
      "ContentTime": ["132047.085000", "132048.581000", "132050.581000", "132052.581000", "132054.581000", "132056.581000", "132058.581000", "132100.582000", "132102.581000", "132104.582000", "132106.581000", "132108.581000", "132110.582000", "132112.581000", "132114.581000", "132116.581000", "132118.582000", "132120.582000", "132122.581000", "132124.581000", "132126.581000", "132128.581000", "132130.581000", "132132.581000", "132134.581000", "132136.581000", "132138.581000", "132140.581000", "132142.581000", "132144.581000", "132146.581000", "132148.581000", "132150.582000", "132152.582000", "132154.581000", "132156.581000", "132158.582000", "132200.581000", "132202.581000", "132204.581000", "132206.582000", "132208.582000", "132210.583000", "132212.581000", "132214.582000", "132216.581000", "132218.581000", "132220.581000", "132222.581000", "132224.581000", "132226.581000", "132228.581000", "132230.582000", "132232.582000", "132234.581000", "132236.581000", "132238.581000", "132240.582000", "132242.581000", "132244.581000", "132246.581000", "132248.581000", "132250.581000", "132252.581000", "132254.582000", "132256.581000", "132258.582000", "132300.582000", "132302.583000", "132304.582000", "132306.581000", "132308.581000", "132310.581000", "132312.581000", "132314.581000", "132316.581000", "132318.581000", "132320.583000", "132322.581000", "132324.582000", "132326.582000", "132328.581000", "132330.581000", "132332.581000", "132334.582000", "132336.582000", "132338.581000", "132340.582000", "132342.581000", "132344.581000", "132346.582000", "132348.581000", "132350.581000", "132352.582000", "132354.582000", "132356.581000", "132358.581000", "132400.581000", "132402.582000", "132404.581000", "132406.581000", "132408.581000", "132410.582000", "132412.582000", "132414.581000", "132416.581000", "132418.581000", "132420.582000", "132422.581000", "132424.581000", "132426.581000", "132428.581000", "132430.583000", "132432.581000", "132434.581000", "132436.581000", "132438.581000", "132440.581000", "132442.581000", "132444.581000", "132446.581000", "132448.582000", "132450.582000", "132452.581000", "132454.581000", "132456.582000", "132458.582000", "132500.581000", "132502.581000", "132504.582000", "132506.581000", "132508.581000", "132510.581000", "132512.581000", "132514.582000", "132516.581000", "132518.581000", "132520.581000", "132522.582000", "132524.581000", "132526.581000", "132528.582000", "132530.582000", "132532.581000", "132534.581000", "132536.581000", "132538.581000", "132540.582000", "132542.581000", "132544.581000", "132546.582000", "132548.581000", "132550.582000", "132552.581000", "132554.582000", "132556.581000", "132558.582000", "132600.582000", "132602.581000", "132604.581000", "132606.581000", "132608.582000", "132610.582000", "132612.581000", "132614.583000", "132616.581000", "132618.581000", "132620.582000", "132622.582000", "132624.581000", "132626.581000", "132628.581000", "132630.581000", "132632.582000", "132634.581000", "132636.582000", "132638.581000", "132640.582000", "132642.582000", "132644.581000", "132646.581000", "132648.581000", "132650.583000", "132652.581000", "132654.582000", "132656.582000", "132658.581000", "132700.582000", "132702.582000", "132704.581000", "132706.582000", "132708.581000", "132710.582000", "132712.581000", "132714.582000", "132716.581000", "132718.581000", "132720.581000", "132722.596000", "132724.582000", "132726.581000", "132728.581000", "132730.581000", "132732.581000", "132734.581000", "132736.581000", "132738.581000", "132740.582000", "132742.582000", "132744.582000", "132746.582000", "132748.581000", "132750.581000", "132752.581000", "132754.582000", "132756.581000", "132758.581000", "132800.582000", "132802.581000", "132804.581000", "132806.582000", "132808.582000", "132810.581000", "132812.582000", "132814.582000", "132816.581000", "132818.581000", "132820.582000", "132822.581000", "132824.581000", "132826.581000", "132828.180000"],
      "InstanceCreationTime": ["132047.085000", "132048.581000", "132050.581000", "132052.581000", "132054.581000", "132056.581000", "132058.581000", "132100.582000", "132102.581000", "132104.582000", "132106.581000", "132108.581000", "132110.582000", "132112.581000", "132114.581000", "132116.581000", "132118.582000", "132120.582000", "132122.581000", "132124.581000", "132126.581000", "132128.581000", "132130.581000", "132132.581000", "132134.581000", "132136.581000", "132138.581000", "132140.581000", "132142.581000", "132144.581000", "132146.581000", "132148.581000", "132150.582000", "132152.582000", "132154.581000", "132156.581000", "132158.582000", "132200.581000", "132202.581000", "132204.581000", "132206.582000", "132208.582000", "132210.583000", "132212.581000", "132214.582000", "132216.581000", "132218.581000", "132220.581000", "132222.581000", "132224.581000", "132226.581000", "132228.581000", "132230.582000", "132232.582000", "132234.581000", "132236.581000", "132238.581000", "132240.582000", "132242.581000", "132244.581000", "132246.581000", "132248.581000", "132250.581000", "132252.581000", "132254.582000", "132256.581000", "132258.582000", "132300.582000", "132302.583000", "132304.582000", "132306.581000", "132308.581000", "132310.581000", "132312.581000", "132314.581000", "132316.581000", "132318.581000", "132320.583000", "132322.581000", "132324.582000", "132326.582000", "132328.581000", "132330.581000", "132332.581000", "132334.582000", "132336.582000", "132338.581000", "132340.582000", "132342.581000", "132344.581000", "132346.582000", "132348.581000", "132350.581000", "132352.582000", "132354.582000", "132356.581000", "132358.581000", "132400.581000", "132402.582000", "132404.581000", "132406.581000", "132408.581000", "132410.582000", "132412.582000", "132414.581000", "132416.581000", "132418.581000", "132420.582000", "132422.581000", "132424.581000", "132426.581000", "132428.581000", "132430.583000", "132432.581000", "132434.581000", "132436.581000", "132438.581000", "132440.581000", "132442.581000", "132444.581000", "132446.581000", "132448.582000", "132450.582000", "132452.581000", "132454.581000", "132456.582000", "132458.582000", "132500.581000", "132502.581000", "132504.582000", "132506.581000", "132508.581000", "132510.581000", "132512.581000", "132514.582000", "132516.581000", "132518.581000", "132520.581000", "132522.582000", "132524.581000", "132526.581000", "132528.582000", "132530.582000", "132532.581000", "132534.581000", "132536.581000", "132538.581000", "132540.582000", "132542.581000", "132544.581000", "132546.582000", "132548.581000", "132550.582000", "132552.581000", "132554.582000", "132556.581000", "132558.582000", "132600.582000", "132602.581000", "132604.581000", "132606.581000", "132608.582000", "132610.582000", "132612.581000", "132614.583000", "132616.581000", "132618.581000", "132620.582000", "132622.582000", "132624.581000", "132626.581000", "132628.581000", "132630.581000", "132632.582000", "132634.581000", "132636.582000", "132638.581000", "132640.582000", "132642.582000", "132644.581000", "132646.581000", "132648.581000", "132650.583000", "132652.581000", "132654.582000", "132656.582000", "132658.581000", "132700.582000", "132702.582000", "132704.581000", "132706.582000", "132708.581000", "132710.582000", "132712.581000", "132714.582000", "132716.581000", "132718.581000", "132720.581000", "132722.596000", "132724.582000", "132726.581000", "132728.581000", "132730.581000", "132732.581000", "132734.581000", "132736.581000", "132738.581000", "132740.582000", "132742.582000", "132744.582000", "132746.582000", "132748.581000", "132750.581000", "132752.581000", "132754.582000", "132756.581000", "132758.581000", "132800.582000", "132802.581000", "132804.581000", "132806.582000", "132808.582000", "132810.581000", "132812.582000", "132814.582000", "132816.581000", "132818.581000", "132820.582000", "132822.581000", "132824.581000", "132826.581000", "132828.180000"],
      "InstanceNumber": [1, 2, 3, 4, 5, 6, 7, 8, 9, 10, 11, 12, 13, 14, 15, 16, 17, 18, 19, 20, 21, 22, 23, 24, 25, 26, 27, 28, 29, 30, 31, 32, 33, 34, 35, 36, 37, 38, 39, 40, 41, 42, 43, 44, 45, 46, 47, 48, 49, 50, 51, 52, 53, 54, 55, 56, 57, 58, 59, 60, 61, 62, 63, 64, 65, 66, 67, 68, 69, 70, 71, 72, 73, 74, 75, 76, 77, 78, 79, 80, 81, 82, 83, 84, 85, 86, 87, 88, 89, 90, 91, 92, 93, 94, 95, 96, 97, 98, 99, 100, 101, 102, 103, 104, 105, 106, 107, 108, 109, 110, 111, 112, 113, 114, 115, 116, 117, 118, 119, 120, 121, 122, 123, 124, 125, 126, 127, 128, 129, 130, 131, 132, 133, 134, 135, 136, 137, 138, 139, 140, 141, 142, 143, 144, 145, 146, 147, 148, 149, 150, 151, 152, 153, 154, 155, 156, 157, 158, 159, 160, 161, 162, 163, 164, 165, 166, 167, 168, 169, 170, 171, 172, 173, 174, 175, 176, 177, 178, 179, 180, 181, 182, 183, 184, 185, 186, 187, 188, 189, 190, 191, 192, 193, 194, 195, 196, 197, 198, 199, 200, 201, 202, 203, 204, 205, 206, 207, 208, 209, 210, 211, 212, 213, 214, 215, 216, 217, 218, 219, 220, 221, 222, 223, 224, 225, 226, 227, 228, 229, 230, 231, 232],
      "LargestImagePixelValue": [3738, 3703, 3633, 3625, 3593, 3597, 3636, 3633, 3601, 3627, 3685, 3659, 3607, 3620, 3605, 3664, 3629, 3591, 3639, 3696, 3412, 3539, 3531, 3578, 3577, 3472, 3448, 3515, 3518, 3571, 3554, 3510, 3512, 3522, 3508, 3542, 3542, 3537, 3537, 3580, 3546, 3581, 3562, 3534, 3546, 3561, 3551, 3584, 3564, 3489, 3557, 3567, 3567, 3593, 3580, 3623, 3612, 3607, 3573, 3562, 3651, 3624, 3637, 3605, 3619, 3603, 3580, 3576, 3595, 3612, 3578, 3621, 3595, 3623, 3580, 3567, 3603, 3575, 3626, 3617, 3595, 3631, 3616, 3612, 3561, 3569, 3585, 3573, 3579, 3589, 3582, 3559, 3585, 3622, 3577, 3585, 3605, 3594, 3557, 3624, 3598, 3590, 3579, 3585, 3566, 3655, 3457, 3443, 3462, 3480, 3438, 3550, 3473, 3506, 3521, 3531, 3494, 3548, 3537, 3556, 3559, 3476, 3429, 3514, 3538, 3451, 3351, 3599, 3476, 3427, 3395, 3454, 3464, 3466, 3423, 3465, 3414, 3431, 3441, 3388, 3454, 3430, 3449, 3437, 3415, 3417, 3472, 3493, 3424, 3497, 3469, 3463, 3486, 3466, 3438, 3432, 3476, 3469, 3519, 3537, 3477, 3524, 3528, 3488, 3485, 3518, 3520, 3498, 3517, 3502, 3510, 3490, 3508, 3507, 3508, 3551, 3562, 3508, 3392, 3342, 3615, 3550, 3383, 3518, 3470, 3571, 3531, 3524, 3568, 3552, 3527, 3574, 3553, 3525, 3507, 3522, 3541, 3539, 3558, 3582, 3526, 3537, 3585, 3586, 3597, 3613, 3605, 3593, 3619, 3438, 3665, 3691, 3396, 3675, 3562, 3677, 3533, 3628, 3565, 3345, 3380, 3407, 3398, 3423, 3416, 3431, 3442, 3465, 3492, 3463, 3512, 3471],
      "WindowCenter": [802.0, 801.0, 801.0, 801.0, 800.0, 800.0, 800.0, 801.0, 801.0, 801.0, 801.0, 801.0, 800.0, 801.0, 800.0, 800.0, 799.0, 800.0, 800.0, 800.0, 795.0, 797.0, 799.0, 798.0, 797.0, 798.0, 799.0, 801.0, 800.0, 800.0, 800.0, 800.0, 800.0, 799.0, 800.0, 800.0, 799.0, 798.0, 798.0, 798.0, 797.0, 798.0, 798.0, 799.0, 798.0, 799.0, 799.0, 799.0, 799.0, 799.0, 800.0, 800.0, 800.0, 800.0, 799.0, 799.0, 799.0, 798.0, 801.0, 800.0, 798.0, 797.0, 798.0, 798.0, 798.0, 798.0, 799.0, 800.0, 800.0, 800.0, 799.0, 799.0, 798.0, 798.0, 799.0, 799.0, 799.0, 799.0, 798.0, 798.0, 798.0, 798.0, 800.0, 800.0, 800.0, 800.0, 800.0, 800.0, 800.0, 800.0, 801.0, 800.0, 799.0, 800.0, 800.0, 800.0, 799.0, 800.0, 799.0, 799.0, 799.0, 799.0, 799.0, 799.0, 798.0, 798.0, 798.0, 799.0, 799.0, 799.0, 798.0, 798.0, 797.0, 797.0, 799.0, 802.0, 800.0, 799.0, 798.0, 798.0, 798.0, 798.0, 795.0, 798.0, 800.0, 797.0, 794.0, 797.0, 799.0, 798.0, 798.0, 799.0, 799.0, 799.0, 798.0, 799.0, 798.0, 799.0, 799.0, 798.0, 799.0, 799.0, 800.0, 800.0, 800.0, 799.0, 798.0, 798.0, 797.0, 797.0, 797.0, 797.0, 797.0, 798.0, 799.0, 799.0, 799.0, 797.0, 797.0, 797.0, 796.0, 796.0, 796.0, 798.0, 799.0, 799.0, 798.0, 798.0, 798.0, 798.0, 799.0, 798.0, 798.0, 800.0, 800.0, 800.0, 800.0, 799.0, 798.0, 798.0, 803.0, 802.0, 799.0, 799.0, 798.0, 799.0, 800.0, 798.0, 797.0, 798.0, 798.0, 798.0, 798.0, 799.0, 800.0, 801.0, 800.0, 799.0, 800.0, 801.0, 800.0, 801.0, 803.0, 804.0, 804.0, 803.0, 801.0, 801.0, 801.0, 794.0, 801.0, 802.0, 799.0, 804.0, 797.0, 805.0, 798.0, 804.0, 804.0, 802.0, 803.0, 801.0, 805.0, 805.0, 803.0, 802.0, 801.0, 801.0, 802.0, 801.0, 801.0, 801.0],
      "WindowWidth": [1733.0, 1730.0, 1728.0, 1728.0, 1726.0, 1725.0, 1727.0, 1729.0, 1730.0, 1728.0, 1728.0, 1728.0, 1727.0, 1728.0, 1727.0, 1727.0, 1724.0, 1726.0, 1727.0, 1728.0, 1715.0, 1720.0, 1725.0, 1723.0, 1721.0, 1720.0, 1724.0, 1729.0, 1727.0, 1728.0, 1728.0, 1726.0, 1727.0, 1726.0, 1726.0, 1726.0, 1724.0, 1722.0, 1721.0, 1721.0, 1719.0, 1722.0, 1723.0, 1723.0, 1722.0, 1723.0, 1724.0, 1724.0, 1724.0, 1726.0, 1727.0, 1727.0, 1728.0, 1727.0, 1723.0, 1724.0, 1723.0, 1723.0, 1729.0, 1726.0, 1721.0, 1719.0, 1721.0, 1722.0, 1722.0, 1722.0, 1724.0, 1725.0, 1726.0, 1726.0, 1723.0, 1723.0, 1722.0, 1722.0, 1724.0, 1725.0, 1724.0, 1723.0, 1722.0, 1723.0, 1722.0, 1723.0, 1727.0, 1728.0, 1728.0, 1726.0, 1727.0, 1727.0, 1728.0, 1728.0, 1728.0, 1727.0, 1725.0, 1727.0, 1726.0, 1726.0, 1725.0, 1726.0, 1724.0, 1725.0, 1724.0, 1725.0, 1724.0, 1724.0, 1722.0, 1723.0, 1722.0, 1724.0, 1725.0, 1725.0, 1723.0, 1722.0, 1719.0, 1719.0, 1724.0, 1731.0, 1726.0, 1723.0, 1721.0, 1720.0, 1722.0, 1720.0, 1714.0, 1720.0, 1727.0, 1718.0, 1711.0, 1720.0, 1723.0, 1721.0, 1720.0, 1722.0, 1724.0, 1723.0, 1721.0, 1723.0, 1722.0, 1724.0, 1724.0, 1722.0, 1723.0, 1723.0, 1725.0, 1726.0, 1725.0, 1723.0, 1721.0, 1720.0, 1718.0, 1718.0, 1718.0, 1717.0, 1719.0, 1721.0, 1724.0, 1725.0, 1722.0, 1719.0, 1719.0, 1717.0, 1716.0, 1716.0, 1717.0, 1721.0, 1723.0, 1722.0, 1721.0, 1720.0, 1720.0, 1721.0, 1723.0, 1721.0, 1722.0, 1725.0, 1725.0, 1726.0, 1725.0, 1723.0, 1719.0, 1720.0, 1732.0, 1729.0, 1721.0, 1723.0, 1720.0, 1724.0, 1725.0, 1721.0, 1719.0, 1720.0, 1720.0, 1721.0, 1722.0, 1723.0, 1726.0, 1728.0, 1725.0, 1723.0, 1725.0, 1727.0, 1727.0, 1728.0, 1732.0, 1735.0, 1736.0, 1732.0, 1729.0, 1729.0, 1728.0, 1711.0, 1730.0, 1732.0, 1723.0, 1736.0, 1720.0, 1740.0, 1720.0, 1737.0, 1737.0, 1731.0, 1733.0, 1730.0, 1738.0, 1738.0, 1733.0, 1730.0, 1729.0, 1729.0, 1731.0, 1728.0, 1728.0, 1729.0]
    },
    "slices": {}
  }
}