{
  "AcquisitionMatrixPE": 100,
  "AcquisitionNumber": 1,
  "AcquisitionTime": "12:57:35.850000",
  "BandwidthPerPixelPhaseEncode": 18.519,
  "BaseResolution": 100,
  "BodyPartExamined": "BRAIN",
  "ConsistencyInfo": "N4_VE11C_LATEST_20160120",
  "ConversionSoftware": "dcm2niix",
  "ConversionSoftwareVersion": "v1.0.20180622 GCC4.9.2",
  "DerivedVendorReportedEchoSpacing": 0.000539986,
  "DeviceSerialNumber": "166078",
  "DwellTime": 2.1e-06,
  "EchoTime": 0.034,
  "EchoTrainLength": 100,
  "EffectiveEchoSpacing": 0.000539986,
  "FlipAngle": 90,
  "ImageOrientationPatientDICOM": [1, 2.57636e-05, 0.000819241, -2.70618e-08, 0.999507, -0.0313996],
  "ImageType": [
    "ORIGINAL",
    "PRIMARY",
    "M",
    "ND",
    "MOSAIC"
],
  "InPlanePhaseEncodingDirectionDICOM": "COL",
  "InstitutionAddress": "Street_StreetNo_Bei_Jing_District_CN_ZIP",
  "InstitutionName": "BeiJing_Normal_University",
  "InstitutionalDepartmentName": "Department",
  "MRAcquisitionType": "2D",
  "MagneticFieldStrength": 3,
  "Manufacturer": "Siemens",
  "ManufacturersModelName": "Prisma",
  "Modality": "MR",
  "MultibandAccelerationFactor": 3,
  "PartialFourier": 1,
  "PatientPosition": "HFS",
  "PercentPhaseFOV": 100,
  "PhaseEncodingDirection": "j-",
  "PhaseEncodingSteps": 100,
  "PhaseResolution": 1,
  "PixelBandwidth": 2380,
  "ProcedureStepDescription": "BNU_P2018_64CH_Liu.Jia",
  "ProtocolName": "bold_100x100_s3_2x2x2_232",
  "PulseSequenceDetails": "%SiemensSeq%_ep2d_bold",
  "ReceiveCoilActiveElements": "HC1-7;NC1",
  "ReceiveCoilName": "HeadNeck_64",
  "ReconMatrixPE": 100,
  "RepetitionTime": 2,
  "SAR": 0.0710598,
  "ScanOptions": "FS",
  "ScanningSequence": "EP",
  "SequenceName": "_epfid2d1_100",
  "SequenceVariant": "SK",
  "SeriesDescription": "bold_100x100_s3_2x2x2_232",
  "SeriesNumber": 4,
  "ShimSetting": [-5465, -11508, -1249, 363, -15, -220, -156, 33],
  "SliceThickness": 2,
  "SliceTiming": [1.485, 0, 0.99, 0.0825, 1.0725, 0.165, 1.155, 0.2475, 1.2375, 0.33, 1.32, 0.4125, 1.4025, 0.5775, 1.5675, 0.66, 1.65, 0.7425, 1.7325, 0.825, 1.815, 0.9075, 1.8975, 0.495, 1.485, 0, 0.99, 0.0825, 1.0725, 0.165, 1.155, 0.2475, 1.2375, 0.33, 1.32, 0.4125, 1.4025, 0.5775, 1.5675, 0.66, 1.65, 0.7425, 1.7325, 0.825, 1.815, 0.9075, 1.8975, 0.495, 1.485, 0, 0.99, 0.0825, 1.0725, 0.165, 1.155, 0.2475, 1.2375, 0.33, 1.32, 0.4125, 1.4025, 0.5775, 1.5675, 0.66, 1.65, 0.7425, 1.7325, 0.825, 1.815, 0.9075, 1.8975, 0.495],
  "SoftwareVersions": "syngo_MR_E11",
  "SpacingBetweenSlices": 2,
  "StationName": "AWP166078",
  "TaskName": "motor",
  "TotalReadoutTime": 0.0534586,
  "TxRefAmp": 208.073,
  "dcmmeta_affine": [
    [-1.9999992847442627, -5.4123564297015037e-08, 0.0016392911784350872, 100.0612564086914],
    [-5.152725498192012e-05, 1.9990137815475464, -0.06279926747083664, -88.80186462402344],
    [0.0016384811606258154, 0.06279928982257843, 1.9990131855010986, -66.72102355957031],
    [0.0, 0.0, 0.0, 1.0]
],
  "dcmmeta_reorient_transform": [
    [0.0, -1.0, 0.0, 99.0],
    [1.0, 0.0, 0.0, 0.0],
    [0.0, 0.0, 1.0, 0.0],
    [0.0, 0.0, 0.0, 1.0]
],
  "dcmmeta_shape": [100, 100, 72, 232],
  "dcmmeta_slice_dim": 2,
  "dcmmeta_version": 0.6,
  "global": {
    "const": {
      "AcquisitionMatrix": [100, 0, 0, 100],
      "AngioFlag": "N",
      "BitsAllocated": 16,
      "BitsStored": 12,
      "BodyPartExamined": "BRAIN",
      "Columns": 900,
      "EchoNumbers": 1,
      "EchoTime": 34.0,
      "EchoTrainLength": 100,
      "FlipAngle": 90.0,
      "HighBit": 11,
      "ImageOrientationPatient": [0.99999966409052, 2.57636279e-05, 0.00081924055902, -2.7061782e-08, 0.99950690959297, -0.0313996445187],
      "ImagePositionPatient": [-900.06096317649, -908.72664463017, -36.03956804637],
      "ImageType": [
        "ORIGINAL",
        "PRIMARY",
        "M",
        "ND",
        "MOSAIC"
],
      "ImagedNucleus": "1H",
      "ImagingFrequency": 123.257818,
      "InPlanePhaseEncodingDirection": "COL",
      "MRAcquisitionType": "2D",
      "MagneticFieldStrength": 3.0,
      "Manufacturer": "SIEMENS",
      "ManufacturerModelName": "Prisma",
      "Modality": "MR",
      "NumberOfAverages": 1.0,
      "NumberOfPhaseEncodingSteps": 100,
      "PercentPhaseFieldOfView": 100.0,
      "PercentSampling": 100.0,
      "PerformedProcedureStepStartTime": "124605.020000",
      "PhotometricInterpretation": "MONOCHROME2",
      "PixelBandwidth": 2380.0,
      "PixelRepresentation": 0,
      "PixelSpacing": [2.0, 2.0],
      "ProtocolName": "bold_100x100_s3_2x2x2_232",
      "RepetitionTime": 2000.0,
      "Rows": 900,
      "SAR": 0.07105980743656,
      "SamplesPerPixel": 1,
      "ScanOptions": "FS",
      "ScanningSequence": "EP",
      "SequenceName": "*epfid2d1_100",
      "SequenceVariant": "SK",
      "SeriesDescription": "bold_100x100_s3_2x2x2_232",
      "SeriesNumber": 4,
      "SeriesTime": "125738.686000",
      "SliceLocation": -63.817738202751,
      "SliceThickness": 2.0,
      "SmallestImagePixelValue": 0,
      "SoftwareVersions": "syngo MR E11",
      "SpacingBetweenSlices": 2.0000000276431,
      "SpecificCharacterSet": "ISO_IR 100",
      "StudyID": "1",
      "StudyTime": "124604.944000",
      "TransmitCoilName": "Body",
      "VariableFlipAngleFlag": "N",
      "WindowCenterWidthExplanation": "Algo1",
      "dBdt": 0.0},
    "slices": {}
  },
  "time": {
    "samples": {
      "AcquisitionNumber": [1, 2, 3, 4, 5, 6, 7, 8, 9, 10, 11, 12, 13, 14, 15, 16, 17, 18, 19, 20, 21, 22, 23, 24, 25, 26, 27, 28, 29, 30, 31, 32, 33, 34, 35, 36, 37, 38, 39, 40, 41, 42, 43, 44, 45, 46, 47, 48, 49, 50, 51, 52, 53, 54, 55, 56, 57, 58, 59, 60, 61, 62, 63, 64, 65, 66, 67, 68, 69, 70, 71, 72, 73, 74, 75, 76, 77, 78, 79, 80, 81, 82, 83, 84, 85, 86, 87, 88, 89, 90, 91, 92, 93, 94, 95, 96, 97, 98, 99, 100, 101, 102, 103, 104, 105, 106, 107, 108, 109, 110, 111, 112, 113, 114, 115, 116, 117, 118, 119, 120, 121, 122, 123, 124, 125, 126, 127, 128, 129, 130, 131, 132, 133, 134, 135, 136, 137, 138, 139, 140, 141, 142, 143, 144, 145, 146, 147, 148, 149, 150, 151, 152, 153, 154, 155, 156, 157, 158, 159, 160, 161, 162, 163, 164, 165, 166, 167, 168, 169, 170, 171, 172, 173, 174, 175, 176, 177, 178, 179, 180, 181, 182, 183, 184, 185, 186, 187, 188, 189, 190, 191, 192, 193, 194, 195, 196, 197, 198, 199, 200, 201, 202, 203, 204, 205, 206, 207, 208, 209, 210, 211, 212, 213, 214, 215, 216, 217, 218, 219, 220, 221, 222, 223, 224, 225, 226, 227, 228, 229, 230, 231, 232],
      "AcquisitionTime": ["125735.850000", "125737.850000", "125739.850000", "125741.850000", "125743.850000", "125745.850000", "125747.850000", "125749.850000", "125751.850000", "125753.850000", "125755.850000", "125757.850000", "125759.850000", "125801.850000", "125803.850000", "125805.850000", "125807.850000", "125809.850000", "125811.850000", "125813.850000", "125815.850000", "125817.850000", "125819.850000", "125821.850000", "125823.850000", "125825.850000", "125827.850000", "125829.850000", "125831.850000", "125833.850000", "125835.850000", "125837.850000", "125839.850000", "125841.850000", "125843.850000", "125845.850000", "125847.850000", "125849.850000", "125851.850000", "125853.850000", "125855.850000", "125857.850000", "125859.850000", "125901.850000", "125903.850000", "125905.850000", "125907.850000", "125909.850000", "125911.850000", "125913.850000", "125915.850000", "125917.850000", "125919.850000", "125921.850000", "125923.850000", "125925.850000", "125927.850000", "125929.850000", "125931.850000", "125933.850000", "125935.850000", "125937.850000", "125939.850000", "125941.850000", "125943.850000", "125945.850000", "125947.850000", "125949.850000", "125951.850000", "125953.850000", "125955.850000", "125957.850000", "125959.850000", "130001.850000", "130003.850000", "130005.850000", "130007.850000", "130009.850000", "130011.850000", "130013.850000", "130015.850000", "130017.850000", "130019.850000", "130021.850000", "130023.850000", "130025.850000", "130027.850000", "130029.850000", "130031.850000", "130033.850000", "130035.850000", "130037.850000", "130039.850000", "130041.850000", "130043.850000", "130045.850000", "130047.850000", "130049.850000", "130051.850000", "130053.850000", "130055.850000", "130057.850000", "130059.850000", "130101.850000", "130103.850000", "130105.850000", "130107.850000", "130109.850000", "130111.850000", "130113.850000", "130115.850000", "130117.850000", "130119.850000", "130121.850000", "130123.850000", "130125.850000", "130127.850000", "130129.850000", "130131.850000", "130133.850000", "130135.850000", "130137.850000", "130139.850000", "130141.850000", "130143.850000", "130145.850000", "130147.850000", "130149.850000", "130151.850000", "130153.850000", "130155.850000", "130157.850000", "130159.850000", "130201.850000", "130203.850000", "130205.850000", "130207.850000", "130209.850000", "130211.850000", "130213.850000", "130215.850000", "130217.850000", "130219.850000", "130221.850000", "130223.850000", "130225.850000", "130227.850000", "130229.850000", "130231.850000", "130233.850000", "130235.850000", "130237.850000", "130239.850000", "130241.850000", "130243.850000", "130245.850000", "130247.850000", "130249.850000", "130251.850000", "130253.850000", "130255.850000", "130257.850000", "130259.850000", "130301.850000", "130303.850000", "130305.850000", "130307.850000", "130309.850000", "130311.850000", "130313.850000", "130315.850000", "130317.850000", "130319.850000", "130321.850000", "130323.850000", "130325.850000", "130327.850000", "130329.850000", "130331.850000", "130333.850000", "130335.850000", "130337.850000", "130339.850000", "130341.850000", "130343.850000", "130345.850000", "130347.850000", "130349.850000", "130351.850000", "130353.850000", "130355.850000", "130357.850000", "130359.850000", "130401.850000", "130403.850000", "130405.850000", "130407.850000", "130409.850000", "130411.850000", "130413.850000", "130415.850000", "130417.850000", "130419.850000", "130421.850000", "130423.850000", "130425.850000", "130427.850000", "130429.850000", "130431.850000", "130433.850000", "130435.850000", "130437.850000", "130439.850000", "130441.850000", "130443.850000", "130445.850000", "130447.850000", "130449.850000", "130451.850000", "130453.850000", "130455.850000", "130457.850000", "130459.850000", "130501.850000", "130503.850000", "130505.850000", "130507.850000", "130509.850000", "130511.850000", "130513.850000", "130515.850000", "130517.850000"],
      "ContentTime": ["125738.690000", "125740.174000", "125742.174000", "125744.173000", "125746.173000", "125748.174000", "125750.175000", "125752.174000", "125754.174000", "125756.174000", "125758.174000", "125800.173000", "125802.173000", "125804.173000", "125806.174000", "125808.174000", "125810.174000", "125812.174000", "125814.174000", "125816.174000", "125818.174000", "125820.173000", "125822.173000", "125824.174000", "125826.174000", "125828.175000", "125830.174000", "125832.174000", "125834.174000", "125836.173000", "125838.173000", "125840.173000", "125842.174000", "125844.174000", "125846.174000", "125848.174000", "125850.174000", "125852.174000", "125854.173000", "125856.173000", "125858.173000", "125900.174000", "125902.174000", "125904.174000", "125906.174000", "125908.174000", "125910.173000", "125912.173000", "125914.173000", "125916.174000", "125918.174000", "125920.174000", "125922.174000", "125924.174000", "125926.174000", "125928.173000", "125930.174000", "125932.173000", "125934.174000", "125936.174000", "125938.175000", "125940.175000", "125942.174000", "125944.174000", "125946.173000", "125948.174000", "125950.173000", "125952.174000", "125954.174000", "125956.174000", "125958.174000", "130000.175000", "130002.174000", "130004.173000", "130006.173000", "130008.173000", "130010.174000", "130012.174000", "130014.174000", "130016.175000", "130018.174000", "130020.173000", "130022.173000", "130024.173000", "130026.174000", "130028.174000", "130030.175000", "130032.174000", "130034.174000", "130036.174000", "130038.173000", "130040.174000", "130042.173000", "130044.174000", "130046.174000", "130048.174000", "130050.174000", "130052.174000", "130054.174000", "130056.173000", "130058.173000", "130100.173000", "130102.174000", "130104.175000", "130106.174000", "130108.174000", "130110.174000", "130112.174000", "130114.174000", "130116.173000", "130118.173000", "130120.174000", "130122.174000", "130124.175000", "130126.174000", "130128.174000", "130130.174000", "130132.173000", "130134.174000", "130136.174000", "130138.174000", "130140.174000", "130142.174000", "130144.174000", "130146.174000", "130148.173000", "130150.173000", "130152.173000", "130154.174000", "130156.175000", "130158.174000", "130200.174000", "130202.174000", "130204.174000", "130206.174000", "130208.174000", "130210.173000", "130212.174000", "130214.174000", "130216.175000", "130218.174000", "130220.174000", "130222.174000", "130224.173000", "130226.173000", "130228.174000", "130230.174000", "130232.175000", "130234.174000", "130236.174000", "130238.174000", "130240.173000", "130242.174000", "130244.173000", "130246.174000", "130248.174000", "130250.174000", "130252.174000", "130254.174000", "130256.175000", "130258.174000", "130300.173000", "130302.173000", "130304.174000", "130306.175000", "130308.184000", "130310.175000", "130312.174000", "130314.174000", "130316.173000", "130318.173000", "130320.174000", "130322.174000", "130324.174000", "130326.175000", "130328.174000", "130330.174000", "130332.174000", "130334.173000", "130336.173000", "130338.173000", "130340.174000", "130342.175000", "130344.174000", "130346.174000", "130348.174000", "130350.173000", "130352.173000", "130354.173000", "130356.174000", "130358.175000", "130400.174000", "130402.174000", "130404.174000", "130406.174000", "130408.173000", "130410.173000", "130412.173000", "130414.174000", "130416.174000", "130418.174000", "130420.174000", "130422.174000", "130424.174000", "130426.174000", "130428.173000", "130430.174000", "130432.175000", "130434.175000", "130436.175000", "130438.175000", "130440.174000", "130442.174000", "130444.173000", "130446.173000", "130448.174000", "130450.175000", "130452.175000", "130454.174000", "130456.174000", "130458.174000", "130500.173000", "130502.173000", "130504.173000", "130506.175000", "130508.174000", "130510.174000", "130512.174000", "130514.174000", "130516.175000", "130518.173000", "130519.967000"],
      "InstanceCreationTime": ["125738.690000", "125740.174000", "125742.174000", "125744.173000", "125746.173000", "125748.174000", "125750.175000", "125752.174000", "125754.174000", "125756.174000", "125758.174000", "125800.173000", "125802.173000", "125804.173000", "125806.174000", "125808.174000", "125810.174000", "125812.174000", "125814.174000", "125816.174000", "125818.174000", "125820.173000", "125822.173000", "125824.174000", "125826.174000", "125828.175000", "125830.174000", "125832.174000", "125834.174000", "125836.173000", "125838.173000", "125840.173000", "125842.174000", "125844.174000", "125846.174000", "125848.174000", "125850.174000", "125852.174000", "125854.173000", "125856.173000", "125858.173000", "125900.174000", "125902.174000", "125904.174000", "125906.174000", "125908.174000", "125910.173000", "125912.173000", "125914.173000", "125916.174000", "125918.174000", "125920.174000", "125922.174000", "125924.174000", "125926.174000", "125928.173000", "125930.174000", "125932.173000", "125934.174000", "125936.174000", "125938.175000", "125940.175000", "125942.174000", "125944.174000", "125946.173000", "125948.174000", "125950.173000", "125952.174000", "125954.174000", "125956.174000", "125958.174000", "130000.175000", "130002.174000", "130004.173000", "130006.173000", "130008.173000", "130010.174000", "130012.174000", "130014.174000", "130016.175000", "130018.174000", "130020.173000", "130022.173000", "130024.173000", "130026.174000", "130028.174000", "130030.175000", "130032.174000", "130034.174000", "130036.174000", "130038.173000", "130040.174000", "130042.173000", "130044.174000", "130046.174000", "130048.174000", "130050.174000", "130052.174000", "130054.174000", "130056.173000", "130058.173000", "130100.173000", "130102.174000", "130104.175000", "130106.174000", "130108.174000", "130110.174000", "130112.174000", "130114.174000", "130116.173000", "130118.173000", "130120.174000", "130122.174000", "130124.175000", "130126.174000", "130128.174000", "130130.174000", "130132.173000", "130134.174000", "130136.174000", "130138.174000", "130140.174000", "130142.174000", "130144.174000", "130146.174000", "130148.173000", "130150.173000", "130152.173000", "130154.174000", "130156.175000", "130158.174000", "130200.174000", "130202.174000", "130204.174000", "130206.174000", "130208.174000", "130210.173000", "130212.174000", "130214.174000", "130216.175000", "130218.174000", "130220.174000", "130222.174000", "130224.173000", "130226.173000", "130228.174000", "130230.174000", "130232.175000", "130234.174000", "130236.174000", "130238.174000", "130240.173000", "130242.174000", "130244.173000", "130246.174000", "130248.174000", "130250.174000", "130252.174000", "130254.174000", "130256.175000", "130258.174000", "130300.173000", "130302.173000", "130304.174000", "130306.175000", "130308.184000", "130310.175000", "130312.174000", "130314.174000", "130316.173000", "130318.173000", "130320.174000", "130322.174000", "130324.174000", "130326.175000", "130328.174000", "130330.174000", "130332.174000", "130334.173000", "130336.173000", "130338.173000", "130340.174000", "130342.175000", "130344.174000", "130346.174000", "130348.174000", "130350.173000", "130352.173000", "130354.173000", "130356.174000", "130358.175000", "130400.174000", "130402.174000", "130404.174000", "130406.174000", "130408.173000", "130410.173000", "130412.173000", "130414.174000", "130416.174000", "130418.174000", "130420.174000", "130422.174000", "130424.174000", "130426.174000", "130428.173000", "130430.174000", "130432.175000", "130434.175000", "130436.175000", "130438.175000", "130440.174000", "130442.174000", "130444.173000", "130446.173000", "130448.174000", "130450.175000", "130452.175000", "130454.174000", "130456.174000", "130458.174000", "130500.173000", "130502.173000", "130504.173000", "130506.175000", "130508.174000", "130510.174000", "130512.174000", "130514.174000", "130516.175000", "130518.173000", "130519.967000"],
      "InstanceNumber": [1, 2, 3, 4, 5, 6, 7, 8, 9, 10, 11, 12, 13, 14, 15, 16, 17, 18, 19, 20, 21, 22, 23, 24, 25, 26, 27, 28, 29, 30, 31, 32, 33, 34, 35, 36, 37, 38, 39, 40, 41, 42, 43, 44, 45, 46, 47, 48, 49, 50, 51, 52, 53, 54, 55, 56, 57, 58, 59, 60, 61, 62, 63, 64, 65, 66, 67, 68, 69, 70, 71, 72, 73, 74, 75, 76, 77, 78, 79, 80, 81, 82, 83, 84, 85, 86, 87, 88, 89, 90, 91, 92, 93, 94, 95, 96, 97, 98, 99, 100, 101, 102, 103, 104, 105, 106, 107, 108, 109, 110, 111, 112, 113, 114, 115, 116, 117, 118, 119, 120, 121, 122, 123, 124, 125, 126, 127, 128, 129, 130, 131, 132, 133, 134, 135, 136, 137, 138, 139, 140, 141, 142, 143, 144, 145, 146, 147, 148, 149, 150, 151, 152, 153, 154, 155, 156, 157, 158, 159, 160, 161, 162, 163, 164, 165, 166, 167, 168, 169, 170, 171, 172, 173, 174, 175, 176, 177, 178, 179, 180, 181, 182, 183, 184, 185, 186, 187, 188, 189, 190, 191, 192, 193, 194, 195, 196, 197, 198, 199, 200, 201, 202, 203, 204, 205, 206, 207, 208, 209, 210, 211, 212, 213, 214, 215, 216, 217, 218, 219, 220, 221, 222, 223, 224, 225, 226, 227, 228, 229, 230, 231, 232],
      "LargestImagePixelValue": [3116, 3102, 3038, 2955, 2933, 2936, 2966, 2965, 2982, 2861, 3013, 2867, 2982, 2918, 3038, 2972, 3052, 3033, 3065, 3049, 3038, 2976, 3081, 3075, 3081, 3099, 3044, 3085, 3177, 3116, 3128, 3145, 3188, 3047, 3091, 3147, 3141, 3179, 3005, 3049, 3148, 3129, 3122, 3106, 3079, 3093, 3124, 3039, 3144, 3135, 3070, 3097, 3146, 3088, 3073, 3098, 3082, 3013, 3120, 3065, 3006, 3072, 3038, 3089, 3134, 3059, 3023, 3070, 3068, 3059, 2990, 3069, 3008, 3078, 3052, 3055, 3009, 3081, 2984, 3023, 3018, 3008, 3037, 3072, 3016, 3023, 2994, 2992, 3022, 3005, 3026, 2990, 3003, 2999, 3027, 2891, 3116, 3074, 3069, 3114, 3036, 3020, 3066, 3081, 3128, 3065, 3092, 3044, 3098, 3095, 3094, 3071, 3089, 3098, 3007, 3057, 3035, 3084, 3055, 3005, 2995, 3045, 2986, 3036, 3064, 3007, 2987, 3011, 3003, 3020, 3060, 3003, 3020, 2987, 2977, 3036, 2993, 2986, 2977, 2963, 3012, 2907, 2984, 2899, 3102, 3061, 3074, 3043, 3027, 3019, 3090, 3036, 3017, 3057, 3083, 3100, 2981, 3048, 3041, 3076, 3013, 3008, 3049, 3005, 3043, 3007, 3032, 3015, 3031, 3016, 3040, 3020, 3034, 3032, 3069, 2991, 2991, 3021, 3025, 3018, 3033, 3097, 3072, 3034, 3028, 2972, 3010, 2957, 3071, 3012, 2998, 2973, 2983, 3014, 3011, 3005, 3009, 2943, 3014, 3044, 3100, 3038, 2988, 3027, 2958, 2946, 2984, 2968, 2951, 2917, 2964, 2978, 2934, 2946, 2942, 2955, 2929, 2908, 2900, 2908, 2997, 3051, 2860, 3006, 2957, 2984, 2978, 2975, 2986, 2946, 3008, 2997],
      "WindowCenter": [759.0, 757.0, 757.0, 758.0, 757.0, 757.0, 758.0, 758.0, 758.0, 757.0, 759.0, 755.0, 757.0, 758.0, 759.0, 758.0, 759.0, 759.0, 759.0, 759.0, 759.0, 759.0, 760.0, 760.0, 760.0, 760.0, 757.0, 761.0, 761.0, 761.0, 760.0, 760.0, 760.0, 759.0, 759.0, 760.0, 759.0, 760.0, 759.0, 759.0, 760.0, 760.0, 760.0, 760.0, 759.0, 759.0, 759.0, 759.0, 760.0, 760.0, 760.0, 760.0, 759.0, 759.0, 759.0, 759.0, 759.0, 759.0, 761.0, 761.0, 761.0, 760.0, 759.0, 759.0, 759.0, 758.0, 759.0, 760.0, 759.0, 759.0, 759.0, 760.0, 759.0, 760.0, 760.0, 760.0, 759.0, 759.0, 758.0, 759.0, 758.0, 758.0, 760.0, 762.0, 760.0, 759.0, 759.0, 759.0, 759.0, 758.0, 759.0, 760.0, 758.0, 758.0, 758.0, 758.0, 759.0, 759.0, 759.0, 760.0, 760.0, 759.0, 760.0, 760.0, 760.0, 760.0, 761.0, 760.0, 760.0, 760.0, 760.0, 761.0, 761.0, 761.0, 761.0, 762.0, 761.0, 761.0, 760.0, 758.0, 758.0, 759.0, 759.0, 759.0, 759.0, 758.0, 758.0, 759.0, 759.0, 760.0, 761.0, 760.0, 759.0, 758.0, 759.0, 760.0, 760.0, 760.0, 761.0, 760.0, 761.0, 760.0, 761.0, 760.0, 760.0, 759.0, 760.0, 761.0, 760.0, 760.0, 761.0, 760.0, 760.0, 760.0, 760.0, 761.0, 760.0, 759.0, 758.0, 758.0, 758.0, 757.0, 759.0, 759.0, 759.0, 759.0, 759.0, 759.0, 759.0, 761.0, 763.0, 763.0, 762.0, 762.0, 763.0, 762.0, 760.0, 761.0, 760.0, 759.0, 759.0, 760.0, 759.0, 759.0, 759.0, 760.0, 760.0, 760.0, 761.0, 760.0, 760.0, 760.0, 759.0, 760.0, 761.0, 761.0, 761.0, 760.0, 762.0, 762.0, 762.0, 762.0, 761.0, 762.0, 762.0, 761.0, 761.0, 759.0, 760.0, 759.0, 760.0, 760.0, 760.0, 760.0, 759.0, 759.0, 758.0, 756.0, 754.0, 758.0, 758.0, 761.0, 758.0, 761.0, 760.0, 760.0, 761.0, 761.0, 761.0, 759.0, 760.0, 760.0],
      "WindowWidth": [1660.0, 1656.0, 1655.0, 1656.0, 1655.0, 1655.0, 1658.0, 1658.0, 1659.0, 1657.0, 1660.0, 1651.0, 1656.0, 1657.0, 1661.0, 1659.0, 1661.0, 1660.0, 1662.0, 1661.0, 1661.0, 1660.0, 1663.0, 1663.0, 1663.0, 1663.0, 1657.0, 1668.0, 1668.0, 1667.0, 1665.0, 1664.0, 1664.0, 1661.0, 1662.0, 1663.0, 1662.0, 1664.0, 1660.0, 1662.0, 1665.0, 1665.0, 1665.0, 1664.0, 1662.0, 1662.0, 1663.0, 1661.0, 1663.0, 1665.0, 1665.0, 1663.0, 1662.0, 1661.0, 1661.0, 1662.0, 1662.0, 1661.0, 1667.0, 1667.0, 1668.0, 1665.0, 1662.0, 1661.0, 1660.0, 1658.0, 1661.0, 1663.0, 1661.0, 1661.0, 1661.0, 1663.0, 1662.0, 1664.0, 1664.0, 1665.0, 1661.0, 1663.0, 1660.0, 1662.0, 1659.0, 1659.0, 1665.0, 1670.0, 1665.0, 1661.0, 1659.0, 1660.0, 1661.0, 1659.0, 1662.0, 1663.0, 1658.0, 1657.0, 1657.0, 1659.0, 1663.0, 1661.0, 1661.0, 1664.0, 1663.0, 1661.0, 1664.0, 1664.0, 1664.0, 1663.0, 1666.0, 1665.0, 1665.0, 1664.0, 1665.0, 1666.0, 1667.0, 1667.0, 1666.0, 1669.0, 1667.0, 1665.0, 1663.0, 1658.0, 1658.0, 1660.0, 1659.0, 1660.0, 1660.0, 1659.0, 1658.0, 1662.0, 1662.0, 1664.0, 1665.0, 1661.0, 1661.0, 1658.0, 1659.0, 1662.0, 1662.0, 1664.0, 1665.0, 1664.0, 1666.0, 1664.0, 1667.0, 1664.0, 1665.0, 1662.0, 1664.0, 1665.0, 1664.0, 1665.0, 1666.0, 1664.0, 1663.0, 1665.0, 1665.0, 1666.0, 1663.0, 1662.0, 1658.0, 1657.0, 1657.0, 1656.0, 1660.0, 1660.0, 1661.0, 1660.0, 1660.0, 1660.0, 1661.0, 1666.0, 1673.0, 1672.0, 1670.0, 1670.0, 1671.0, 1669.0, 1664.0, 1664.0, 1663.0, 1660.0, 1660.0, 1662.0, 1660.0, 1660.0, 1661.0, 1662.0, 1664.0, 1662.0, 1665.0, 1665.0, 1663.0, 1663.0, 1662.0, 1664.0, 1666.0, 1666.0, 1667.0, 1664.0, 1668.0, 1668.0, 1670.0, 1667.0, 1667.0, 1668.0, 1668.0, 1666.0, 1666.0, 1662.0, 1662.0, 1661.0, 1665.0, 1663.0, 1663.0, 1663.0, 1661.0, 1662.0, 1658.0, 1654.0, 1649.0, 1659.0, 1658.0, 1667.0, 1658.0, 1666.0, 1663.0, 1665.0, 1667.0, 1667.0, 1665.0, 1661.0, 1661.0, 1663.0]
    },
    "slices": {}
  }
}