{
  "AcquisitionMatrixPE": 100,
  "AcquisitionNumber": 1,
  "AcquisitionTime": "12:49:4.157500",
  "BandwidthPerPixelPhaseEncode": 18.519,
  "BaseResolution": 100,
  "BodyPartExamined": "BRAIN",
  "ConsistencyInfo": "N4_VE11C_LATEST_20160120",
  "ConversionSoftware": "dcm2niix",
  "ConversionSoftwareVersion": "v1.0.20180622 GCC4.9.2",
  "DerivedVendorReportedEchoSpacing": 0.000539986,
  "DeviceSerialNumber": "166078",
  "DwellTime": 2.1e-06,
  "EchoTime": 0.034,
  "EchoTrainLength": 100,
  "EffectiveEchoSpacing": 0.000539986,
  "FlipAngle": 90,
  "ImageOrientationPatientDICOM": [1, 2.57636e-05, 0.000819241, -2.70618e-08, 0.999507, -0.0313996],
  "ImageType": [
    "ORIGINAL",
    "PRIMARY",
    "M",
    "ND",
    "MOSAIC"
],
  "InPlanePhaseEncodingDirectionDICOM": "COL",
  "InstitutionAddress": "Street_StreetNo_Bei_Jing_District_CN_ZIP",
  "InstitutionName": "BeiJing_Normal_University",
  "InstitutionalDepartmentName": "Department",
  "MRAcquisitionType": "2D",
  "MagneticFieldStrength": 3,
  "Manufacturer": "Siemens",
  "ManufacturersModelName": "Prisma",
  "Modality": "MR",
  "MultibandAccelerationFactor": 3,
  "PartialFourier": 1,
  "PatientPosition": "HFS",
  "PercentPhaseFOV": 100,
  "PhaseEncodingDirection": "j-",
  "PhaseEncodingSteps": 100,
  "PhaseResolution": 1,
  "PixelBandwidth": 2380,
  "ProcedureStepDescription": "BNU_P2018_64CH_Liu.Jia",
  "ProtocolName": "bold_100x100_s3_2x2x2_232",
  "PulseSequenceDetails": "%SiemensSeq%_ep2d_bold",
  "ReceiveCoilActiveElements": "HC1-7;NC1",
  "ReceiveCoilName": "HeadNeck_64",
  "ReconMatrixPE": 100,
  "RepetitionTime": 2,
  "SAR": 0.0710598,
  "ScanOptions": "FS",
  "ScanningSequence": "EP",
  "SequenceName": "_epfid2d1_100",
  "SequenceVariant": "SK",
  "SeriesDescription": "bold_100x100_s3_2x2x2_232",
  "SeriesNumber": 3,
  "ShimSetting": [-5465, -11508, -1249, 363, -15, -220, -156, 33],
  "SliceThickness": 2,
  "SliceTiming": [1.485, 0, 0.99, 0.0825, 1.0725, 0.165, 1.155, 0.2475, 1.2375, 0.33, 1.32, 0.4125, 1.4025, 0.5775, 1.5675, 0.66, 1.65, 0.7425, 1.7325, 0.825, 1.815, 0.9075, 1.8975, 0.495, 1.485, 0, 0.99, 0.0825, 1.0725, 0.165, 1.155, 0.2475, 1.2375, 0.33, 1.32, 0.4125, 1.4025, 0.5775, 1.5675, 0.66, 1.65, 0.7425, 1.7325, 0.825, 1.815, 0.9075, 1.8975, 0.495, 1.485, 0, 0.99, 0.0825, 1.0725, 0.165, 1.155, 0.2475, 1.2375, 0.33, 1.32, 0.4125, 1.4025, 0.5775, 1.5675, 0.66, 1.65, 0.7425, 1.7325, 0.825, 1.815, 0.9075, 1.8975, 0.495],
  "SoftwareVersions": "syngo_MR_E11",
  "SpacingBetweenSlices": 2,
  "StationName": "AWP166078",
  "TaskName": "motor",
  "TotalReadoutTime": 0.0534586,
  "TxRefAmp": 208.073,
  "dcmmeta_affine": [
    [-1.9999992847442627, -5.4123564297015037e-08, 0.0016392911784350872, 100.0612564086914],
    [-5.152725498192012e-05, 1.9990137815475464, -0.06279926747083664, -88.80186462402344],
    [0.0016384811606258154, 0.06279928982257843, 1.9990131855010986, -66.72102355957031],
    [0.0, 0.0, 0.0, 1.0]
],
  "dcmmeta_reorient_transform": [
    [0.0, -1.0, 0.0, 99.0],
    [1.0, 0.0, 0.0, 0.0],
    [0.0, 0.0, 1.0, 0.0],
    [0.0, 0.0, 0.0, 1.0]
],
  "dcmmeta_shape": [100, 100, 72, 232],
  "dcmmeta_slice_dim": 2,
  "dcmmeta_version": 0.6,
  "global": {
    "const": {
      "AcquisitionMatrix": [100, 0, 0, 100],
      "AngioFlag": "N",
      "BitsAllocated": 16,
      "BitsStored": 12,
      "BodyPartExamined": "BRAIN",
      "Columns": 900,
      "EchoNumbers": 1,
      "EchoTime": 34.0,
      "EchoTrainLength": 100,
      "FlipAngle": 90.0,
      "HighBit": 11,
      "ImageOrientationPatient": [0.99999966409052, 2.57636279e-05, 0.00081924055902, -2.7061782e-08, 0.99950690959297, -0.0313996445187],
      "ImagePositionPatient": [-900.06096317649, -908.72664463017, -36.03956804637],
      "ImageType": [
        "ORIGINAL",
        "PRIMARY",
        "M",
        "ND",
        "MOSAIC"
],
      "ImagedNucleus": "1H",
      "ImagingFrequency": 123.25781,
      "InPlanePhaseEncodingDirection": "COL",
      "MRAcquisitionType": "2D",
      "MagneticFieldStrength": 3.0,
      "Manufacturer": "SIEMENS",
      "ManufacturerModelName": "Prisma",
      "Modality": "MR",
      "NumberOfAverages": 1.0,
      "NumberOfPhaseEncodingSteps": 100,
      "PercentPhaseFieldOfView": 100.0,
      "PercentSampling": 100.0,
      "PerformedProcedureStepStartTime": "124605.020000",
      "PhotometricInterpretation": "MONOCHROME2",
      "PixelBandwidth": 2380.0,
      "PixelRepresentation": 0,
      "PixelSpacing": [2.0, 2.0],
      "ProtocolName": "bold_100x100_s3_2x2x2_232",
      "RepetitionTime": 2000.0,
      "Rows": 900,
      "SAR": 0.07105980743656,
      "SamplesPerPixel": 1,
      "ScanOptions": "FS",
      "ScanningSequence": "EP",
      "SequenceName": "*epfid2d1_100",
      "SequenceVariant": "SK",
      "SeriesDescription": "bold_100x100_s3_2x2x2_232",
      "SeriesNumber": 3,
      "SeriesTime": "124906.932000",
      "SliceLocation": -63.817738202751,
      "SliceThickness": 2.0,
      "SmallestImagePixelValue": 0,
      "SoftwareVersions": "syngo MR E11",
      "SpacingBetweenSlices": 2.0000000276431,
      "SpecificCharacterSet": "ISO_IR 100",
      "StudyID": "1",
      "StudyTime": "124604.944000",
      "TransmitCoilName": "Body",
      "VariableFlipAngleFlag": "N",
      "WindowCenterWidthExplanation": "Algo1",
      "dBdt": 0.0},
    "slices": {}
  },
  "time": {
    "samples": {
      "AcquisitionNumber": [1, 2, 3, 4, 5, 6, 7, 8, 9, 10, 11, 12, 13, 14, 15, 16, 17, 18, 19, 20, 21, 22, 23, 24, 25, 26, 27, 28, 29, 30, 31, 32, 33, 34, 35, 36, 37, 38, 39, 40, 41, 42, 43, 44, 45, 46, 47, 48, 49, 50, 51, 52, 53, 54, 55, 56, 57, 58, 59, 60, 61, 62, 63, 64, 65, 66, 67, 68, 69, 70, 71, 72, 73, 74, 75, 76, 77, 78, 79, 80, 81, 82, 83, 84, 85, 86, 87, 88, 89, 90, 91, 92, 93, 94, 95, 96, 97, 98, 99, 100, 101, 102, 103, 104, 105, 106, 107, 108, 109, 110, 111, 112, 113, 114, 115, 116, 117, 118, 119, 120, 121, 122, 123, 124, 125, 126, 127, 128, 129, 130, 131, 132, 133, 134, 135, 136, 137, 138, 139, 140, 141, 142, 143, 144, 145, 146, 147, 148, 149, 150, 151, 152, 153, 154, 155, 156, 157, 158, 159, 160, 161, 162, 163, 164, 165, 166, 167, 168, 169, 170, 171, 172, 173, 174, 175, 176, 177, 178, 179, 180, 181, 182, 183, 184, 185, 186, 187, 188, 189, 190, 191, 192, 193, 194, 195, 196, 197, 198, 199, 200, 201, 202, 203, 204, 205, 206, 207, 208, 209, 210, 211, 212, 213, 214, 215, 216, 217, 218, 219, 220, 221, 222, 223, 224, 225, 226, 227, 228, 229, 230, 231, 232],
      "AcquisitionTime": ["124904.157500", "124906.157500", "124908.157500", "124910.157500", "124912.157500", "124914.157500", "124916.157500", "124918.157500", "124920.157500", "124922.157500", "124924.157500", "124926.157500", "124928.157500", "124930.157500", "124932.157500", "124934.157500", "124936.157500", "124938.157500", "124940.157500", "124942.157500", "124944.157500", "124946.157500", "124948.157500", "124950.157500", "124952.157500", "124954.157500", "124956.157500", "124958.157500", "125000.157500", "125002.157500", "125004.157500", "125006.157500", "125008.157500", "125010.157500", "125012.157500", "125014.157500", "125016.157500", "125018.157500", "125020.157500", "125022.157500", "125024.157500", "125026.157500", "125028.157500", "125030.157500", "125032.157500", "125034.157500", "125036.157500", "125038.157500", "125040.157500", "125042.157500", "125044.157500", "125046.157500", "125048.157500", "125050.157500", "125052.157500", "125054.157500", "125056.157500", "125058.157500", "125100.157500", "125102.157500", "125104.157500", "125106.157500", "125108.157500", "125110.157500", "125112.157500", "125114.157500", "125116.157500", "125118.157500", "125120.157500", "125122.157500", "125124.157500", "125126.157500", "125128.157500", "125130.157500", "125132.157500", "125134.157500", "125136.157500", "125138.157500", "125140.157500", "125142.157500", "125144.157500", "125146.157500", "125148.157500", "125150.157500", "125152.157500", "125154.157500", "125156.157500", "125158.157500", "125200.157500", "125202.157500", "125204.157500", "125206.157500", "125208.157500", "125210.157500", "125212.157500", "125214.157500", "125216.157500", "125218.157500", "125220.157500", "125222.157500", "125224.157500", "125226.157500", "125228.157500", "125230.157500", "125232.157500", "125234.157500", "125236.157500", "125238.157500", "125240.157500", "125242.157500", "125244.157500", "125246.157500", "125248.157500", "125250.157500", "125252.157500", "125254.157500", "125256.157500", "125258.157500", "125300.157500", "125302.157500", "125304.157500", "125306.157500", "125308.157500", "125310.157500", "125312.157500", "125314.157500", "125316.157500", "125318.157500", "125320.157500", "125322.157500", "125324.157500", "125326.157500", "125328.157500", "125330.157500", "125332.157500", "125334.157500", "125336.157500", "125338.157500", "125340.157500", "125342.157500", "125344.157500", "125346.157500", "125348.157500", "125350.157500", "125352.157500", "125354.157500", "125356.157500", "125358.157500", "125400.157500", "125402.157500", "125404.157500", "125406.157500", "125408.157500", "125410.157500", "125412.157500", "125414.157500", "125416.157500", "125418.157500", "125420.157500", "125422.157500", "125424.157500", "125426.157500", "125428.157500", "125430.157500", "125432.157500", "125434.157500", "125436.157500", "125438.157500", "125440.157500", "125442.157500", "125444.157500", "125446.157500", "125448.157500", "125450.157500", "125452.157500", "125454.157500", "125456.157500", "125458.157500", "125500.157500", "125502.157500", "125504.157500", "125506.157500", "125508.157500", "125510.157500", "125512.157500", "125514.157500", "125516.157500", "125518.157500", "125520.157500", "125522.157500", "125524.157500", "125526.157500", "125528.157500", "125530.157500", "125532.157500", "125534.157500", "125536.157500", "125538.157500", "125540.157500", "125542.157500", "125544.157500", "125546.157500", "125548.157500", "125550.157500", "125552.157500", "125554.157500", "125556.157500", "125558.157500", "125600.157500", "125602.157500", "125604.157500", "125606.157500", "125608.157500", "125610.157500", "125612.157500", "125614.157500", "125616.157500", "125618.157500", "125620.157500", "125622.157500", "125624.157500", "125626.157500", "125628.157500", "125630.157500", "125632.157500", "125634.157500", "125636.157500", "125638.157500", "125640.157500", "125642.157500", "125644.157500", "125646.157500"],
      "ContentTime": ["124906.935000", "124908.432000", "124910.432000", "124912.431000", "124914.430000", "124916.430000", "124918.430000", "124920.430000", "124922.431000", "124924.431000", "124926.432000", "124928.431000", "124930.430000", "124932.431000", "124934.430000", "124936.431000", "124938.430000", "124940.431000", "124942.431000", "124944.431000", "124946.431000", "124948.430000", "124950.431000", "124952.430000", "124954.430000", "124956.430000", "124958.432000", "125000.431000", "125002.431000", "125004.430000", "125006.430000", "125008.430000", "125010.430000", "125012.431000", "125014.432000", "125016.431000", "125018.431000", "125020.431000", "125022.431000", "125024.430000", "125026.430000", "125028.431000", "125030.430000", "125032.431000", "125034.431000", "125036.431000", "125038.431000", "125040.430000", "125042.430000", "125044.430000", "125046.430000", "125048.430000", "125050.432000", "125052.432000", "125054.431000", "125056.431000", "125058.430000", "125100.431000", "125102.430000", "125104.430000", "125106.430000", "125108.431000", "125110.431000", "125112.432000", "125114.430000", "125116.430000", "125118.430000", "125120.430000", "125122.430000", "125124.432000", "125126.431000", "125128.431000", "125130.431000", "125132.430000", "125134.431000", "125136.430000", "125138.430000", "125140.431000", "125142.431000", "125144.431000", "125146.431000", "125148.431000", "125150.430000", "125152.430000", "125154.431000", "125156.430000", "125158.430000", "125200.431000", "125202.431000", "125204.431000", "125206.430000", "125208.430000", "125210.431000", "125212.430000", "125214.430000", "125216.430000", "125218.432000", "125220.432000", "125222.431000", "125224.431000", "125226.430000", "125228.430000", "125230.431000", "125232.430000", "125234.431000", "125236.431000", "125238.431000", "125240.432000", "125242.431000", "125244.430000", "125246.431000", "125248.430000", "125250.431000", "125252.431000", "125254.431000", "125256.431000", "125258.432000", "125300.431000", "125302.430000", "125304.430000", "125306.431000", "125308.430000", "125310.431000", "125312.432000", "125314.431000", "125316.430000", "125318.430000", "125320.431000", "125322.431000", "125324.430000", "125326.431000", "125328.432000", "125330.444000", "125332.432000", "125334.430000", "125336.430000", "125338.431000", "125340.430000", "125342.430000", "125344.431000", "125346.432000", "125348.431000", "125350.431000", "125352.430000", "125354.430000", "125356.431000", "125358.430000", "125400.430000", "125402.431000", "125404.431000", "125406.432000", "125408.432000", "125410.430000", "125412.430000", "125414.430000", "125416.431000", "125418.430000", "125420.431000", "125422.432000", "125424.432000", "125426.431000", "125428.430000", "125430.430000", "125432.431000", "125434.431000", "125436.430000", "125438.432000", "125440.431000", "125442.431000", "125444.431000", "125446.430000", "125448.430000", "125450.430000", "125452.431000", "125454.431000", "125456.431000", "125458.431000", "125500.431000", "125502.431000", "125504.431000", "125506.430000", "125508.430000", "125510.430000", "125512.431000", "125514.432000", "125516.431000", "125518.432000", "125520.430000", "125522.431000", "125524.431000", "125526.430000", "125528.430000", "125530.432000", "125532.431000", "125534.432000", "125536.431000", "125538.430000", "125540.431000", "125542.431000", "125544.431000", "125546.432000", "125548.431000", "125550.432000", "125552.431000", "125554.430000", "125556.430000", "125558.431000", "125600.431000", "125602.431000", "125604.432000", "125606.431000", "125608.432000", "125610.431000", "125612.430000", "125614.430000", "125616.430000", "125618.431000", "125620.430000", "125622.431000", "125624.432000", "125626.431000", "125628.431000", "125630.430000", "125632.430000", "125634.430000", "125636.430000", "125638.430000", "125640.431000", "125642.431000", "125644.432000", "125646.430000", "125648.004000"],
      "InstanceCreationTime": ["124906.935000", "124908.432000", "124910.432000", "124912.431000", "124914.430000", "124916.430000", "124918.430000", "124920.430000", "124922.431000", "124924.431000", "124926.432000", "124928.431000", "124930.430000", "124932.431000", "124934.430000", "124936.431000", "124938.430000", "124940.431000", "124942.431000", "124944.431000", "124946.431000", "124948.430000", "124950.431000", "124952.430000", "124954.430000", "124956.430000", "124958.432000", "125000.431000", "125002.431000", "125004.430000", "125006.430000", "125008.430000", "125010.430000", "125012.431000", "125014.432000", "125016.431000", "125018.431000", "125020.431000", "125022.431000", "125024.430000", "125026.430000", "125028.431000", "125030.430000", "125032.431000", "125034.431000", "125036.431000", "125038.431000", "125040.430000", "125042.430000", "125044.430000", "125046.430000", "125048.430000", "125050.432000", "125052.432000", "125054.431000", "125056.431000", "125058.430000", "125100.431000", "125102.430000", "125104.430000", "125106.430000", "125108.431000", "125110.431000", "125112.432000", "125114.430000", "125116.430000", "125118.430000", "125120.430000", "125122.430000", "125124.432000", "125126.431000", "125128.431000", "125130.431000", "125132.430000", "125134.431000", "125136.430000", "125138.430000", "125140.431000", "125142.431000", "125144.431000", "125146.431000", "125148.431000", "125150.430000", "125152.430000", "125154.431000", "125156.430000", "125158.430000", "125200.431000", "125202.431000", "125204.431000", "125206.430000", "125208.430000", "125210.431000", "125212.430000", "125214.430000", "125216.430000", "125218.432000", "125220.432000", "125222.431000", "125224.431000", "125226.430000", "125228.430000", "125230.431000", "125232.430000", "125234.431000", "125236.431000", "125238.431000", "125240.432000", "125242.431000", "125244.430000", "125246.431000", "125248.430000", "125250.431000", "125252.431000", "125254.431000", "125256.431000", "125258.432000", "125300.431000", "125302.430000", "125304.430000", "125306.431000", "125308.430000", "125310.431000", "125312.432000", "125314.431000", "125316.430000", "125318.430000", "125320.431000", "125322.431000", "125324.430000", "125326.431000", "125328.432000", "125330.444000", "125332.432000", "125334.430000", "125336.430000", "125338.431000", "125340.430000", "125342.430000", "125344.431000", "125346.432000", "125348.431000", "125350.431000", "125352.430000", "125354.430000", "125356.431000", "125358.430000", "125400.430000", "125402.431000", "125404.431000", "125406.432000", "125408.432000", "125410.430000", "125412.430000", "125414.430000", "125416.431000", "125418.430000", "125420.431000", "125422.432000", "125424.432000", "125426.431000", "125428.430000", "125430.430000", "125432.431000", "125434.431000", "125436.430000", "125438.432000", "125440.431000", "125442.431000", "125444.431000", "125446.430000", "125448.430000", "125450.430000", "125452.431000", "125454.431000", "125456.431000", "125458.431000", "125500.431000", "125502.431000", "125504.431000", "125506.430000", "125508.430000", "125510.430000", "125512.431000", "125514.432000", "125516.431000", "125518.432000", "125520.430000", "125522.431000", "125524.431000", "125526.430000", "125528.430000", "125530.432000", "125532.431000", "125534.432000", "125536.431000", "125538.430000", "125540.431000", "125542.431000", "125544.431000", "125546.432000", "125548.431000", "125550.432000", "125552.431000", "125554.430000", "125556.430000", "125558.431000", "125600.431000", "125602.431000", "125604.432000", "125606.431000", "125608.432000", "125610.431000", "125612.430000", "125614.430000", "125616.430000", "125618.431000", "125620.430000", "125622.431000", "125624.432000", "125626.431000", "125628.431000", "125630.430000", "125632.430000", "125634.430000", "125636.430000", "125638.430000", "125640.431000", "125642.431000", "125644.432000", "125646.430000", "125648.004000"],
      "InstanceNumber": [1, 2, 3, 4, 5, 6, 7, 8, 9, 10, 11, 12, 13, 14, 15, 16, 17, 18, 19, 20, 21, 22, 23, 24, 25, 26, 27, 28, 29, 30, 31, 32, 33, 34, 35, 36, 37, 38, 39, 40, 41, 42, 43, 44, 45, 46, 47, 48, 49, 50, 51, 52, 53, 54, 55, 56, 57, 58, 59, 60, 61, 62, 63, 64, 65, 66, 67, 68, 69, 70, 71, 72, 73, 74, 75, 76, 77, 78, 79, 80, 81, 82, 83, 84, 85, 86, 87, 88, 89, 90, 91, 92, 93, 94, 95, 96, 97, 98, 99, 100, 101, 102, 103, 104, 105, 106, 107, 108, 109, 110, 111, 112, 113, 114, 115, 116, 117, 118, 119, 120, 121, 122, 123, 124, 125, 126, 127, 128, 129, 130, 131, 132, 133, 134, 135, 136, 137, 138, 139, 140, 141, 142, 143, 144, 145, 146, 147, 148, 149, 150, 151, 152, 153, 154, 155, 156, 157, 158, 159, 160, 161, 162, 163, 164, 165, 166, 167, 168, 169, 170, 171, 172, 173, 174, 175, 176, 177, 178, 179, 180, 181, 182, 183, 184, 185, 186, 187, 188, 189, 190, 191, 192, 193, 194, 195, 196, 197, 198, 199, 200, 201, 202, 203, 204, 205, 206, 207, 208, 209, 210, 211, 212, 213, 214, 215, 216, 217, 218, 219, 220, 221, 222, 223, 224, 225, 226, 227, 228, 229, 230, 231, 232],
      "LargestImagePixelValue": [2838, 2828, 2892, 2832, 2896, 2846, 2844, 2869, 2889, 2841, 2848, 2886, 2889, 2905, 2854, 2844, 2867, 2852, 2873, 2899, 2878, 2874, 2856, 2916, 2822, 2845, 2874, 2901, 2940, 2893, 2869, 2891, 2963, 2885, 2886, 2921, 2936, 2898, 2867, 2902, 2954, 3025, 2947, 3045, 2955, 2906, 2987, 2944, 2877, 2909, 2867, 2880, 2972, 2864, 2942, 2907, 2995, 2864, 2973, 2867, 2946, 2983, 3048, 2885, 2956, 3006, 3032, 2943, 3002, 3022, 3097, 2915, 2972, 3005, 2911, 3031, 2916, 2988, 3064, 3029, 2950, 2970, 3034, 2917, 3011, 2988, 3022, 3098, 2899, 2955, 3008, 2966, 2948, 2976, 3046, 3105, 2946, 2945, 2912, 2919, 2993, 2893, 2936, 3033, 2919, 3085, 2921, 3123, 2928, 3043, 2903, 2991, 2999, 2946, 3053, 2911, 3013, 2904, 3025, 2956, 2980, 3074, 3044, 3057, 2987, 2921, 2998, 3074, 3098, 2880, 2947, 2997, 2884, 2928, 2953, 2868, 2983, 3089, 2911, 3039, 3060, 3108, 3154, 2989, 3011, 3095, 2911, 3054, 3086, 2947, 3005, 3107, 3122, 2947, 3025, 3149, 2983, 3031, 3075, 3112, 3000, 3000, 3083, 3000, 3039, 3024, 3114, 3098, 3059, 2960, 3137, 3024, 3114, 3042, 3109, 2947, 3090, 3098, 2990, 3060, 3126, 3009, 3073, 3137, 3013, 3037, 3139, 3050, 3048, 2958, 3224, 2936, 3084, 3112, 2993, 3042, 3128, 3166, 3032, 3070, 3100, 3161, 2955, 3088, 3143, 3185, 3006, 3030, 3065, 3133, 2985, 3126, 3131, 3155, 3200, 3073, 3100, 3129, 3033, 3070, 3131, 3073, 3091, 3092, 3153, 3051, 3053, 3151, 3058, 3053, 3113, 3220],
      "WindowCenter": [754.0, 753.0, 754.0, 752.0, 753.0, 753.0, 754.0, 754.0, 755.0, 755.0, 756.0, 756.0, 757.0, 756.0, 756.0, 755.0, 755.0, 756.0, 757.0, 757.0, 756.0, 755.0, 755.0, 756.0, 755.0, 756.0, 757.0, 758.0, 758.0, 758.0, 757.0, 758.0, 758.0, 757.0, 758.0, 758.0, 758.0, 757.0, 756.0, 757.0, 758.0, 760.0, 757.0, 757.0, 756.0, 755.0, 756.0, 756.0, 755.0, 756.0, 758.0, 757.0, 758.0, 755.0, 756.0, 756.0, 758.0, 756.0, 758.0, 757.0, 757.0, 756.0, 756.0, 755.0, 755.0, 756.0, 758.0, 757.0, 757.0, 757.0, 758.0, 756.0, 756.0, 757.0, 758.0, 758.0, 757.0, 757.0, 758.0, 757.0, 757.0, 758.0, 759.0, 758.0, 758.0, 757.0, 756.0, 757.0, 756.0, 757.0, 758.0, 758.0, 757.0, 757.0, 758.0, 758.0, 757.0, 756.0, 757.0, 757.0, 757.0, 756.0, 756.0, 757.0, 755.0, 757.0, 758.0, 758.0, 756.0, 755.0, 755.0, 753.0, 756.0, 755.0, 758.0, 758.0, 758.0, 757.0, 757.0, 756.0, 756.0, 758.0, 756.0, 756.0, 757.0, 756.0, 757.0, 759.0, 757.0, 754.0, 754.0, 755.0, 754.0, 755.0, 756.0, 754.0, 756.0, 756.0, 755.0, 755.0, 755.0, 755.0, 755.0, 754.0, 755.0, 757.0, 756.0, 758.0, 757.0, 755.0, 756.0, 757.0, 757.0, 756.0, 758.0, 759.0, 757.0, 757.0, 757.0, 757.0, 756.0, 756.0, 757.0, 756.0, 757.0, 757.0, 758.0, 757.0, 757.0, 757.0, 761.0, 758.0, 759.0, 758.0, 759.0, 758.0, 760.0, 760.0, 759.0, 758.0, 758.0, 756.0, 757.0, 758.0, 757.0, 757.0, 756.0, 757.0, 756.0, 757.0, 758.0, 754.0, 757.0, 758.0, 758.0, 759.0, 759.0, 760.0, 758.0, 758.0, 758.0, 758.0, 757.0, 758.0, 759.0, 759.0, 757.0, 758.0, 758.0, 759.0, 758.0, 759.0, 758.0, 758.0, 758.0, 757.0, 756.0, 757.0, 758.0, 758.0, 759.0, 758.0, 758.0, 757.0, 757.0, 758.0, 758.0, 760.0, 758.0, 758.0, 758.0, 759.0],
      "WindowWidth": [1648.0, 1645.0, 1646.0, 1641.0, 1644.0, 1644.0, 1647.0, 1647.0, 1649.0, 1650.0, 1653.0, 1654.0, 1654.0, 1652.0, 1652.0, 1650.0, 1650.0, 1653.0, 1656.0, 1656.0, 1653.0, 1650.0, 1649.0, 1652.0, 1649.0, 1654.0, 1656.0, 1657.0, 1658.0, 1658.0, 1656.0, 1658.0, 1659.0, 1656.0, 1658.0, 1658.0, 1657.0, 1655.0, 1652.0, 1654.0, 1657.0, 1663.0, 1655.0, 1657.0, 1653.0, 1650.0, 1653.0, 1653.0, 1650.0, 1653.0, 1657.0, 1656.0, 1657.0, 1651.0, 1653.0, 1654.0, 1657.0, 1653.0, 1659.0, 1656.0, 1655.0, 1653.0, 1653.0, 1648.0, 1650.0, 1653.0, 1657.0, 1654.0, 1655.0, 1654.0, 1657.0, 1651.0, 1653.0, 1655.0, 1657.0, 1658.0, 1655.0, 1656.0, 1658.0, 1656.0, 1656.0, 1657.0, 1660.0, 1656.0, 1658.0, 1654.0, 1653.0, 1656.0, 1651.0, 1656.0, 1658.0, 1657.0, 1656.0, 1656.0, 1657.0, 1656.0, 1654.0, 1653.0, 1653.0, 1654.0, 1655.0, 1652.0, 1652.0, 1653.0, 1648.0, 1655.0, 1656.0, 1658.0, 1651.0, 1648.0, 1649.0, 1645.0, 1651.0, 1650.0, 1658.0, 1656.0, 1657.0, 1655.0, 1655.0, 1650.0, 1650.0, 1655.0, 1652.0, 1652.0, 1654.0, 1651.0, 1654.0, 1659.0, 1654.0, 1646.0, 1645.0, 1647.0, 1645.0, 1648.0, 1650.0, 1646.0, 1650.0, 1651.0, 1647.0, 1648.0, 1648.0, 1648.0, 1649.0, 1645.0, 1648.0, 1653.0, 1652.0, 1657.0, 1655.0, 1650.0, 1650.0, 1654.0, 1654.0, 1653.0, 1657.0, 1660.0, 1655.0, 1654.0, 1655.0, 1655.0, 1652.0, 1652.0, 1655.0, 1652.0, 1653.0, 1653.0, 1656.0, 1654.0, 1654.0, 1655.0, 1665.0, 1657.0, 1659.0, 1657.0, 1660.0, 1657.0, 1662.0, 1661.0, 1658.0, 1657.0, 1657.0, 1651.0, 1654.0, 1657.0, 1655.0, 1654.0, 1650.0, 1655.0, 1651.0, 1653.0, 1658.0, 1645.0, 1654.0, 1656.0, 1656.0, 1658.0, 1661.0, 1662.0, 1657.0, 1657.0, 1655.0, 1658.0, 1654.0, 1658.0, 1658.0, 1659.0, 1655.0, 1656.0, 1656.0, 1659.0, 1657.0, 1658.0, 1658.0, 1657.0, 1658.0, 1652.0, 1652.0, 1653.0, 1655.0, 1656.0, 1659.0, 1657.0, 1656.0, 1653.0, 1653.0, 1655.0, 1657.0, 1662.0, 1657.0, 1655.0, 1656.0, 1658.0]
    },
    "slices": {}
  }
}