{
  "AcquisitionMatrixPE": 100,
  "AcquisitionNumber": 1,
  "AcquisitionTime": "14:32:56.537500",
  "BandwidthPerPixelPhaseEncode": 18.519,
  "BaseResolution": 100,
  "BodyPartExamined": "BRAIN",
  "ConsistencyInfo": "N4_VE11C_LATEST_20160120",
  "ConversionSoftware": "dcm2niix",
  "ConversionSoftwareVersion": "v1.0.20180622 GCC4.9.2",
  "DerivedVendorReportedEchoSpacing": 0.000539986,
  "DeviceSerialNumber": "166078",
  "DwellTime": 2.1e-06,
  "EchoTime": 0.034,
  "EchoTrainLength": 100,
  "EffectiveEchoSpacing": 0.000539986,
  "FlipAngle": 90,
  "ImageOrientationPatientDICOM": [0.999468, 0.0322922, 0.0045389, -0.0314096, 0.990728, -0.132178],
  "ImageType": [
    "ORIGINAL",
    "PRIMARY",
    "M",
    "ND",
    "MOSAIC"
],
  "InPlanePhaseEncodingDirectionDICOM": "COL",
  "InstitutionAddress": "Street_StreetNo_Bei_Jing_District_CN_ZIP",
  "InstitutionName": "BeiJing_Normal_University",
  "InstitutionalDepartmentName": "Department",
  "MRAcquisitionType": "2D",
  "MagneticFieldStrength": 3,
  "Manufacturer": "Siemens",
  "ManufacturersModelName": "Prisma",
  "Modality": "MR",
  "MultibandAccelerationFactor": 3,
  "PartialFourier": 1,
  "PatientPosition": "HFS",
  "PercentPhaseFOV": 100,
  "PhaseEncodingDirection": "j-",
  "PhaseEncodingSteps": 100,
  "PhaseResolution": 1,
  "PixelBandwidth": 2380,
  "ProcedureStepDescription": "BNU_P2018_64CH_Liu.Jia",
  "ProtocolName": "bold_100x100_s3_2x2x2_232",
  "PulseSequenceDetails": "%SiemensSeq%_ep2d_bold",
  "ReceiveCoilActiveElements": "HC1-7;NC1",
  "ReceiveCoilName": "HeadNeck_64",
  "ReconMatrixPE": 100,
  "RepetitionTime": 2,
  "SAR": 0.0678593,
  "ScanOptions": "FS",
  "ScanningSequence": "EP",
  "SequenceName": "_epfid2d1_100",
  "SequenceVariant": "SK",
  "SeriesDescription": "bold_100x100_s3_2x2x2_232",
  "SeriesNumber": 9,
  "ShimSetting": [-5457, -11481, -1281, 285, -53, -359, -198, 55],
  "SliceThickness": 2,
  "SliceTiming": [1.485, 0, 0.99, 0.0825, 1.0725, 0.165, 1.155, 0.2475, 1.2375, 0.33, 1.32, 0.4125, 1.4025, 0.5775, 1.5675, 0.66, 1.65, 0.7425, 1.7325, 0.825, 1.815, 0.9075, 1.8975, 0.495, 1.485, 0, 0.99, 0.0825, 1.0725, 0.165, 1.155, 0.2475, 1.2375, 0.33, 1.32, 0.4125, 1.4025, 0.5775, 1.5675, 0.66, 1.65, 0.7425, 1.7325, 0.825, 1.815, 0.9075, 1.8975, 0.495, 1.485, 0, 0.99, 0.0825, 1.0725, 0.165, 1.155, 0.2475, 1.2375, 0.33, 1.32, 0.4125, 1.4025, 0.5775, 1.5675, 0.66, 1.65, 0.7425, 1.7325, 0.825, 1.815, 0.9075, 1.8975, 0.495],
  "SoftwareVersions": "syngo_MR_E11",
  "SpacingBetweenSlices": 2,
  "StationName": "AWP166078",
  "TaskName": "motor",
  "TotalReadoutTime": 0.0534586,
  "TxRefAmp": 213.694,
  "dcmmeta_affine": [
    [-1.9989362955093384, -0.06281910836696625, 0.01753029227256775, 102.72970581054688],
    [-0.0645844042301178, 1.9814562797546387, -0.2639312446117401, -79.41693115234375],
    [0.009077792055904865, 0.26435697078704834, 1.982431173324585, -83.16288757324219],
    [0.0, 0.0, 0.0, 1.0]
],
  "dcmmeta_reorient_transform": [
    [0.0, -1.0, 0.0, 99.0],
    [1.0, 0.0, 0.0, 0.0],
    [0.0, 0.0, 1.0, 0.0],
    [0.0, 0.0, 0.0, 1.0]
],
  "dcmmeta_shape": [100, 100, 72, 232],
  "dcmmeta_slice_dim": 2,
  "dcmmeta_version": 0.6,
  "global": {
    "const": {
      "AcquisitionMatrix": [100, 0, 0, 100],
      "AngioFlag": "N",
      "BitsAllocated": 16,
      "BitsStored": 12,
      "BodyPartExamined": "BRAIN",
      "Columns": 900,
      "EchoNumbers": 1,
      "EchoTime": 34.0,
      "EchoTrainLength": 100,
      "FlipAngle": 90.0,
      "HighBit": 11,
      "ImageOrientationPatient": [0.99946816466345, 0.03229220102566, 0.00453889603335, -0.0314095532137, 0.9907281602744, -0.1321784869267],
      "ImagePositionPatient": [-870.95749991881, -935.16353371955, 45.120123381127],
      "ImageType": [
        "ORIGINAL",
        "PRIMARY",
        "M",
        "ND",
        "MOSAIC"
],
      "ImagedNucleus": "1H",
      "ImagingFrequency": 123.257856,
      "InPlanePhaseEncodingDirection": "COL",
      "MRAcquisitionType": "2D",
      "MagneticFieldStrength": 3.0,
      "Manufacturer": "SIEMENS",
      "ManufacturerModelName": "Prisma",
      "Modality": "MR",
      "NumberOfAverages": 1.0,
      "NumberOfPhaseEncodingSteps": 100,
      "PercentPhaseFieldOfView": 100.0,
      "PercentSampling": 100.0,
      "PerformedProcedureStepStartTime": "135258.271000",
      "PhotometricInterpretation": "MONOCHROME2",
      "PixelBandwidth": 2380.0,
      "PixelRepresentation": 0,
      "PixelSpacing": [2.0, 2.0],
      "ProtocolName": "bold_100x100_s3_2x2x2_232",
      "RepetitionTime": 2000.0,
      "Rows": 900,
      "SAR": 0.06785933907303,
      "SamplesPerPixel": 1,
      "ScanOptions": "FS",
      "ScanningSequence": "EP",
      "SequenceName": "*epfid2d1_100",
      "SequenceVariant": "SK",
      "SeriesDescription": "bold_100x100_s3_2x2x2_232",
      "SeriesNumber": 9,
      "SeriesTime": "143259.733000",
      "SliceLocation": -71.051602811888,
      "SliceThickness": 2.0,
      "SmallestImagePixelValue": 0,
      "SoftwareVersions": "syngo MR E11",
      "SpacingBetweenSlices": 2.0000000354017,
      "SpecificCharacterSet": "ISO_IR 100",
      "StudyID": "1",
      "StudyTime": "135258.182000",
      "TransmitCoilName": "Body",
      "VariableFlipAngleFlag": "N",
      "WindowCenterWidthExplanation": "Algo1",
      "dBdt": 0.0},
    "slices": {}
  },
  "time": {
    "samples": {
      "AcquisitionNumber": [1, 2, 3, 4, 5, 6, 7, 8, 9, 10, 11, 12, 13, 14, 15, 16, 17, 18, 19, 20, 21, 22, 23, 24, 25, 26, 27, 28, 29, 30, 31, 32, 33, 34, 35, 36, 37, 38, 39, 40, 41, 42, 43, 44, 45, 46, 47, 48, 49, 50, 51, 52, 53, 54, 55, 56, 57, 58, 59, 60, 61, 62, 63, 64, 65, 66, 67, 68, 69, 70, 71, 72, 73, 74, 75, 76, 77, 78, 79, 80, 81, 82, 83, 84, 85, 86, 87, 88, 89, 90, 91, 92, 93, 94, 95, 96, 97, 98, 99, 100, 101, 102, 103, 104, 105, 106, 107, 108, 109, 110, 111, 112, 113, 114, 115, 116, 117, 118, 119, 120, 121, 122, 123, 124, 125, 126, 127, 128, 129, 130, 131, 132, 133, 134, 135, 136, 137, 138, 139, 140, 141, 142, 143, 144, 145, 146, 147, 148, 149, 150, 151, 152, 153, 154, 155, 156, 157, 158, 159, 160, 161, 162, 163, 164, 165, 166, 167, 168, 169, 170, 171, 172, 173, 174, 175, 176, 177, 178, 179, 180, 181, 182, 183, 184, 185, 186, 187, 188, 189, 190, 191, 192, 193, 194, 195, 196, 197, 198, 199, 200, 201, 202, 203, 204, 205, 206, 207, 208, 209, 210, 211, 212, 213, 214, 215, 216, 217, 218, 219, 220, 221, 222, 223, 224, 225, 226, 227, 228, 229, 230, 231, 232],
      "AcquisitionTime": ["143256.537500", "143258.537500", "143300.537500", "143302.537500", "143304.537500", "143306.537500", "143308.537500", "143310.537500", "143312.537500", "143314.537500", "143316.537500", "143318.537500", "143320.537500", "143322.537500", "143324.537500", "143326.537500", "143328.537500", "143330.537500", "143332.537500", "143334.537500", "143336.537500", "143338.537500", "143340.537500", "143342.537500", "143344.537500", "143346.537500", "143348.537500", "143350.537500", "143352.537500", "143354.537500", "143356.537500", "143358.537500", "143400.537500", "143402.537500", "143404.537500", "143406.537500", "143408.537500", "143410.537500", "143412.537500", "143414.537500", "143416.537500", "143418.537500", "143420.537500", "143422.537500", "143424.537500", "143426.537500", "143428.537500", "143430.537500", "143432.537500", "143434.537500", "143436.537500", "143438.537500", "143440.537500", "143442.537500", "143444.537500", "143446.537500", "143448.537500", "143450.537500", "143452.537500", "143454.537500", "143456.537500", "143458.537500", "143500.537500", "143502.537500", "143504.537500", "143506.537500", "143508.537500", "143510.537500", "143512.537500", "143514.537500", "143516.537500", "143518.537500", "143520.537500", "143522.537500", "143524.537500", "143526.537500", "143528.537500", "143530.537500", "143532.537500", "143534.537500", "143536.537500", "143538.537500", "143540.537500", "143542.537500", "143544.537500", "143546.537500", "143548.537500", "143550.537500", "143552.537500", "143554.537500", "143556.537500", "143558.537500", "143600.537500", "143602.537500", "143604.537500", "143606.537500", "143608.537500", "143610.537500", "143612.537500", "143614.537500", "143616.537500", "143618.537500", "143620.537500", "143622.537500", "143624.537500", "143626.537500", "143628.537500", "143630.537500", "143632.537500", "143634.537500", "143636.537500", "143638.537500", "143640.537500", "143642.537500", "143644.537500", "143646.537500", "143648.537500", "143650.537500", "143652.537500", "143654.537500", "143656.537500", "143658.537500", "143700.537500", "143702.537500", "143704.537500", "143706.537500", "143708.537500", "143710.537500", "143712.537500", "143714.537500", "143716.537500", "143718.537500", "143720.537500", "143722.537500", "143724.537500", "143726.537500", "143728.537500", "143730.537500", "143732.537500", "143734.537500", "143736.537500", "143738.537500", "143740.537500", "143742.537500", "143744.537500", "143746.537500", "143748.537500", "143750.537500", "143752.537500", "143754.537500", "143756.537500", "143758.537500", "143800.537500", "143802.537500", "143804.537500", "143806.537500", "143808.537500", "143810.537500", "143812.537500", "143814.537500", "143816.537500", "143818.537500", "143820.537500", "143822.537500", "143824.537500", "143826.537500", "143828.537500", "143830.537500", "143832.537500", "143834.537500", "143836.537500", "143838.537500", "143840.537500", "143842.537500", "143844.537500", "143846.537500", "143848.537500", "143850.537500", "143852.537500", "143854.537500", "143856.537500", "143858.537500", "143900.537500", "143902.537500", "143904.537500", "143906.537500", "143908.537500", "143910.537500", "143912.537500", "143914.537500", "143916.537500", "143918.537500", "143920.537500", "143922.537500", "143924.537500", "143926.537500", "143928.537500", "143930.537500", "143932.537500", "143934.537500", "143936.537500", "143938.537500", "143940.537500", "143942.537500", "143944.537500", "143946.537500", "143948.537500", "143950.537500", "143952.537500", "143954.537500", "143956.537500", "143958.537500", "144000.537500", "144002.537500", "144004.537500", "144006.537500", "144008.537500", "144010.537500", "144012.537500", "144014.537500", "144016.537500", "144018.537500", "144020.537500", "144022.537500", "144024.537500", "144026.537500", "144028.537500", "144030.537500", "144032.537500", "144034.537500", "144036.537500", "144038.537500"],
      "ContentTime": ["143259.737000", "143300.733000", "143302.732000", "143305.232000", "143306.732000", "143309.232000", "143311.232000", "143313.231000", "143315.232000", "143317.233000", "143319.232000", "143321.232000", "143323.232000", "143325.232000", "143327.232000", "143329.231000", "143331.231000", "143333.233000", "143335.232000", "143337.232000", "143338.732000", "143341.232000", "143343.232000", "143345.232000", "143347.231000", "143349.231000", "143351.233000", "143353.233000", "143354.753000", "143357.233000", "143359.233000", "143401.232000", "143402.752000", "143405.232000", "143407.231000", "143409.233000", "143411.232000", "143413.233000", "143415.233000", "143416.732000", "143419.232000", "143420.732000", "143423.231000", "143425.231000", "143427.232000", "143429.233000", "143431.232000", "143432.732000", "143435.232000", "143437.232000", "143438.732000", "143440.732000", "143442.731000", "143445.232000", "143446.732000", "143449.232000", "143451.233000", "143453.232000", "143455.232000", "143457.231000", "143459.231000", "143500.732000", "143503.233000", "143505.232000", "143507.232000", "143509.233000", "143511.232000", "143513.232000", "143515.231000", "143517.232000", "143519.232000", "143521.233000", "143523.232000", "143525.252000", "143527.232000", "143529.232000", "143530.752000", "143533.231000", "143535.231000", "143537.232000", "143539.232000", "143541.232000", "143543.233000", "143545.232000", "143547.232000", "143548.732000", "143551.232000", "143552.751000", "143555.232000", "143557.233000", "143558.733000", "143601.232000", "143602.733000", "143605.232000", "143607.231000", "143608.731000", "143611.232000", "143613.233000", "143615.233000", "143617.233000", "143619.232000", "143621.233000", "143623.232000", "143625.232000", "143627.232000", "143628.732000", "143631.232000", "143633.232000", "143635.232000", "143637.232000", "143639.232000", "143641.233000", "143642.732000", "143645.231000", "143647.232000", "143649.232000", "143651.232000", "143653.232000", "143655.232000", "143656.732000", "143658.752000", "143701.232000", "143703.233000", "143704.732000", "143706.732000", "143709.233000", "143711.233000", "143713.233000", "143715.232000", "143716.731000", "143719.232000", "143721.232000", "143722.732000", "143725.233000", "143727.232000", "143729.232000", "143731.232000", "143733.233000", "143734.731000", "143737.231000", "143738.732000", "143741.233000", "143743.232000", "143745.232000", "143746.732000", "143749.233000", "143751.232000", "143753.231000", "143755.232000", "143757.232000", "143759.233000", "143801.233000", "143803.232000", "143805.233000", "143807.249000", "143809.232000", "143811.231000", "143813.232000", "143815.232000", "143817.232000", "143819.232000", "143821.233000", "143823.233000", "143824.733000", "143826.731000", "143829.232000", "143831.233000", "143833.232000", "143835.232000", "143837.233000", "143839.233000", "143841.233000", "143843.233000", "143845.231000", "143847.232000", "143848.732000", "143851.233000", "143853.232000", "143855.232000", "143857.233000", "143859.232000", "143901.232000", "143903.231000", "143905.232000", "143907.232000", "143908.732000", "143911.232000", "143913.232000", "143915.232000", "143917.232000", "143919.231000", "143921.231000", "143923.232000", "143925.232000", "143926.732000", "143929.232000", "143931.232000", "143933.232000", "143935.233000", "143937.232000", "143939.231000", "143941.232000", "143942.732000", "143945.233000", "143947.232000", "143949.232000", "143951.233000", "143953.233000", "143955.231000", "143957.231000", "143959.252000", "144001.233000", "144003.233000", "144005.233000", "144007.232000", "144009.232000", "144011.232000", "144013.232000", "144015.232000", "144016.733000", "144019.233000", "144021.233000", "144022.733000", "144025.233000", "144026.733000", "144029.232000", "144031.232000", "144032.732000", "144035.232000", "144037.233000", "144038.732000", "144040.720000"],
      "InstanceCreationTime": ["143259.737000", "143300.733000", "143302.732000", "143305.232000", "143306.732000", "143309.232000", "143311.232000", "143313.231000", "143315.232000", "143317.233000", "143319.232000", "143321.232000", "143323.232000", "143325.232000", "143327.232000", "143329.231000", "143331.231000", "143333.233000", "143335.232000", "143337.232000", "143338.732000", "143341.232000", "143343.232000", "143345.232000", "143347.231000", "143349.231000", "143351.233000", "143353.233000", "143354.753000", "143357.233000", "143359.233000", "143401.232000", "143402.752000", "143405.232000", "143407.231000", "143409.233000", "143411.232000", "143413.233000", "143415.233000", "143416.732000", "143419.232000", "143420.732000", "143423.231000", "143425.231000", "143427.232000", "143429.233000", "143431.232000", "143432.732000", "143435.232000", "143437.232000", "143438.732000", "143440.732000", "143442.731000", "143445.232000", "143446.732000", "143449.232000", "143451.233000", "143453.232000", "143455.232000", "143457.231000", "143459.231000", "143500.732000", "143503.233000", "143505.232000", "143507.232000", "143509.233000", "143511.232000", "143513.232000", "143515.231000", "143517.232000", "143519.232000", "143521.233000", "143523.232000", "143525.252000", "143527.232000", "143529.232000", "143530.752000", "143533.231000", "143535.231000", "143537.232000", "143539.232000", "143541.232000", "143543.233000", "143545.232000", "143547.232000", "143548.732000", "143551.232000", "143552.751000", "143555.232000", "143557.233000", "143558.733000", "143601.232000", "143602.733000", "143605.232000", "143607.231000", "143608.731000", "143611.232000", "143613.233000", "143615.233000", "143617.233000", "143619.232000", "143621.233000", "143623.232000", "143625.232000", "143627.232000", "143628.732000", "143631.232000", "143633.232000", "143635.232000", "143637.232000", "143639.232000", "143641.233000", "143642.732000", "143645.231000", "143647.232000", "143649.232000", "143651.232000", "143653.232000", "143655.232000", "143656.732000", "143658.752000", "143701.232000", "143703.233000", "143704.732000", "143706.732000", "143709.233000", "143711.233000", "143713.233000", "143715.232000", "143716.731000", "143719.232000", "143721.232000", "143722.732000", "143725.233000", "143727.232000", "143729.232000", "143731.232000", "143733.233000", "143734.731000", "143737.231000", "143738.732000", "143741.233000", "143743.232000", "143745.232000", "143746.732000", "143749.233000", "143751.232000", "143753.231000", "143755.232000", "143757.232000", "143759.233000", "143801.233000", "143803.232000", "143805.233000", "143807.249000", "143809.232000", "143811.231000", "143813.232000", "143815.232000", "143817.232000", "143819.232000", "143821.233000", "143823.233000", "143824.733000", "143826.731000", "143829.232000", "143831.233000", "143833.232000", "143835.232000", "143837.233000", "143839.233000", "143841.233000", "143843.233000", "143845.231000", "143847.232000", "143848.732000", "143851.233000", "143853.232000", "143855.232000", "143857.233000", "143859.232000", "143901.232000", "143903.231000", "143905.232000", "143907.232000", "143908.732000", "143911.232000", "143913.232000", "143915.232000", "143917.232000", "143919.231000", "143921.231000", "143923.232000", "143925.232000", "143926.732000", "143929.232000", "143931.232000", "143933.232000", "143935.233000", "143937.232000", "143939.231000", "143941.232000", "143942.732000", "143945.233000", "143947.232000", "143949.232000", "143951.233000", "143953.233000", "143955.231000", "143957.231000", "143959.252000", "144001.233000", "144003.233000", "144005.233000", "144007.232000", "144009.232000", "144011.232000", "144013.232000", "144015.232000", "144016.733000", "144019.233000", "144021.233000", "144022.733000", "144025.233000", "144026.733000", "144029.232000", "144031.232000", "144032.732000", "144035.232000", "144037.233000", "144038.732000", "144040.720000"],
      "InstanceNumber": [1, 2, 3, 4, 5, 6, 7, 8, 9, 10, 11, 12, 13, 14, 15, 16, 17, 18, 19, 20, 21, 22, 23, 24, 25, 26, 27, 28, 29, 30, 31, 32, 33, 34, 35, 36, 37, 38, 39, 40, 41, 42, 43, 44, 45, 46, 47, 48, 49, 50, 51, 52, 53, 54, 55, 56, 57, 58, 59, 60, 61, 62, 63, 64, 65, 66, 67, 68, 69, 70, 71, 72, 73, 74, 75, 76, 77, 78, 79, 80, 81, 82, 83, 84, 85, 86, 87, 88, 89, 90, 91, 92, 93, 94, 95, 96, 97, 98, 99, 100, 101, 102, 103, 104, 105, 106, 107, 108, 109, 110, 111, 112, 113, 114, 115, 116, 117, 118, 119, 120, 121, 122, 123, 124, 125, 126, 127, 128, 129, 130, 131, 132, 133, 134, 135, 136, 137, 138, 139, 140, 141, 142, 143, 144, 145, 146, 147, 148, 149, 150, 151, 152, 153, 154, 155, 156, 157, 158, 159, 160, 161, 162, 163, 164, 165, 166, 167, 168, 169, 170, 171, 172, 173, 174, 175, 176, 177, 178, 179, 180, 181, 182, 183, 184, 185, 186, 187, 188, 189, 190, 191, 192, 193, 194, 195, 196, 197, 198, 199, 200, 201, 202, 203, 204, 205, 206, 207, 208, 209, 210, 211, 212, 213, 214, 215, 216, 217, 218, 219, 220, 221, 222, 223, 224, 225, 226, 227, 228, 229, 230, 231, 232],
      "LargestImagePixelValue": [3698, 3687, 3638, 3661, 3664, 3680, 3708, 3677, 3651, 3734, 3746, 3626, 3697, 3702, 3661, 3631, 3614, 3607, 3637, 3613, 3670, 3660, 3652, 3646, 3655, 3679, 3683, 3679, 3650, 3695, 3669, 3665, 3645, 3723, 3725, 3701, 3664, 3702, 3698, 3705, 3690, 3738, 3758, 3797, 3780, 3715, 3725, 3756, 3754, 3719, 3688, 3749, 3784, 3756, 3740, 3783, 3751, 3766, 3757, 3774, 3762, 3764, 3733, 3747, 3764, 3795, 3747, 3770, 3729, 3712, 3816, 3737, 3803, 3727, 3757, 3731, 3746, 3763, 3728, 3746, 3763, 3741, 3773, 3746, 3713, 3746, 3711, 3713, 3731, 3712, 3666, 3649, 3664, 3709, 3666, 3623, 3675, 3630, 3639, 3639, 3635, 3650, 3648, 3621, 3622, 3653, 3639, 3637, 3618, 3652, 3628, 3613, 3599, 3643, 3629, 3606, 3643, 3640, 3632, 3632, 3646, 3671, 3626, 3630, 3622, 3674, 3635, 3620, 3620, 3615, 3624, 3589, 3621, 3637, 3651, 3656, 3688, 3625, 3605, 3606, 3585, 3602, 3585, 3586, 3583, 3582, 3585, 3596, 3586, 3609, 3584, 3607, 3589, 3611, 3592, 3617, 3598, 3610, 3618, 3605, 3629, 3635, 3601, 3571, 3652, 3728, 3579, 3578, 3770, 3664, 3686, 3696, 3693, 3693, 3716, 3700, 3712, 3707, 3676, 3675, 3682, 3677, 3685, 3719, 3785, 3813, 3785, 3765, 3795, 3793, 3821, 3802, 3765, 3875, 3834, 3835, 3842, 3849, 3847, 3851, 3803, 3820, 3809, 3810, 3808, 3815, 3796, 3815, 3816, 3820, 3852, 3791, 3850, 3876, 3814, 3845, 3827, 3820, 3800, 3874, 3811, 3825, 3774, 3870, 3802, 3894, 3863, 3908, 3830, 3785, 3867, 3782],
      "WindowCenter": [802.0, 800.0, 800.0, 800.0, 800.0, 801.0, 801.0, 800.0, 800.0, 801.0, 803.0, 801.0, 801.0, 801.0, 801.0, 801.0, 802.0, 800.0, 801.0, 800.0, 801.0, 801.0, 801.0, 802.0, 802.0, 803.0, 802.0, 801.0, 801.0, 801.0, 801.0, 801.0, 801.0, 802.0, 803.0, 803.0, 802.0, 801.0, 800.0, 800.0, 800.0, 801.0, 801.0, 800.0, 801.0, 800.0, 799.0, 800.0, 799.0, 799.0, 798.0, 798.0, 798.0, 798.0, 798.0, 798.0, 797.0, 797.0, 798.0, 798.0, 799.0, 799.0, 798.0, 797.0, 797.0, 798.0, 799.0, 799.0, 798.0, 798.0, 800.0, 801.0, 801.0, 800.0, 799.0, 801.0, 801.0, 801.0, 799.0, 799.0, 799.0, 799.0, 799.0, 799.0, 800.0, 800.0, 799.0, 799.0, 799.0, 799.0, 798.0, 798.0, 798.0, 798.0, 797.0, 796.0, 796.0, 797.0, 797.0, 797.0, 797.0, 797.0, 797.0, 797.0, 797.0, 798.0, 798.0, 798.0, 797.0, 798.0, 797.0, 797.0, 798.0, 798.0, 798.0, 798.0, 798.0, 798.0, 797.0, 797.0, 797.0, 797.0, 797.0, 797.0, 797.0, 798.0, 798.0, 798.0, 797.0, 797.0, 797.0, 797.0, 797.0, 798.0, 798.0, 798.0, 798.0, 798.0, 798.0, 798.0, 798.0, 798.0, 797.0, 797.0, 796.0, 797.0, 798.0, 798.0, 797.0, 797.0, 797.0, 797.0, 796.0, 796.0, 796.0, 796.0, 796.0, 797.0, 797.0, 797.0, 797.0, 797.0, 796.0, 793.0, 796.0, 797.0, 796.0, 795.0, 797.0, 797.0, 797.0, 796.0, 796.0, 797.0, 797.0, 797.0, 797.0, 797.0, 798.0, 797.0, 796.0, 795.0, 795.0, 795.0, 795.0, 796.0, 795.0, 795.0, 795.0, 796.0, 795.0, 794.0, 793.0, 795.0, 794.0, 793.0, 793.0, 793.0, 794.0, 795.0, 794.0, 793.0, 794.0, 795.0, 796.0, 795.0, 794.0, 794.0, 795.0, 796.0, 796.0, 794.0, 794.0, 794.0, 794.0, 795.0, 797.0, 797.0, 797.0, 796.0, 796.0, 796.0, 796.0, 796.0, 795.0, 797.0, 797.0, 798.0, 797.0, 796.0, 798.0, 797.0],
      "WindowWidth": [1765.0, 1759.0, 1758.0, 1760.0, 1760.0, 1761.0, 1761.0, 1760.0, 1758.0, 1762.0, 1766.0, 1763.0, 1761.0, 1762.0, 1760.0, 1762.0, 1763.0, 1760.0, 1761.0, 1760.0, 1763.0, 1763.0, 1763.0, 1763.0, 1765.0, 1768.0, 1765.0, 1763.0, 1761.0, 1763.0, 1761.0, 1761.0, 1761.0, 1764.0, 1766.0, 1766.0, 1763.0, 1760.0, 1758.0, 1758.0, 1759.0, 1762.0, 1762.0, 1759.0, 1760.0, 1757.0, 1756.0, 1757.0, 1756.0, 1754.0, 1752.0, 1751.0, 1752.0, 1752.0, 1752.0, 1751.0, 1749.0, 1749.0, 1751.0, 1754.0, 1754.0, 1754.0, 1752.0, 1750.0, 1750.0, 1752.0, 1754.0, 1755.0, 1752.0, 1753.0, 1758.0, 1760.0, 1760.0, 1758.0, 1757.0, 1760.0, 1762.0, 1760.0, 1755.0, 1754.0, 1756.0, 1756.0, 1756.0, 1756.0, 1757.0, 1757.0, 1756.0, 1756.0, 1756.0, 1754.0, 1751.0, 1751.0, 1753.0, 1752.0, 1748.0, 1746.0, 1747.0, 1749.0, 1750.0, 1750.0, 1748.0, 1748.0, 1750.0, 1750.0, 1750.0, 1753.0, 1751.0, 1751.0, 1750.0, 1751.0, 1750.0, 1750.0, 1752.0, 1753.0, 1751.0, 1750.0, 1751.0, 1751.0, 1750.0, 1748.0, 1749.0, 1750.0, 1748.0, 1749.0, 1748.0, 1751.0, 1751.0, 1751.0, 1749.0, 1750.0, 1750.0, 1749.0, 1749.0, 1751.0, 1752.0, 1752.0, 1751.0, 1751.0, 1752.0, 1751.0, 1750.0, 1750.0, 1749.0, 1747.0, 1746.0, 1749.0, 1751.0, 1752.0, 1749.0, 1749.0, 1748.0, 1748.0, 1745.0, 1746.0, 1745.0, 1746.0, 1746.0, 1748.0, 1748.0, 1748.0, 1750.0, 1748.0, 1745.0, 1738.0, 1745.0, 1750.0, 1746.0, 1744.0, 1748.0, 1748.0, 1748.0, 1747.0, 1748.0, 1749.0, 1750.0, 1750.0, 1750.0, 1750.0, 1751.0, 1750.0, 1747.0, 1743.0, 1742.0, 1742.0, 1743.0, 1745.0, 1743.0, 1742.0, 1744.0, 1745.0, 1744.0, 1741.0, 1737.0, 1743.0, 1741.0, 1739.0, 1738.0, 1738.0, 1741.0, 1742.0, 1739.0, 1738.0, 1741.0, 1745.0, 1746.0, 1745.0, 1741.0, 1740.0, 1742.0, 1746.0, 1746.0, 1741.0, 1741.0, 1741.0, 1740.0, 1743.0, 1747.0, 1748.0, 1748.0, 1745.0, 1744.0, 1745.0, 1745.0, 1747.0, 1744.0, 1747.0, 1749.0, 1750.0, 1748.0, 1747.0, 1751.0, 1748.0]
    },
    "slices": {}
  }
}