{
  "AcquisitionMatrixPE": 100,
  "AcquisitionNumber": 1,
  "AcquisitionTime": "11:34:2.980000",
  "BandwidthPerPixelPhaseEncode": 18.519,
  "BaseResolution": 100,
  "BodyPartExamined": "BRAIN",
  "ConsistencyInfo": "N4_VE11C_LATEST_20160120",
  "ConversionSoftware": "dcm2niix",
  "ConversionSoftwareVersion": "v1.0.20180622 GCC4.9.2",
  "DerivedVendorReportedEchoSpacing": 0.000539986,
  "DeviceSerialNumber": "166078",
  "DwellTime": 2.1e-06,
  "EchoTime": 0.034,
  "EchoTrainLength": 100,
  "EffectiveEchoSpacing": 0.000539986,
  "FlipAngle": 90,
  "ImageOrientationPatientDICOM": [0.99966, 0.0229397, 0.0124345, -0.0191945, 0.969308, -0.245098],
  "ImageType": [
    "ORIGINAL",
    "PRIMARY",
    "M",
    "ND",
    "MOSAIC"
],
  "InPlanePhaseEncodingDirectionDICOM": "COL",
  "InstitutionAddress": "Street_StreetNo_Bei_Jing_District_CN_ZIP",
  "InstitutionName": "BeiJing_Normal_University",
  "InstitutionalDepartmentName": "Department",
  "MRAcquisitionType": "2D",
  "MagneticFieldStrength": 3,
  "Manufacturer": "Siemens",
  "ManufacturersModelName": "Prisma",
  "Modality": "MR",
  "MultibandAccelerationFactor": 3,
  "PartialFourier": 1,
  "PatientPosition": "HFS",
  "PercentPhaseFOV": 100,
  "PhaseEncodingDirection": "j-",
  "PhaseEncodingSteps": 100,
  "PhaseResolution": 1,
  "PixelBandwidth": 2380,
  "ProcedureStepDescription": "BNU_P2018_64CH_Liu.Jia",
  "ProtocolName": "bold_100x100_s3_2x2x2_232",
  "PulseSequenceDetails": "%SiemensSeq%_ep2d_bold",
  "ReceiveCoilActiveElements": "HC1-7;NC1",
  "ReceiveCoilName": "HeadNeck_64",
  "ReconMatrixPE": 100,
  "RepetitionTime": 2,
  "SAR": 0.0657923,
  "ScanOptions": "FS",
  "ScanningSequence": "EP",
  "SequenceName": "_epfid2d1_100",
  "SequenceVariant": "SK",
  "SeriesDescription": "bold_100x100_s3_2x2x2_232",
  "SeriesNumber": 3,
  "ShimSetting": [-5436, -11490, -1225, 186, 6, -108, -148, 72],
  "SliceThickness": 2,
  "SliceTiming": [1.485, 0, 0.99, 0.0825, 1.0725, 0.165, 1.155, 0.2475, 1.2375, 0.33, 1.32, 0.4125, 1.4025, 0.5775, 1.5675, 0.66, 1.65, 0.7425, 1.7325, 0.825, 1.815, 0.9075, 1.8975, 0.495, 1.485, 0, 0.99, 0.0825, 1.0725, 0.165, 1.155, 0.2475, 1.2375, 0.33, 1.32, 0.4125, 1.4025, 0.5775, 1.5675, 0.66, 1.65, 0.7425, 1.7325, 0.825, 1.815, 0.9075, 1.8975, 0.495, 1.485, 0, 0.99, 0.0825, 1.0725, 0.165, 1.155, 0.2475, 1.2375, 0.33, 1.32, 0.4125, 1.4025, 0.5775, 1.5675, 0.66, 1.65, 0.7425, 1.7325, 0.825, 1.815, 0.9075, 1.8975, 0.495],
  "SoftwareVersions": "syngo_MR_E11",
  "SpacingBetweenSlices": 2,
  "StationName": "AWP166078",
  "TaskName": "motor",
  "TotalReadoutTime": 0.0534586,
  "TxRefAmp": 232.349,
  "dcmmeta_affine": [
    [-1.999319076538086, -0.038388948887586594, 0.035350605845451355, 101.32714080810547],
    [-0.04587933048605919, 1.938616394996643, -0.4895523190498352, -73.4090805053711],
    [0.024868933483958244, 0.4901965856552124, 1.938836932182312, -100.26239776611328],
    [0.0, 0.0, 0.0, 1.0]
],
  "dcmmeta_reorient_transform": [
    [0.0, -1.0, 0.0, 99.0],
    [1.0, 0.0, 0.0, 0.0],
    [0.0, 0.0, 1.0, 0.0],
    [0.0, 0.0, 0.0, 1.0]
],
  "dcmmeta_shape": [100, 100, 72, 232],
  "dcmmeta_slice_dim": 2,
  "dcmmeta_version": 0.6,
  "global": {
    "const": {
      "AcquisitionMatrix": [100, 0, 0, 100],
      "AngioFlag": "N",
      "BitsAllocated": 16,
      "BitsStored": 12,
      "BodyPartExamined": "BRAIN",
      "Columns": 900,
      "EchoNumbers": 1,
      "EchoTime": 34.0,
      "EchoTrainLength": 100,
      "FlipAngle": 90.0,
      "HighBit": 11,
      "ImageOrientationPatient": [0.99965951991891, 0.02293966571363, 0.01243446711502, -0.0191944749304, 0.96930820678242, -0.2450982912964],
      "ImagePositionPatient": [-881.89866991044, -912.31224120652, 134.39812077931],
      "ImageType": [
        "ORIGINAL",
        "PRIMARY",
        "M",
        "ND",
        "MOSAIC"
],
      "ImagedNucleus": "1H",
      "ImagingFrequency": 123.257827,
      "InPlanePhaseEncodingDirection": "COL",
      "MRAcquisitionType": "2D",
      "MagneticFieldStrength": 3.0,
      "Manufacturer": "SIEMENS",
      "ManufacturerModelName": "Prisma",
      "Modality": "MR",
      "NumberOfAverages": 1.0,
      "NumberOfPhaseEncodingSteps": 100,
      "PercentPhaseFieldOfView": 100.0,
      "PercentSampling": 100.0,
      "PerformedProcedureStepStartTime": "113049.675000",
      "PhotometricInterpretation": "MONOCHROME2",
      "PixelBandwidth": 2380.0,
      "PixelRepresentation": 0,
      "PixelSpacing": [2.0, 2.0],
      "ProtocolName": "bold_100x100_s3_2x2x2_232",
      "RepetitionTime": 2000.0,
      "Rows": 900,
      "SAR": 0.06579233756781,
      "SamplesPerPixel": 1,
      "ScanOptions": "FS",
      "ScanningSequence": "EP",
      "SequenceName": "*epfid2d1_100",
      "SequenceVariant": "SK",
      "SeriesDescription": "bold_100x100_s3_2x2x2_232",
      "SeriesNumber": 3,
      "SeriesTime": "113405.286000",
      "SliceLocation": -77.43644314433,
      "SliceThickness": 2.0,
      "SmallestImagePixelValue": 0,
      "SoftwareVersions": "syngo MR E11",
      "SpacingBetweenSlices": 1.9999999335566,
      "SpecificCharacterSet": "ISO_IR 100",
      "StudyID": "1",
      "StudyTime": "113049.570000",
      "TransmitCoilName": "Body",
      "VariableFlipAngleFlag": "N",
      "WindowCenterWidthExplanation": "Algo1",
      "dBdt": 0.0},
    "slices": {}
  },
  "time": {
    "samples": {
      "AcquisitionNumber": [1, 2, 3, 4, 5, 6, 7, 8, 9, 10, 11, 12, 13, 14, 15, 16, 17, 18, 19, 20, 21, 22, 23, 24, 25, 26, 27, 28, 29, 30, 31, 32, 33, 34, 35, 36, 37, 38, 39, 40, 41, 42, 43, 44, 45, 46, 47, 48, 49, 50, 51, 52, 53, 54, 55, 56, 57, 58, 59, 60, 61, 62, 63, 64, 65, 66, 67, 68, 69, 70, 71, 72, 73, 74, 75, 76, 77, 78, 79, 80, 81, 82, 83, 84, 85, 86, 87, 88, 89, 90, 91, 92, 93, 94, 95, 96, 97, 98, 99, 100, 101, 102, 103, 104, 105, 106, 107, 108, 109, 110, 111, 112, 113, 114, 115, 116, 117, 118, 119, 120, 121, 122, 123, 124, 125, 126, 127, 128, 129, 130, 131, 132, 133, 134, 135, 136, 137, 138, 139, 140, 141, 142, 143, 144, 145, 146, 147, 148, 149, 150, 151, 152, 153, 154, 155, 156, 157, 158, 159, 160, 161, 162, 163, 164, 165, 166, 167, 168, 169, 170, 171, 172, 173, 174, 175, 176, 177, 178, 179, 180, 181, 182, 183, 184, 185, 186, 187, 188, 189, 190, 191, 192, 193, 194, 195, 196, 197, 198, 199, 200, 201, 202, 203, 204, 205, 206, 207, 208, 209, 210, 211, 212, 213, 214, 215, 216, 217, 218, 219, 220, 221, 222, 223, 224, 225, 226, 227, 228, 229, 230, 231, 232],
      "AcquisitionTime": ["113402.980000", "113404.980000", "113406.980000", "113408.980000", "113410.980000", "113412.980000", "113414.980000", "113416.980000", "113418.980000", "113420.980000", "113422.980000", "113424.980000", "113426.980000", "113428.980000", "113430.980000", "113432.980000", "113434.980000", "113436.980000", "113438.980000", "113440.980000", "113442.980000", "113444.980000", "113446.980000", "113448.980000", "113450.980000", "113452.980000", "113454.980000", "113456.980000", "113458.980000", "113500.980000", "113502.980000", "113504.980000", "113506.980000", "113508.980000", "113510.980000", "113512.980000", "113514.980000", "113516.980000", "113518.980000", "113520.980000", "113522.980000", "113524.980000", "113526.980000", "113528.980000", "113530.980000", "113532.980000", "113534.980000", "113536.980000", "113538.980000", "113540.980000", "113542.980000", "113544.980000", "113546.980000", "113548.980000", "113550.980000", "113552.980000", "113554.980000", "113556.980000", "113558.980000", "113600.980000", "113602.980000", "113604.980000", "113606.980000", "113608.980000", "113610.980000", "113612.980000", "113614.980000", "113616.980000", "113618.980000", "113620.980000", "113622.980000", "113624.980000", "113626.980000", "113628.980000", "113630.980000", "113632.980000", "113634.980000", "113636.980000", "113638.980000", "113640.980000", "113642.980000", "113644.980000", "113646.980000", "113648.980000", "113650.980000", "113652.980000", "113654.980000", "113656.980000", "113658.980000", "113700.980000", "113702.980000", "113704.980000", "113706.980000", "113708.980000", "113710.980000", "113712.980000", "113714.980000", "113716.980000", "113718.980000", "113720.980000", "113722.980000", "113724.980000", "113726.980000", "113728.980000", "113730.980000", "113732.980000", "113734.980000", "113736.980000", "113738.980000", "113740.980000", "113742.980000", "113744.980000", "113746.980000", "113748.980000", "113750.980000", "113752.980000", "113754.980000", "113756.980000", "113758.980000", "113800.980000", "113802.980000", "113804.980000", "113806.980000", "113808.980000", "113810.980000", "113812.980000", "113814.980000", "113816.980000", "113818.980000", "113820.980000", "113822.980000", "113824.980000", "113826.980000", "113828.980000", "113830.980000", "113832.980000", "113834.980000", "113836.980000", "113838.980000", "113840.980000", "113842.980000", "113844.980000", "113846.980000", "113848.980000", "113850.980000", "113852.980000", "113854.980000", "113856.980000", "113858.980000", "113900.980000", "113902.980000", "113904.980000", "113906.980000", "113908.980000", "113910.980000", "113912.980000", "113914.980000", "113916.980000", "113918.980000", "113920.980000", "113922.980000", "113924.980000", "113926.980000", "113928.980000", "113930.980000", "113932.980000", "113934.980000", "113936.980000", "113938.980000", "113940.980000", "113942.980000", "113944.980000", "113946.980000", "113948.980000", "113950.980000", "113952.980000", "113954.980000", "113956.980000", "113958.980000", "114000.980000", "114002.980000", "114004.980000", "114006.980000", "114008.980000", "114010.980000", "114012.980000", "114014.980000", "114016.980000", "114018.980000", "114020.980000", "114022.980000", "114024.980000", "114026.980000", "114028.980000", "114030.980000", "114032.980000", "114034.980000", "114036.980000", "114038.980000", "114040.980000", "114042.980000", "114044.980000", "114046.980000", "114048.980000", "114050.980000", "114052.980000", "114054.980000", "114056.980000", "114058.980000", "114100.980000", "114102.980000", "114104.980000", "114106.980000", "114108.980000", "114110.980000", "114112.980000", "114114.980000", "114116.980000", "114118.980000", "114120.980000", "114122.980000", "114124.980000", "114126.980000", "114128.980000", "114130.980000", "114132.980000", "114134.980000", "114136.980000", "114138.980000", "114140.980000", "114142.980000", "114144.980000"],
      "ContentTime": ["113405.289000", "113406.785000", "113408.786000", "113410.785000", "113412.785000", "113414.785000", "113416.784000", "113418.784000", "113420.785000", "113422.785000", "113424.785000", "113427.285000", "113428.785000", "113430.805000", "113432.786000", "113434.785000", "113436.784000", "113438.785000", "113440.785000", "113442.785000", "113445.286000", "113446.785000", "113448.785000", "113450.785000", "113452.785000", "113454.784000", "113456.786000", "113458.785000", "113500.785000", "113502.785000", "113504.786000", "113506.785000", "113508.784000", "113510.784000", "113512.804000", "113514.786000", "113516.805000", "113518.785000", "113520.785000", "113522.785000", "113524.786000", "113526.784000", "113528.785000", "113530.805000", "113532.786000", "113534.785000", "113536.785000", "113538.805000", "113540.785000", "113542.785000", "113544.784000", "113546.784000", "113548.786000", "113550.785000", "113552.786000", "113554.786000", "113556.785000", "113558.785000", "113600.805000", "113602.785000", "113604.784000", "113606.785000", "113608.785000", "113610.785000", "113612.785000", "113614.785000", "113616.785000", "113618.784000", "113620.784000", "113622.784000", "113624.785000", "113626.785000", "113628.785000", "113630.805000", "113632.806000", "113634.785000", "113637.285000", "113638.784000", "113640.785000", "113642.786000", "113644.785000", "113646.785000", "113648.785000", "113650.785000", "113652.785000", "113654.784000", "113656.785000", "113658.786000", "113700.785000", "113702.786000", "113704.805000", "113706.785000", "113708.785000", "113711.284000", "113712.804000", "113714.784000", "113716.785000", "113718.785000", "113720.785000", "113722.785000", "113724.805000", "113726.785000", "113728.785000", "113730.784000", "113732.784000", "113734.786000", "113736.785000", "113738.785000", "113740.786000", "113742.785000", "113744.785000", "113746.784000", "113748.784000", "113750.806000", "113752.785000", "113754.785000", "113756.785000", "113758.805000", "113800.786000", "113802.785000", "113804.784000", "113806.784000", "113808.785000", "113810.785000", "113812.785000", "113815.285000", "113816.785000", "113818.785000", "113820.785000", "113822.784000", "113824.784000", "113826.785000", "113828.785000", "113830.785000", "113832.785000", "113834.785000", "113836.785000", "113838.784000", "113840.804000", "113842.804000", "113844.785000", "113847.285000", "113848.785000", "113850.785000", "113852.786000", "113854.785000", "113856.785000", "113858.784000", "113900.785000", "113902.786000", "113904.785000", "113906.785000", "113908.785000", "113910.785000", "113912.795000", "113914.784000", "113916.784000", "113918.785000", "113920.786000", "113922.785000", "113924.785000", "113926.786000", "113929.285000", "113931.285000", "113932.785000", "113934.784000", "113936.786000", "113938.786000", "113940.785000", "113942.786000", "113944.785000", "113946.785000", "113948.784000", "113950.784000", "113952.785000", "113954.785000", "113956.785000", "113958.786000", "114000.786000", "114002.785000", "114004.785000", "114006.784000", "114008.784000", "114010.786000", "114012.785000", "114014.785000", "114016.785000", "114018.786000", "114020.786000", "114022.785000", "114024.784000", "114026.784000", "114028.805000", "114030.785000", "114032.785000", "114034.785000", "114036.785000", "114038.785000", "114040.785000", "114042.784000", "114044.784000", "114046.786000", "114048.785000", "114050.786000", "114052.785000", "114054.785000", "114056.785000", "114058.785000", "114100.784000", "114102.785000", "114104.786000", "114106.786000", "114108.785000", "114110.785000", "114112.785000", "114114.785000", "114116.785000", "114119.284000", "114120.785000", "114122.785000", "114124.786000", "114126.785000", "114128.806000", "114130.785000", "114133.286000", "114134.784000", "114136.785000", "114138.785000", "114140.785000", "114142.786000", "114144.785000", "114146.698000"],
      "InstanceCreationTime": ["113405.289000", "113406.785000", "113408.786000", "113410.785000", "113412.785000", "113414.785000", "113416.784000", "113418.784000", "113420.785000", "113422.785000", "113424.785000", "113427.285000", "113428.785000", "113430.805000", "113432.786000", "113434.785000", "113436.784000", "113438.785000", "113440.785000", "113442.785000", "113445.286000", "113446.785000", "113448.785000", "113450.785000", "113452.785000", "113454.784000", "113456.786000", "113458.785000", "113500.785000", "113502.785000", "113504.786000", "113506.785000", "113508.784000", "113510.784000", "113512.804000", "113514.786000", "113516.805000", "113518.785000", "113520.785000", "113522.785000", "113524.786000", "113526.784000", "113528.785000", "113530.805000", "113532.786000", "113534.785000", "113536.785000", "113538.805000", "113540.785000", "113542.785000", "113544.784000", "113546.784000", "113548.786000", "113550.785000", "113552.786000", "113554.786000", "113556.785000", "113558.785000", "113600.805000", "113602.785000", "113604.784000", "113606.785000", "113608.785000", "113610.785000", "113612.785000", "113614.785000", "113616.785000", "113618.784000", "113620.784000", "113622.784000", "113624.785000", "113626.785000", "113628.785000", "113630.805000", "113632.806000", "113634.785000", "113637.285000", "113638.784000", "113640.785000", "113642.786000", "113644.785000", "113646.785000", "113648.785000", "113650.785000", "113652.785000", "113654.784000", "113656.785000", "113658.786000", "113700.785000", "113702.786000", "113704.805000", "113706.785000", "113708.785000", "113711.284000", "113712.804000", "113714.784000", "113716.785000", "113718.785000", "113720.785000", "113722.785000", "113724.805000", "113726.785000", "113728.785000", "113730.784000", "113732.784000", "113734.786000", "113736.785000", "113738.785000", "113740.786000", "113742.785000", "113744.785000", "113746.784000", "113748.784000", "113750.806000", "113752.785000", "113754.785000", "113756.785000", "113758.805000", "113800.786000", "113802.785000", "113804.784000", "113806.784000", "113808.785000", "113810.785000", "113812.785000", "113815.285000", "113816.785000", "113818.785000", "113820.785000", "113822.784000", "113824.784000", "113826.785000", "113828.785000", "113830.785000", "113832.785000", "113834.785000", "113836.785000", "113838.784000", "113840.804000", "113842.804000", "113844.785000", "113847.285000", "113848.785000", "113850.785000", "113852.786000", "113854.785000", "113856.785000", "113858.784000", "113900.785000", "113902.786000", "113904.785000", "113906.785000", "113908.785000", "113910.785000", "113912.795000", "113914.784000", "113916.784000", "113918.785000", "113920.786000", "113922.785000", "113924.785000", "113926.786000", "113929.285000", "113931.285000", "113932.785000", "113934.784000", "113936.786000", "113938.786000", "113940.785000", "113942.786000", "113944.785000", "113946.785000", "113948.784000", "113950.784000", "113952.785000", "113954.785000", "113956.785000", "113958.786000", "114000.786000", "114002.785000", "114004.785000", "114006.784000", "114008.784000", "114010.786000", "114012.785000", "114014.785000", "114016.785000", "114018.786000", "114020.786000", "114022.785000", "114024.784000", "114026.784000", "114028.805000", "114030.785000", "114032.785000", "114034.785000", "114036.785000", "114038.785000", "114040.785000", "114042.784000", "114044.784000", "114046.786000", "114048.785000", "114050.786000", "114052.785000", "114054.785000", "114056.785000", "114058.785000", "114100.784000", "114102.785000", "114104.786000", "114106.786000", "114108.785000", "114110.785000", "114112.785000", "114114.785000", "114116.785000", "114119.284000", "114120.785000", "114122.785000", "114124.786000", "114126.785000", "114128.806000", "114130.785000", "114133.286000", "114134.784000", "114136.785000", "114138.785000", "114140.785000", "114142.786000", "114144.785000", "114146.698000"],
      "InstanceNumber": [1, 2, 3, 4, 5, 6, 7, 8, 9, 10, 11, 12, 13, 14, 15, 16, 17, 18, 19, 20, 21, 22, 23, 24, 25, 26, 27, 28, 29, 30, 31, 32, 33, 34, 35, 36, 37, 38, 39, 40, 41, 42, 43, 44, 45, 46, 47, 48, 49, 50, 51, 52, 53, 54, 55, 56, 57, 58, 59, 60, 61, 62, 63, 64, 65, 66, 67, 68, 69, 70, 71, 72, 73, 74, 75, 76, 77, 78, 79, 80, 81, 82, 83, 84, 85, 86, 87, 88, 89, 90, 91, 92, 93, 94, 95, 96, 97, 98, 99, 100, 101, 102, 103, 104, 105, 106, 107, 108, 109, 110, 111, 112, 113, 114, 115, 116, 117, 118, 119, 120, 121, 122, 123, 124, 125, 126, 127, 128, 129, 130, 131, 132, 133, 134, 135, 136, 137, 138, 139, 140, 141, 142, 143, 144, 145, 146, 147, 148, 149, 150, 151, 152, 153, 154, 155, 156, 157, 158, 159, 160, 161, 162, 163, 164, 165, 166, 167, 168, 169, 170, 171, 172, 173, 174, 175, 176, 177, 178, 179, 180, 181, 182, 183, 184, 185, 186, 187, 188, 189, 190, 191, 192, 193, 194, 195, 196, 197, 198, 199, 200, 201, 202, 203, 204, 205, 206, 207, 208, 209, 210, 211, 212, 213, 214, 215, 216, 217, 218, 219, 220, 221, 222, 223, 224, 225, 226, 227, 228, 229, 230, 231, 232],
      "LargestImagePixelValue": [4095, 4095, 4095, 4095, 4095, 4095, 4095, 4095, 4095, 4095, 4095, 4095, 4095, 4095, 4095, 4095, 4095, 4095, 4095, 4095, 4095, 4080, 4077, 4095, 4095, 4095, 4095, 4095, 4095, 4095, 4095, 4095, 4095, 4095, 4095, 4095, 4095, 4095, 4095, 4095, 4095, 4055, 4095, 3998, 4093, 4095, 4095, 3988, 4095, 4095, 4095, 4095, 4095, 4095, 4095, 4095, 3989, 4095, 4095, 4095, 4095, 4095, 4095, 4095, 4095, 4095, 4084, 4095, 4095, 4095, 4095, 4095, 4095, 4095, 4095, 4095, 4095, 4095, 4095, 4095, 4095, 4095, 4095, 4095, 4095, 4095, 4095, 4095, 4095, 4095, 4095, 4095, 4095, 4095, 4095, 4095, 4095, 4095, 4095, 4095, 4095, 4095, 4095, 4095, 4095, 4080, 4095, 4095, 4045, 4095, 4095, 4095, 4031, 4069, 4095, 4046, 4095, 4095, 4095, 4028, 4057, 4084, 4030, 4081, 4037, 4067, 3994, 4002, 4055, 4007, 4095, 4095, 4007, 4095, 4095, 4095, 4095, 4095, 4016, 4041, 4095, 4049, 4095, 4037, 4036, 4084, 4073, 4093, 4004, 4061, 4012, 4095, 4030, 4095, 4095, 4095, 4095, 4095, 4095, 4084, 4064, 4095, 4095, 4095, 4095, 4095, 4095, 4095, 4095, 4095, 4095, 4095, 4095, 4095, 4069, 4095, 4095, 4048, 3921, 3923, 3895, 3928, 3918, 3937, 4095, 4095, 4078, 4075, 4089, 4073, 4003, 4095, 4095, 4095, 4095, 4092, 4095, 4095, 4056, 4094, 4095, 4075, 4095, 4047, 4036, 4095, 4095, 4046, 4095, 4083, 4095, 4093, 4052, 3982, 4095, 4095, 4064, 4095, 4055, 4095, 4064, 4095, 4095, 4095, 4095, 4095, 4055, 4095, 4095, 4018, 4046, 4031],
      "WindowCenter": [832.0, 829.0, 829.0, 830.0, 829.0, 829.0, 829.0, 830.0, 830.0, 834.0, 837.0, 837.0, 835.0, 833.0, 834.0, 834.0, 834.0, 834.0, 834.0, 832.0, 831.0, 831.0, 831.0, 833.0, 833.0, 833.0, 833.0, 832.0, 832.0, 831.0, 832.0, 832.0, 833.0, 834.0, 835.0, 835.0, 834.0, 832.0, 831.0, 832.0, 832.0, 828.0, 833.0, 833.0, 834.0, 834.0, 833.0, 831.0, 832.0, 831.0, 833.0, 833.0, 834.0, 832.0, 832.0, 829.0, 828.0, 831.0, 832.0, 831.0, 831.0, 831.0, 831.0, 831.0, 830.0, 831.0, 831.0, 831.0, 830.0, 830.0, 830.0, 831.0, 830.0, 831.0, 833.0, 832.0, 830.0, 828.0, 828.0, 828.0, 829.0, 830.0, 831.0, 830.0, 830.0, 829.0, 830.0, 830.0, 831.0, 832.0, 832.0, 832.0, 830.0, 829.0, 828.0, 829.0, 829.0, 830.0, 830.0, 829.0, 828.0, 828.0, 828.0, 828.0, 828.0, 829.0, 829.0, 830.0, 825.0, 823.0, 826.0, 828.0, 829.0, 830.0, 831.0, 830.0, 831.0, 831.0, 830.0, 828.0, 828.0, 825.0, 829.0, 828.0, 826.0, 824.0, 824.0, 825.0, 828.0, 829.0, 831.0, 830.0, 829.0, 829.0, 829.0, 829.0, 829.0, 829.0, 828.0, 827.0, 826.0, 825.0, 825.0, 825.0, 826.0, 827.0, 828.0, 827.0, 826.0, 826.0, 827.0, 828.0, 826.0, 829.0, 831.0, 831.0, 829.0, 827.0, 827.0, 827.0, 827.0, 830.0, 830.0, 829.0, 827.0, 827.0, 828.0, 828.0, 828.0, 827.0, 829.0, 827.0, 826.0, 826.0, 826.0, 826.0, 826.0, 825.0, 825.0, 825.0, 823.0, 822.0, 822.0, 824.0, 825.0, 826.0, 826.0, 827.0, 826.0, 825.0, 824.0, 824.0, 823.0, 829.0, 830.0, 831.0, 830.0, 829.0, 827.0, 827.0, 828.0, 829.0, 830.0, 829.0, 828.0, 828.0, 828.0, 827.0, 828.0, 830.0, 831.0, 830.0, 828.0, 826.0, 827.0, 828.0, 829.0, 829.0, 828.0, 829.0, 828.0, 828.0, 827.0, 827.0, 826.0, 828.0, 827.0, 827.0, 826.0, 824.0, 823.0, 822.0],
      "WindowWidth": [1822.0, 1813.0, 1815.0, 1815.0, 1814.0, 1812.0, 1813.0, 1815.0, 1817.0, 1826.0, 1836.0, 1835.0, 1829.0, 1825.0, 1826.0, 1828.0, 1828.0, 1828.0, 1828.0, 1823.0, 1820.0, 1819.0, 1821.0, 1825.0, 1825.0, 1825.0, 1824.0, 1822.0, 1821.0, 1818.0, 1821.0, 1822.0, 1824.0, 1827.0, 1830.0, 1831.0, 1826.0, 1821.0, 1820.0, 1822.0, 1821.0, 1812.0, 1824.0, 1825.0, 1826.0, 1827.0, 1823.0, 1819.0, 1822.0, 1820.0, 1825.0, 1825.0, 1828.0, 1822.0, 1820.0, 1814.0, 1810.0, 1819.0, 1819.0, 1817.0, 1819.0, 1817.0, 1819.0, 1818.0, 1816.0, 1816.0, 1818.0, 1818.0, 1814.0, 1814.0, 1814.0, 1818.0, 1816.0, 1818.0, 1823.0, 1822.0, 1816.0, 1809.0, 1811.0, 1811.0, 1812.0, 1815.0, 1817.0, 1816.0, 1814.0, 1814.0, 1814.0, 1816.0, 1819.0, 1820.0, 1821.0, 1822.0, 1815.0, 1811.0, 1808.0, 1811.0, 1811.0, 1814.0, 1814.0, 1812.0, 1808.0, 1809.0, 1811.0, 1809.0, 1808.0, 1812.0, 1813.0, 1815.0, 1800.0, 1796.0, 1805.0, 1809.0, 1810.0, 1815.0, 1818.0, 1815.0, 1817.0, 1816.0, 1815.0, 1809.0, 1809.0, 1801.0, 1811.0, 1808.0, 1802.0, 1798.0, 1796.0, 1800.0, 1809.0, 1812.0, 1817.0, 1815.0, 1810.0, 1813.0, 1811.0, 1813.0, 1812.0, 1811.0, 1807.0, 1807.0, 1802.0, 1799.0, 1801.0, 1800.0, 1801.0, 1805.0, 1807.0, 1804.0, 1802.0, 1803.0, 1805.0, 1807.0, 1803.0, 1812.0, 1817.0, 1816.0, 1811.0, 1807.0, 1806.0, 1805.0, 1805.0, 1812.0, 1813.0, 1810.0, 1805.0, 1805.0, 1809.0, 1809.0, 1808.0, 1806.0, 1810.0, 1807.0, 1802.0, 1802.0, 1803.0, 1804.0, 1803.0, 1799.0, 1798.0, 1799.0, 1795.0, 1791.0, 1792.0, 1796.0, 1799.0, 1802.0, 1801.0, 1806.0, 1801.0, 1798.0, 1796.0, 1797.0, 1794.0, 1810.0, 1814.0, 1816.0, 1812.0, 1809.0, 1805.0, 1806.0, 1809.0, 1811.0, 1813.0, 1809.0, 1806.0, 1808.0, 1808.0, 1805.0, 1807.0, 1813.0, 1815.0, 1812.0, 1807.0, 1801.0, 1804.0, 1808.0, 1809.0, 1809.0, 1808.0, 1810.0, 1808.0, 1809.0, 1805.0, 1806.0, 1803.0, 1806.0, 1804.0, 1804.0, 1802.0, 1794.0, 1792.0, 1790.0]
    },
    "slices": {}
  }
}