{
  "AcquisitionMatrixPE": 100,
  "AcquisitionNumber": 1,
  "AcquisitionTime": "11:51:19.252500",
  "BandwidthPerPixelPhaseEncode": 18.519,
  "BaseResolution": 100,
  "BodyPartExamined": "BRAIN",
  "ConsistencyInfo": "N4_VE11C_LATEST_20160120",
  "ConversionSoftware": "dcm2niix",
  "ConversionSoftwareVersion": "v1.0.20180622 GCC4.9.2",
  "DerivedVendorReportedEchoSpacing": 0.000539986,
  "DeviceSerialNumber": "166078",
  "DwellTime": 2.1e-06,
  "EchoTime": 0.034,
  "EchoTrainLength": 100,
  "EffectiveEchoSpacing": 0.000539986,
  "FlipAngle": 90,
  "ImageOrientationPatientDICOM": [0.99966, 0.0229397, 0.0124345, -0.0191945, 0.969308, -0.245098],
  "ImageType": [
    "ORIGINAL",
    "PRIMARY",
    "M",
    "ND",
    "MOSAIC"
],
  "InPlanePhaseEncodingDirectionDICOM": "COL",
  "InstitutionAddress": "Street_StreetNo_Bei_Jing_District_CN_ZIP",
  "InstitutionName": "BeiJing_Normal_University",
  "InstitutionalDepartmentName": "Department",
  "MRAcquisitionType": "2D",
  "MagneticFieldStrength": 3,
  "Manufacturer": "Siemens",
  "ManufacturersModelName": "Prisma",
  "Modality": "MR",
  "MultibandAccelerationFactor": 3,
  "PartialFourier": 1,
  "PatientPosition": "HFS",
  "PercentPhaseFOV": 100,
  "PhaseEncodingDirection": "j-",
  "PhaseEncodingSteps": 100,
  "PhaseResolution": 1,
  "PixelBandwidth": 2380,
  "ProcedureStepDescription": "BNU_P2018_64CH_Liu.Jia",
  "ProtocolName": "bold_100x100_s3_2x2x2_232",
  "PulseSequenceDetails": "%SiemensSeq%_ep2d_bold",
  "ReceiveCoilActiveElements": "HC1-7;NC1",
  "ReceiveCoilName": "HeadNeck_64",
  "ReconMatrixPE": 100,
  "RepetitionTime": 2,
  "SAR": 0.0657923,
  "ScanOptions": "FS",
  "ScanningSequence": "EP",
  "SequenceName": "_epfid2d1_100",
  "SequenceVariant": "SK",
  "SeriesDescription": "bold_100x100_s3_2x2x2_232",
  "SeriesNumber": 5,
  "ShimSetting": [-5436, -11490, -1225, 186, 6, -108, -148, 72],
  "SliceThickness": 2,
  "SliceTiming": [1.485, 0, 0.99, 0.0825, 1.0725, 0.165, 1.155, 0.2475, 1.2375, 0.33, 1.32, 0.4125, 1.4025, 0.5775, 1.5675, 0.66, 1.65, 0.7425, 1.7325, 0.825, 1.815, 0.9075, 1.8975, 0.495, 1.485, 0, 0.99, 0.0825, 1.0725, 0.165, 1.155, 0.2475, 1.2375, 0.33, 1.32, 0.4125, 1.4025, 0.5775, 1.5675, 0.66, 1.65, 0.7425, 1.7325, 0.825, 1.815, 0.9075, 1.8975, 0.495, 1.485, 0, 0.99, 0.0825, 1.0725, 0.165, 1.155, 0.2475, 1.2375, 0.33, 1.32, 0.4125, 1.4025, 0.5775, 1.5675, 0.66, 1.65, 0.7425, 1.7325, 0.825, 1.815, 0.9075, 1.8975, 0.495],
  "SoftwareVersions": "syngo_MR_E11",
  "SpacingBetweenSlices": 2,
  "StationName": "AWP166078",
  "TaskName": "motor",
  "TotalReadoutTime": 0.0534586,
  "TxRefAmp": 232.349,
  "dcmmeta_affine": [
    [-1.999319076538086, -0.038388948887586594, 0.035350605845451355, 101.32714080810547],
    [-0.04587933048605919, 1.938616394996643, -0.4895523190498352, -73.4090805053711],
    [0.024868933483958244, 0.4901965856552124, 1.938836932182312, -100.26239776611328],
    [0.0, 0.0, 0.0, 1.0]
],
  "dcmmeta_reorient_transform": [
    [0.0, -1.0, 0.0, 99.0],
    [1.0, 0.0, 0.0, 0.0],
    [0.0, 0.0, 1.0, 0.0],
    [0.0, 0.0, 0.0, 1.0]
],
  "dcmmeta_shape": [100, 100, 72, 232],
  "dcmmeta_slice_dim": 2,
  "dcmmeta_version": 0.6,
  "global": {
    "const": {
      "AcquisitionMatrix": [100, 0, 0, 100],
      "AngioFlag": "N",
      "BitsAllocated": 16,
      "BitsStored": 12,
      "BodyPartExamined": "BRAIN",
      "Columns": 900,
      "EchoNumbers": 1,
      "EchoTime": 34.0,
      "EchoTrainLength": 100,
      "FlipAngle": 90.0,
      "HighBit": 11,
      "ImageOrientationPatient": [0.99965951991891, 0.02293966571363, 0.01243446711502, -0.0191944749304, 0.96930820678242, -0.2450982912964],
      "ImagePositionPatient": [-881.89866991044, -912.31224120652, 134.39812077931],
      "ImageType": [
        "ORIGINAL",
        "PRIMARY",
        "M",
        "ND",
        "MOSAIC"
],
      "ImagedNucleus": "1H",
      "ImagingFrequency": 123.257839,
      "InPlanePhaseEncodingDirection": "COL",
      "MRAcquisitionType": "2D",
      "MagneticFieldStrength": 3.0,
      "Manufacturer": "SIEMENS",
      "ManufacturerModelName": "Prisma",
      "Modality": "MR",
      "NumberOfAverages": 1.0,
      "NumberOfPhaseEncodingSteps": 100,
      "PercentPhaseFieldOfView": 100.0,
      "PercentSampling": 100.0,
      "PerformedProcedureStepStartTime": "113049.675000",
      "PhotometricInterpretation": "MONOCHROME2",
      "PixelBandwidth": 2380.0,
      "PixelRepresentation": 0,
      "PixelSpacing": [2.0, 2.0],
      "ProtocolName": "bold_100x100_s3_2x2x2_232",
      "RepetitionTime": 2000.0,
      "Rows": 900,
      "SAR": 0.06579233756781,
      "SamplesPerPixel": 1,
      "ScanOptions": "FS",
      "ScanningSequence": "EP",
      "SequenceName": "*epfid2d1_100",
      "SequenceVariant": "SK",
      "SeriesDescription": "bold_100x100_s3_2x2x2_232",
      "SeriesNumber": 5,
      "SeriesTime": "115121.817000",
      "SliceLocation": -77.43644314433,
      "SliceThickness": 2.0,
      "SmallestImagePixelValue": 0,
      "SoftwareVersions": "syngo MR E11",
      "SpacingBetweenSlices": 1.9999999335566,
      "SpecificCharacterSet": "ISO_IR 100",
      "StudyID": "1",
      "StudyTime": "113049.570000",
      "TransmitCoilName": "Body",
      "VariableFlipAngleFlag": "N",
      "WindowCenterWidthExplanation": "Algo1",
      "dBdt": 0.0},
    "slices": {}
  },
  "time": {
    "samples": {
      "AcquisitionNumber": [1, 2, 3, 4, 5, 6, 7, 8, 9, 10, 11, 12, 13, 14, 15, 16, 17, 18, 19, 20, 21, 22, 23, 24, 25, 26, 27, 28, 29, 30, 31, 32, 33, 34, 35, 36, 37, 38, 39, 40, 41, 42, 43, 44, 45, 46, 47, 48, 49, 50, 51, 52, 53, 54, 55, 56, 57, 58, 59, 60, 61, 62, 63, 64, 65, 66, 67, 68, 69, 70, 71, 72, 73, 74, 75, 76, 77, 78, 79, 80, 81, 82, 83, 84, 85, 86, 87, 88, 89, 90, 91, 92, 93, 94, 95, 96, 97, 98, 99, 100, 101, 102, 103, 104, 105, 106, 107, 108, 109, 110, 111, 112, 113, 114, 115, 116, 117, 118, 119, 120, 121, 122, 123, 124, 125, 126, 127, 128, 129, 130, 131, 132, 133, 134, 135, 136, 137, 138, 139, 140, 141, 142, 143, 144, 145, 146, 147, 148, 149, 150, 151, 152, 153, 154, 155, 156, 157, 158, 159, 160, 161, 162, 163, 164, 165, 166, 167, 168, 169, 170, 171, 172, 173, 174, 175, 176, 177, 178, 179, 180, 181, 182, 183, 184, 185, 186, 187, 188, 189, 190, 191, 192, 193, 194, 195, 196, 197, 198, 199, 200, 201, 202, 203, 204, 205, 206, 207, 208, 209, 210, 211, 212, 213, 214, 215, 216, 217, 218, 219, 220, 221, 222, 223, 224, 225, 226, 227, 228, 229, 230, 231, 232],
      "AcquisitionTime": ["115119.252500", "115121.252500", "115123.252500", "115125.252500", "115127.252500", "115129.252500", "115131.252500", "115133.252500", "115135.252500", "115137.252500", "115139.252500", "115141.252500", "115143.252500", "115145.252500", "115147.252500", "115149.252500", "115151.252500", "115153.252500", "115155.252500", "115157.252500", "115159.252500", "115201.252500", "115203.252500", "115205.252500", "115207.252500", "115209.252500", "115211.252500", "115213.252500", "115215.252500", "115217.252500", "115219.252500", "115221.252500", "115223.252500", "115225.252500", "115227.252500", "115229.252500", "115231.252500", "115233.252500", "115235.252500", "115237.252500", "115239.252500", "115241.252500", "115243.252500", "115245.252500", "115247.252500", "115249.252500", "115251.252500", "115253.252500", "115255.252500", "115257.252500", "115259.252500", "115301.252500", "115303.252500", "115305.252500", "115307.252500", "115309.252500", "115311.252500", "115313.252500", "115315.252500", "115317.252500", "115319.252500", "115321.252500", "115323.252500", "115325.252500", "115327.252500", "115329.252500", "115331.252500", "115333.252500", "115335.252500", "115337.252500", "115339.252500", "115341.252500", "115343.252500", "115345.252500", "115347.252500", "115349.252500", "115351.252500", "115353.252500", "115355.252500", "115357.252500", "115359.252500", "115401.252500", "115403.252500", "115405.252500", "115407.252500", "115409.252500", "115411.252500", "115413.252500", "115415.252500", "115417.252500", "115419.252500", "115421.252500", "115423.252500", "115425.252500", "115427.252500", "115429.252500", "115431.252500", "115433.252500", "115435.252500", "115437.252500", "115439.252500", "115441.252500", "115443.252500", "115445.252500", "115447.252500", "115449.252500", "115451.252500", "115453.252500", "115455.252500", "115457.252500", "115459.252500", "115501.252500", "115503.252500", "115505.252500", "115507.252500", "115509.252500", "115511.252500", "115513.252500", "115515.252500", "115517.252500", "115519.252500", "115521.252500", "115523.252500", "115525.252500", "115527.252500", "115529.252500", "115531.252500", "115533.252500", "115535.252500", "115537.252500", "115539.252500", "115541.252500", "115543.252500", "115545.252500", "115547.252500", "115549.252500", "115551.252500", "115553.252500", "115555.252500", "115557.252500", "115559.252500", "115601.252500", "115603.252500", "115605.252500", "115607.252500", "115609.252500", "115611.252500", "115613.252500", "115615.252500", "115617.252500", "115619.252500", "115621.252500", "115623.252500", "115625.252500", "115627.252500", "115629.252500", "115631.252500", "115633.252500", "115635.252500", "115637.252500", "115639.252500", "115641.252500", "115643.252500", "115645.252500", "115647.252500", "115649.252500", "115651.252500", "115653.252500", "115655.252500", "115657.252500", "115659.252500", "115701.252500", "115703.252500", "115705.252500", "115707.252500", "115709.252500", "115711.252500", "115713.252500", "115715.252500", "115717.252500", "115719.252500", "115721.252500", "115723.252500", "115725.252500", "115727.252500", "115729.252500", "115731.252500", "115733.252500", "115735.252500", "115737.252500", "115739.252500", "115741.252500", "115743.252500", "115745.252500", "115747.252500", "115749.252500", "115751.252500", "115753.252500", "115755.252500", "115757.252500", "115759.252500", "115801.252500", "115803.252500", "115805.252500", "115807.252500", "115809.252500", "115811.252500", "115813.252500", "115815.252500", "115817.252500", "115819.252500", "115821.252500", "115823.252500", "115825.252500", "115827.252500", "115829.252500", "115831.252500", "115833.252500", "115835.252500", "115837.252500", "115839.252500", "115841.252500", "115843.252500", "115845.252500", "115847.252500", "115849.252500", "115851.252500", "115853.252500", "115855.252500", "115857.252500", "115859.252500", "115901.252500"],
      "ContentTime": ["115121.821000", "115123.316000", "115125.315000", "115127.316000", "115129.315000", "115131.315000", "115133.317000", "115135.316000", "115137.316000", "115139.316000", "115141.317000", "115143.315000", "115145.315000", "115147.315000", "115149.315000", "115151.316000", "115153.316000", "115155.317000", "115157.316000", "115159.315000", "115201.315000", "115203.315000", "115205.316000", "115207.317000", "115209.316000", "115211.316000", "115213.316000", "115215.316000", "115217.315000", "115219.315000", "115221.315000", "115223.316000", "115225.316000", "115227.316000", "115229.316000", "115231.317000", "115233.316000", "115235.315000", "115237.316000", "115239.315000", "115241.315000", "115243.316000", "115245.317000", "115247.316000", "115249.316000", "115251.317000", "115253.315000", "115255.315000", "115257.315000", "115259.315000", "115301.316000", "115303.316000", "115305.316000", "115307.316000", "115309.316000", "115311.315000", "115313.315000", "115315.315000", "115317.316000", "115319.317000", "115321.317000", "115323.317000", "115325.317000", "115327.315000", "115329.315000", "115331.316000", "115333.316000", "115335.316000", "115337.317000", "115339.316000", "115341.316000", "115343.317000", "115345.315000", "115347.315000", "115349.315000", "115351.315000", "115353.316000", "115355.316000", "115357.316000", "115359.316000", "115401.316000", "115403.316000", "115405.315000", "115407.316000", "115409.315000", "115411.316000", "115413.317000", "115415.317000", "115417.316000", "115419.316000", "115421.316000", "115423.315000", "115425.316000", "115427.317000", "115429.316000", "115431.316000", "115433.316000", "115435.316000", "115437.316000", "115439.316000", "115441.315000", "115443.315000", "115445.316000", "115447.316000", "115449.316000", "115451.316000", "115453.316000", "115455.315000", "115457.315000", "115459.315000", "115501.315000", "115503.316000", "115505.316000", "115507.316000", "115509.316000", "115511.316000", "115513.315000", "115515.316000", "115517.316000", "115519.316000", "115521.316000", "115523.317000", "115525.317000", "115527.317000", "115529.316000", "115531.315000", "115533.315000", "115535.315000", "115537.316000", "115539.316000", "115541.316000", "115543.317000", "115545.317000", "115547.315000", "115549.315000", "115551.316000", "115553.316000", "115555.317000", "115557.316000", "115559.317000", "115601.316000", "115603.317000", "115605.315000", "115607.315000", "115609.315000", "115611.316000", "115613.316000", "115615.317000", "115617.316000", "115619.317000", "115621.316000", "115623.315000", "115625.316000", "115627.315000", "115629.315000", "115631.316000", "115633.316000", "115635.317000", "115637.316000", "115639.316000", "115641.315000", "115643.316000", "115645.315000", "115647.316000", "115649.316000", "115651.316000", "115653.317000", "115655.317000", "115657.316000", "115659.315000", "115701.316000", "115703.316000", "115705.317000", "115707.316000", "115709.316000", "115711.317000", "115713.317000", "115715.315000", "115717.315000", "115719.315000", "115721.315000", "115723.316000", "115725.316000", "115727.317000", "115729.316000", "115731.316000", "115733.315000", "115735.323000", "115737.316000", "115739.317000", "115741.316000", "115743.316000", "115745.316000", "115747.317000", "115749.316000", "115751.316000", "115753.315000", "115755.315000", "115757.316000", "115759.316000", "115801.317000", "115803.317000", "115805.316000", "115807.315000", "115809.316000", "115811.315000", "115813.315000", "115815.316000", "115817.317000", "115819.316000", "115821.316000", "115823.317000", "115825.315000", "115827.315000", "115829.315000", "115831.316000", "115833.317000", "115835.317000", "115837.316000", "115839.316000", "115841.317000", "115843.315000", "115845.316000", "115847.316000", "115849.317000", "115851.316000", "115853.317000", "115855.317000", "115857.316000", "115859.315000", "115901.315000", "115903.052000"],
      "InstanceCreationTime": ["115121.821000", "115123.316000", "115125.315000", "115127.316000", "115129.315000", "115131.315000", "115133.317000", "115135.316000", "115137.316000", "115139.316000", "115141.317000", "115143.315000", "115145.315000", "115147.315000", "115149.315000", "115151.316000", "115153.316000", "115155.317000", "115157.316000", "115159.315000", "115201.315000", "115203.315000", "115205.316000", "115207.317000", "115209.316000", "115211.316000", "115213.316000", "115215.316000", "115217.315000", "115219.315000", "115221.315000", "115223.316000", "115225.316000", "115227.316000", "115229.316000", "115231.317000", "115233.316000", "115235.315000", "115237.316000", "115239.315000", "115241.315000", "115243.316000", "115245.317000", "115247.316000", "115249.316000", "115251.317000", "115253.315000", "115255.315000", "115257.315000", "115259.315000", "115301.316000", "115303.316000", "115305.316000", "115307.316000", "115309.316000", "115311.315000", "115313.315000", "115315.315000", "115317.316000", "115319.317000", "115321.317000", "115323.317000", "115325.317000", "115327.315000", "115329.315000", "115331.316000", "115333.316000", "115335.316000", "115337.317000", "115339.316000", "115341.316000", "115343.317000", "115345.315000", "115347.315000", "115349.315000", "115351.315000", "115353.316000", "115355.316000", "115357.316000", "115359.316000", "115401.316000", "115403.316000", "115405.315000", "115407.316000", "115409.315000", "115411.316000", "115413.317000", "115415.317000", "115417.316000", "115419.316000", "115421.316000", "115423.315000", "115425.316000", "115427.317000", "115429.316000", "115431.316000", "115433.316000", "115435.316000", "115437.316000", "115439.316000", "115441.315000", "115443.315000", "115445.316000", "115447.316000", "115449.316000", "115451.316000", "115453.316000", "115455.315000", "115457.315000", "115459.315000", "115501.315000", "115503.316000", "115505.316000", "115507.316000", "115509.316000", "115511.316000", "115513.315000", "115515.316000", "115517.316000", "115519.316000", "115521.316000", "115523.317000", "115525.317000", "115527.317000", "115529.316000", "115531.315000", "115533.315000", "115535.315000", "115537.316000", "115539.316000", "115541.316000", "115543.317000", "115545.317000", "115547.315000", "115549.315000", "115551.316000", "115553.316000", "115555.317000", "115557.316000", "115559.317000", "115601.316000", "115603.317000", "115605.315000", "115607.315000", "115609.315000", "115611.316000", "115613.316000", "115615.317000", "115617.316000", "115619.317000", "115621.316000", "115623.315000", "115625.316000", "115627.315000", "115629.315000", "115631.316000", "115633.316000", "115635.317000", "115637.316000", "115639.316000", "115641.315000", "115643.316000", "115645.315000", "115647.316000", "115649.316000", "115651.316000", "115653.317000", "115655.317000", "115657.316000", "115659.315000", "115701.316000", "115703.316000", "115705.317000", "115707.316000", "115709.316000", "115711.317000", "115713.317000", "115715.315000", "115717.315000", "115719.315000", "115721.315000", "115723.316000", "115725.316000", "115727.317000", "115729.316000", "115731.316000", "115733.315000", "115735.323000", "115737.316000", "115739.317000", "115741.316000", "115743.316000", "115745.316000", "115747.317000", "115749.316000", "115751.316000", "115753.315000", "115755.315000", "115757.316000", "115759.316000", "115801.317000", "115803.317000", "115805.316000", "115807.315000", "115809.316000", "115811.315000", "115813.315000", "115815.316000", "115817.317000", "115819.316000", "115821.316000", "115823.317000", "115825.315000", "115827.315000", "115829.315000", "115831.316000", "115833.317000", "115835.317000", "115837.316000", "115839.316000", "115841.317000", "115843.315000", "115845.316000", "115847.316000", "115849.317000", "115851.316000", "115853.317000", "115855.317000", "115857.316000", "115859.315000", "115901.315000", "115903.052000"],
      "InstanceNumber": [1, 2, 3, 4, 5, 6, 7, 8, 9, 10, 11, 12, 13, 14, 15, 16, 17, 18, 19, 20, 21, 22, 23, 24, 25, 26, 27, 28, 29, 30, 31, 32, 33, 34, 35, 36, 37, 38, 39, 40, 41, 42, 43, 44, 45, 46, 47, 48, 49, 50, 51, 52, 53, 54, 55, 56, 57, 58, 59, 60, 61, 62, 63, 64, 65, 66, 67, 68, 69, 70, 71, 72, 73, 74, 75, 76, 77, 78, 79, 80, 81, 82, 83, 84, 85, 86, 87, 88, 89, 90, 91, 92, 93, 94, 95, 96, 97, 98, 99, 100, 101, 102, 103, 104, 105, 106, 107, 108, 109, 110, 111, 112, 113, 114, 115, 116, 117, 118, 119, 120, 121, 122, 123, 124, 125, 126, 127, 128, 129, 130, 131, 132, 133, 134, 135, 136, 137, 138, 139, 140, 141, 142, 143, 144, 145, 146, 147, 148, 149, 150, 151, 152, 153, 154, 155, 156, 157, 158, 159, 160, 161, 162, 163, 164, 165, 166, 167, 168, 169, 170, 171, 172, 173, 174, 175, 176, 177, 178, 179, 180, 181, 182, 183, 184, 185, 186, 187, 188, 189, 190, 191, 192, 193, 194, 195, 196, 197, 198, 199, 200, 201, 202, 203, 204, 205, 206, 207, 208, 209, 210, 211, 212, 213, 214, 215, 216, 217, 218, 219, 220, 221, 222, 223, 224, 225, 226, 227, 228, 229, 230, 231, 232],
      "LargestImagePixelValue": [4095, 4095, 4095, 4095, 4095, 4095, 4095, 4095, 4095, 4095, 4095, 4095, 4095, 4095, 4095, 4095, 4095, 4095, 4095, 4053, 4095, 4050, 4095, 4057, 4095, 4078, 4016, 3965, 4007, 4040, 3983, 4049, 3971, 4069, 4008, 4025, 4031, 3936, 4018, 4076, 4001, 4000, 3983, 3989, 4042, 4020, 4012, 4035, 4039, 3987, 4045, 3997, 4025, 4026, 4089, 4063, 4095, 4060, 4095, 4055, 4042, 4077, 4072, 4013, 4095, 4004, 4091, 4062, 4064, 4082, 4069, 3999, 4046, 3979, 4046, 3998, 4095, 3999, 4073, 4025, 4095, 4007, 3995, 4030, 4052, 4042, 4082, 4065, 4057, 4040, 4040, 4019, 4052, 4044, 4032, 4078, 4064, 4009, 3830, 3804, 3837, 3833, 3878, 3912, 3899, 3939, 3768, 3754, 3817, 3861, 3827, 3805, 3815, 3794, 3823, 3895, 3839, 3868, 3843, 3910, 3870, 3855, 3840, 3849, 3893, 3886, 3891, 3909, 3930, 3953, 3882, 3935, 3966, 3886, 3902, 3888, 3933, 3917, 3948, 3982, 3946, 3959, 3954, 3928, 3973, 3933, 3966, 3994, 3998, 3949, 4009, 4095, 4095, 4048, 4095, 4019, 4045, 4031, 4055, 4037, 4035, 4030, 4007, 4039, 4062, 4042, 4068, 4045, 4041, 4034, 4040, 4040, 4086, 4063, 4027, 4038, 4047, 4016, 4032, 4015, 4095, 4080, 4090, 4085, 4075, 4095, 4095, 4095, 4095, 4083, 4087, 4095, 4094, 4077, 4095, 4095, 4078, 4062, 4057, 4051, 4054, 4095, 4083, 4087, 4068, 4095, 4081, 4031, 4095, 4058, 4036, 4047, 4051, 4016, 4095, 4089, 4082, 4001, 3974, 4003, 4001, 4003, 4045, 4035, 4095, 4050, 4062, 4045, 4034, 4057, 4035, 4053],
      "WindowCenter": [832.0, 830.0, 830.0, 829.0, 829.0, 829.0, 829.0, 828.0, 827.0, 827.0, 827.0, 828.0, 828.0, 827.0, 827.0, 827.0, 827.0, 828.0, 829.0, 829.0, 829.0, 827.0, 828.0, 827.0, 827.0, 826.0, 826.0, 825.0, 825.0, 824.0, 824.0, 825.0, 825.0, 827.0, 827.0, 825.0, 825.0, 825.0, 826.0, 826.0, 827.0, 828.0, 827.0, 827.0, 828.0, 828.0, 828.0, 828.0, 828.0, 828.0, 829.0, 829.0, 828.0, 827.0, 828.0, 827.0, 828.0, 828.0, 828.0, 826.0, 826.0, 826.0, 827.0, 828.0, 828.0, 827.0, 827.0, 825.0, 824.0, 824.0, 824.0, 825.0, 827.0, 827.0, 828.0, 828.0, 829.0, 828.0, 828.0, 827.0, 829.0, 828.0, 827.0, 826.0, 826.0, 825.0, 826.0, 827.0, 826.0, 828.0, 827.0, 826.0, 827.0, 828.0, 827.0, 827.0, 827.0, 828.0, 828.0, 827.0, 826.0, 824.0, 823.0, 824.0, 825.0, 825.0, 824.0, 821.0, 821.0, 821.0, 817.0, 820.0, 821.0, 823.0, 825.0, 826.0, 826.0, 827.0, 828.0, 829.0, 828.0, 827.0, 828.0, 827.0, 826.0, 825.0, 824.0, 824.0, 827.0, 829.0, 828.0, 828.0, 828.0, 827.0, 828.0, 828.0, 827.0, 827.0, 826.0, 825.0, 824.0, 824.0, 825.0, 825.0, 825.0, 825.0, 827.0, 828.0, 827.0, 825.0, 826.0, 828.0, 830.0, 831.0, 831.0, 829.0, 829.0, 828.0, 829.0, 828.0, 828.0, 828.0, 828.0, 827.0, 825.0, 823.0, 824.0, 824.0, 825.0, 825.0, 826.0, 827.0, 826.0, 826.0, 826.0, 827.0, 827.0, 828.0, 828.0, 826.0, 826.0, 827.0, 828.0, 827.0, 826.0, 827.0, 828.0, 829.0, 827.0, 827.0, 828.0, 828.0, 830.0, 830.0, 831.0, 830.0, 828.0, 827.0, 827.0, 827.0, 828.0, 828.0, 828.0, 829.0, 828.0, 827.0, 828.0, 828.0, 828.0, 828.0, 828.0, 826.0, 825.0, 825.0, 825.0, 826.0, 826.0, 826.0, 826.0, 825.0, 826.0, 825.0, 825.0, 824.0, 824.0, 826.0, 827.0, 828.0, 826.0, 825.0, 826.0, 826.0],
      "WindowWidth": [1822.0, 1814.0, 1814.0, 1812.0, 1811.0, 1812.0, 1812.0, 1808.0, 1807.0, 1806.0, 1805.0, 1808.0, 1809.0, 1806.0, 1805.0, 1805.0, 1807.0, 1808.0, 1811.0, 1812.0, 1812.0, 1807.0, 1808.0, 1806.0, 1808.0, 1805.0, 1804.0, 1802.0, 1800.0, 1799.0, 1797.0, 1800.0, 1801.0, 1806.0, 1806.0, 1801.0, 1802.0, 1800.0, 1802.0, 1805.0, 1806.0, 1808.0, 1807.0, 1806.0, 1809.0, 1810.0, 1809.0, 1811.0, 1809.0, 1810.0, 1813.0, 1811.0, 1809.0, 1806.0, 1809.0, 1808.0, 1811.0, 1808.0, 1809.0, 1805.0, 1805.0, 1804.0, 1808.0, 1809.0, 1810.0, 1806.0, 1805.0, 1802.0, 1799.0, 1797.0, 1798.0, 1801.0, 1805.0, 1805.0, 1810.0, 1810.0, 1813.0, 1809.0, 1811.0, 1807.0, 1813.0, 1811.0, 1806.0, 1803.0, 1803.0, 1803.0, 1805.0, 1806.0, 1804.0, 1808.0, 1807.0, 1805.0, 1807.0, 1809.0, 1807.0, 1807.0, 1806.0, 1809.0, 1808.0, 1807.0, 1803.0, 1796.0, 1794.0, 1798.0, 1802.0, 1801.0, 1797.0, 1788.0, 1789.0, 1788.0, 1778.0, 1787.0, 1790.0, 1796.0, 1801.0, 1803.0, 1802.0, 1806.0, 1808.0, 1812.0, 1809.0, 1805.0, 1808.0, 1805.0, 1802.0, 1799.0, 1798.0, 1799.0, 1805.0, 1811.0, 1808.0, 1809.0, 1810.0, 1807.0, 1808.0, 1809.0, 1806.0, 1805.0, 1803.0, 1800.0, 1798.0, 1798.0, 1801.0, 1800.0, 1801.0, 1800.0, 1804.0, 1808.0, 1806.0, 1799.0, 1803.0, 1809.0, 1814.0, 1816.0, 1817.0, 1812.0, 1812.0, 1809.0, 1810.0, 1808.0, 1810.0, 1809.0, 1809.0, 1805.0, 1799.0, 1795.0, 1796.0, 1798.0, 1799.0, 1800.0, 1802.0, 1805.0, 1804.0, 1804.0, 1803.0, 1805.0, 1806.0, 1808.0, 1808.0, 1803.0, 1803.0, 1805.0, 1809.0, 1805.0, 1804.0, 1805.0, 1807.0, 1810.0, 1807.0, 1805.0, 1808.0, 1809.0, 1813.0, 1814.0, 1815.0, 1814.0, 1808.0, 1804.0, 1804.0, 1806.0, 1807.0, 1807.0, 1809.0, 1810.0, 1809.0, 1807.0, 1808.0, 1807.0, 1809.0, 1809.0, 1808.0, 1801.0, 1798.0, 1798.0, 1800.0, 1803.0, 1803.0, 1803.0, 1803.0, 1800.0, 1802.0, 1801.0, 1800.0, 1798.0, 1796.0, 1802.0, 1806.0, 1808.0, 1802.0, 1800.0, 1801.0, 1804.0]
    },
    "slices": {}
  }
}