{
  "AcquisitionMatrixPE": 100,
  "AcquisitionNumber": 1,
  "AcquisitionTime": "12:19:58.280000",
  "BandwidthPerPixelPhaseEncode": 18.519,
  "BaseResolution": 100,
  "BodyPartExamined": "BRAIN",
  "ConsistencyInfo": "N4_VE11C_LATEST_20160120",
  "ConversionSoftware": "dcm2niix",
  "ConversionSoftwareVersion": "v1.0.20180622 GCC4.9.2",
  "DerivedVendorReportedEchoSpacing": 0.000539986,
  "DeviceSerialNumber": "166078",
  "DwellTime": 2.1e-06,
  "EchoTime": 0.034,
  "EchoTrainLength": 100,
  "EffectiveEchoSpacing": 0.000539986,
  "FlipAngle": 90,
  "ImageOrientationPatientDICOM": [0.99966, 0.0229397, 0.0124345, -0.0191945, 0.969308, -0.245098],
  "ImageType": [
    "ORIGINAL",
    "PRIMARY",
    "M",
    "ND",
    "MOSAIC"
],
  "InPlanePhaseEncodingDirectionDICOM": "COL",
  "InstitutionAddress": "Street_StreetNo_Bei_Jing_District_CN_ZIP",
  "InstitutionName": "BeiJing_Normal_University",
  "InstitutionalDepartmentName": "Department",
  "MRAcquisitionType": "2D",
  "MagneticFieldStrength": 3,
  "Manufacturer": "Siemens",
  "ManufacturersModelName": "Prisma",
  "Modality": "MR",
  "MultibandAccelerationFactor": 3,
  "PartialFourier": 1,
  "PatientPosition": "HFS",
  "PercentPhaseFOV": 100,
  "PhaseEncodingDirection": "j-",
  "PhaseEncodingSteps": 100,
  "PhaseResolution": 1,
  "PixelBandwidth": 2380,
  "ProcedureStepDescription": "BNU_P2018_64CH_Liu.Jia",
  "ProtocolName": "bold_100x100_s3_2x2x2_232",
  "PulseSequenceDetails": "%SiemensSeq%_ep2d_bold",
  "ReceiveCoilActiveElements": "HC1-7;NC1",
  "ReceiveCoilName": "HeadNeck_64",
  "ReconMatrixPE": 100,
  "RepetitionTime": 2,
  "SAR": 0.0657923,
  "ScanOptions": "FS",
  "ScanningSequence": "EP",
  "SequenceName": "_epfid2d1_100",
  "SequenceVariant": "SK",
  "SeriesDescription": "bold_100x100_s3_2x2x2_232",
  "SeriesNumber": 10,
  "ShimSetting": [-5436, -11490, -1225, 186, 6, -108, -148, 72],
  "SliceThickness": 2,
  "SliceTiming": [1.485, 0, 0.99, 0.0825, 1.0725, 0.165, 1.155, 0.2475, 1.2375, 0.33, 1.32, 0.4125, 1.4025, 0.5775, 1.5675, 0.66, 1.65, 0.7425, 1.7325, 0.825, 1.815, 0.9075, 1.8975, 0.495, 1.485, 0, 0.99, 0.0825, 1.0725, 0.165, 1.155, 0.2475, 1.2375, 0.33, 1.32, 0.4125, 1.4025, 0.5775, 1.5675, 0.66, 1.65, 0.7425, 1.7325, 0.825, 1.815, 0.9075, 1.8975, 0.495, 1.485, 0, 0.99, 0.0825, 1.0725, 0.165, 1.155, 0.2475, 1.2375, 0.33, 1.32, 0.4125, 1.4025, 0.5775, 1.5675, 0.66, 1.65, 0.7425, 1.7325, 0.825, 1.815, 0.9075, 1.8975, 0.495],
  "SoftwareVersions": "syngo_MR_E11",
  "SpacingBetweenSlices": 2,
  "StationName": "AWP166078",
  "TaskName": "motor",
  "TotalReadoutTime": 0.0534586,
  "TxRefAmp": 232.349,
  "dcmmeta_affine": [
    [-1.999319076538086, -0.038388948887586594, 0.035350605845451355, 101.32714080810547],
    [-0.04587933048605919, 1.938616394996643, -0.4895523190498352, -73.4090805053711],
    [0.024868933483958244, 0.4901965856552124, 1.938836932182312, -100.26239776611328],
    [0.0, 0.0, 0.0, 1.0]
],
  "dcmmeta_reorient_transform": [
    [0.0, -1.0, 0.0, 99.0],
    [1.0, 0.0, 0.0, 0.0],
    [0.0, 0.0, 1.0, 0.0],
    [0.0, 0.0, 0.0, 1.0]
],
  "dcmmeta_shape": [100, 100, 72, 232],
  "dcmmeta_slice_dim": 2,
  "dcmmeta_version": 0.6,
  "global": {
    "const": {
      "AcquisitionMatrix": [100, 0, 0, 100],
      "AngioFlag": "N",
      "BitsAllocated": 16,
      "BitsStored": 12,
      "BodyPartExamined": "BRAIN",
      "Columns": 900,
      "EchoNumbers": 1,
      "EchoTime": 34.0,
      "EchoTrainLength": 100,
      "FlipAngle": 90.0,
      "HighBit": 11,
      "ImageOrientationPatient": [0.99965951991891, 0.02293966571363, 0.01243446711502, -0.0191944749304, 0.96930820678242, -0.2450982912964],
      "ImagePositionPatient": [-881.89866991044, -912.31224120652, 134.39812077931],
      "ImageType": [
        "ORIGINAL",
        "PRIMARY",
        "M",
        "ND",
        "MOSAIC"
],
      "ImagedNucleus": "1H",
      "ImagingFrequency": 123.257849,
      "InPlanePhaseEncodingDirection": "COL",
      "MRAcquisitionType": "2D",
      "MagneticFieldStrength": 3.0,
      "Manufacturer": "SIEMENS",
      "ManufacturerModelName": "Prisma",
      "Modality": "MR",
      "NumberOfAverages": 1.0,
      "NumberOfPhaseEncodingSteps": 100,
      "PercentPhaseFieldOfView": 100.0,
      "PercentSampling": 100.0,
      "PerformedProcedureStepStartTime": "113049.675000",
      "PhotometricInterpretation": "MONOCHROME2",
      "PixelBandwidth": 2380.0,
      "PixelRepresentation": 0,
      "PixelSpacing": [2.0, 2.0],
      "ProtocolName": "bold_100x100_s3_2x2x2_232",
      "RepetitionTime": 2000.0,
      "Rows": 900,
      "SAR": 0.06579233756781,
      "SamplesPerPixel": 1,
      "ScanOptions": "FS",
      "ScanningSequence": "EP",
      "SequenceName": "*epfid2d1_100",
      "SequenceVariant": "SK",
      "SeriesDescription": "bold_100x100_s3_2x2x2_232",
      "SeriesNumber": 10,
      "SeriesTime": "122000.549000",
      "SliceLocation": -77.43644314433,
      "SliceThickness": 2.0,
      "SmallestImagePixelValue": 0,
      "SoftwareVersions": "syngo MR E11",
      "SpacingBetweenSlices": 1.9999999335566,
      "SpecificCharacterSet": "ISO_IR 100",
      "StudyID": "1",
      "StudyTime": "113049.570000",
      "TransmitCoilName": "Body",
      "VariableFlipAngleFlag": "N",
      "WindowCenterWidthExplanation": "Algo1",
      "dBdt": 0.0},
    "slices": {}
  },
  "time": {
    "samples": {
      "AcquisitionNumber": [1, 2, 3, 4, 5, 6, 7, 8, 9, 10, 11, 12, 13, 14, 15, 16, 17, 18, 19, 20, 21, 22, 23, 24, 25, 26, 27, 28, 29, 30, 31, 32, 33, 34, 35, 36, 37, 38, 39, 40, 41, 42, 43, 44, 45, 46, 47, 48, 49, 50, 51, 52, 53, 54, 55, 56, 57, 58, 59, 60, 61, 62, 63, 64, 65, 66, 67, 68, 69, 70, 71, 72, 73, 74, 75, 76, 77, 78, 79, 80, 81, 82, 83, 84, 85, 86, 87, 88, 89, 90, 91, 92, 93, 94, 95, 96, 97, 98, 99, 100, 101, 102, 103, 104, 105, 106, 107, 108, 109, 110, 111, 112, 113, 114, 115, 116, 117, 118, 119, 120, 121, 122, 123, 124, 125, 126, 127, 128, 129, 130, 131, 132, 133, 134, 135, 136, 137, 138, 139, 140, 141, 142, 143, 144, 145, 146, 147, 148, 149, 150, 151, 152, 153, 154, 155, 156, 157, 158, 159, 160, 161, 162, 163, 164, 165, 166, 167, 168, 169, 170, 171, 172, 173, 174, 175, 176, 177, 178, 179, 180, 181, 182, 183, 184, 185, 186, 187, 188, 189, 190, 191, 192, 193, 194, 195, 196, 197, 198, 199, 200, 201, 202, 203, 204, 205, 206, 207, 208, 209, 210, 211, 212, 213, 214, 215, 216, 217, 218, 219, 220, 221, 222, 223, 224, 225, 226, 227, 228, 229, 230, 231, 232],
      "AcquisitionTime": ["121958.280000", "122000.280000", "122002.280000", "122004.280000", "122006.280000", "122008.280000", "122010.280000", "122012.280000", "122014.280000", "122016.280000", "122018.280000", "122020.280000", "122022.280000", "122024.280000", "122026.280000", "122028.280000", "122030.280000", "122032.280000", "122034.280000", "122036.280000", "122038.280000", "122040.280000", "122042.280000", "122044.280000", "122046.280000", "122048.280000", "122050.280000", "122052.280000", "122054.280000", "122056.280000", "122058.280000", "122100.280000", "122102.280000", "122104.280000", "122106.280000", "122108.280000", "122110.280000", "122112.280000", "122114.280000", "122116.280000", "122118.280000", "122120.280000", "122122.280000", "122124.280000", "122126.280000", "122128.280000", "122130.280000", "122132.280000", "122134.280000", "122136.280000", "122138.280000", "122140.280000", "122142.280000", "122144.280000", "122146.280000", "122148.280000", "122150.280000", "122152.280000", "122154.280000", "122156.280000", "122158.280000", "122200.280000", "122202.280000", "122204.280000", "122206.280000", "122208.280000", "122210.280000", "122212.280000", "122214.280000", "122216.280000", "122218.280000", "122220.280000", "122222.280000", "122224.280000", "122226.280000", "122228.280000", "122230.280000", "122232.280000", "122234.280000", "122236.280000", "122238.280000", "122240.280000", "122242.280000", "122244.280000", "122246.280000", "122248.280000", "122250.280000", "122252.280000", "122254.280000", "122256.280000", "122258.280000", "122300.280000", "122302.280000", "122304.280000", "122306.280000", "122308.280000", "122310.280000", "122312.280000", "122314.280000", "122316.280000", "122318.280000", "122320.280000", "122322.280000", "122324.280000", "122326.280000", "122328.280000", "122330.280000", "122332.280000", "122334.280000", "122336.280000", "122338.280000", "122340.280000", "122342.280000", "122344.280000", "122346.280000", "122348.280000", "122350.280000", "122352.280000", "122354.280000", "122356.280000", "122358.280000", "122400.280000", "122402.280000", "122404.280000", "122406.280000", "122408.280000", "122410.280000", "122412.280000", "122414.280000", "122416.280000", "122418.280000", "122420.280000", "122422.280000", "122424.280000", "122426.280000", "122428.280000", "122430.280000", "122432.280000", "122434.280000", "122436.280000", "122438.280000", "122440.280000", "122442.280000", "122444.280000", "122446.280000", "122448.280000", "122450.280000", "122452.280000", "122454.280000", "122456.280000", "122458.280000", "122500.280000", "122502.280000", "122504.280000", "122506.280000", "122508.280000", "122510.280000", "122512.280000", "122514.280000", "122516.280000", "122518.280000", "122520.280000", "122522.280000", "122524.280000", "122526.280000", "122528.280000", "122530.280000", "122532.280000", "122534.280000", "122536.280000", "122538.280000", "122540.280000", "122542.280000", "122544.280000", "122546.280000", "122548.280000", "122550.280000", "122552.280000", "122554.280000", "122556.280000", "122558.280000", "122600.280000", "122602.280000", "122604.280000", "122606.280000", "122608.280000", "122610.280000", "122612.280000", "122614.280000", "122616.280000", "122618.280000", "122620.280000", "122622.280000", "122624.280000", "122626.280000", "122628.280000", "122630.280000", "122632.280000", "122634.280000", "122636.280000", "122638.280000", "122640.280000", "122642.280000", "122644.280000", "122646.280000", "122648.280000", "122650.280000", "122652.280000", "122654.280000", "122656.280000", "122658.280000", "122700.280000", "122702.280000", "122704.280000", "122706.280000", "122708.280000", "122710.280000", "122712.280000", "122714.280000", "122716.280000", "122718.280000", "122720.280000", "122722.280000", "122724.280000", "122726.280000", "122728.280000", "122730.280000", "122732.280000", "122734.280000", "122736.280000", "122738.280000", "122740.280000"],
      "ContentTime": ["122000.553000", "122002.048000", "122004.047000", "122006.048000", "122008.068000", "122010.048000", "122012.048000", "122014.048000", "122016.048000", "122018.048000", "122020.048000", "122022.047000", "122024.048000", "122026.048000", "122028.049000", "122030.048000", "122032.048000", "122034.048000", "122036.069000", "122038.048000", "122040.048000", "122042.048000", "122044.049000", "122046.049000", "122048.048000", "122050.048000", "122052.048000", "122054.048000", "122056.048000", "122058.049000", "122100.048000", "122102.048000", "122104.048000", "122106.048000", "122108.049000", "122110.048000", "122112.048000", "122114.047000", "122116.048000", "122118.048000", "122120.048000", "122122.048000", "122124.048000", "122126.048000", "122128.048000", "122130.048000", "122132.048000", "122134.048000", "122136.049000", "122138.048000", "122140.068000", "122142.048000", "122144.048000", "122146.048000", "122148.048000", "122150.047000", "122152.048000", "122154.048000", "122156.048000", "122158.048000", "122200.048000", "122202.048000", "122204.048000", "122206.048000", "122208.048000", "122210.048000", "122212.049000", "122214.048000", "122216.049000", "122218.048000", "122220.049000", "122222.049000", "122224.047000", "122226.048000", "122228.049000", "122230.049000", "122232.049000", "122234.048000", "122236.048000", "122238.049000", "122240.048000", "122242.047000", "122244.048000", "122246.048000", "122248.048000", "122250.049000", "122252.048000", "122254.048000", "122256.048000", "122258.048000", "122300.048000", "122302.048000", "122304.048000", "122306.049000", "122308.048000", "122310.048000", "122312.048000", "122314.048000", "122316.048000", "122318.048000", "122320.048000", "122322.048000", "122324.048000", "122326.049000", "122328.048000", "122330.048000", "122332.048000", "122334.048000", "122336.049000", "122338.048000", "122340.049000", "122342.049000", "122344.048000", "122346.049000", "122348.069000", "122350.048000", "122352.047000", "122354.048000", "122356.049000", "122358.068000", "122400.048000", "122402.048000", "122404.048000", "122406.049000", "122408.049000", "122410.048000", "122412.049000", "122414.048000", "122416.049000", "122418.048000", "122420.048000", "122422.048000", "122424.048000", "122426.068000", "122428.048000", "122430.048000", "122432.048000", "122434.048000", "122436.048000", "122438.049000", "122440.049000", "122442.048000", "122444.047000", "122446.049000", "122448.049000", "122450.049000", "122452.049000", "122454.049000", "122456.048000", "122458.048000", "122500.048000", "122502.047000", "122504.048000", "122506.048000", "122508.068000", "122510.048000", "122512.048000", "122514.048000", "122516.048000", "122518.048000", "122520.047000", "122522.048000", "122524.048000", "122526.049000", "122528.048000", "122530.049000", "122532.048000", "122534.048000", "122536.048000", "122538.048000", "122540.049000", "122542.068000", "122544.049000", "122546.049000", "122548.048000", "122550.048000", "122552.049000", "122554.047000", "122556.048000", "122558.048000", "122600.048000", "122602.048000", "122604.049000", "122606.049000", "122608.048000", "122610.048000", "122612.047000", "122614.049000", "122616.048000", "122618.048000", "122620.048000", "122622.049000", "122624.049000", "122626.048000", "122628.048000", "122630.047000", "122632.049000", "122634.049000", "122636.049000", "122638.048000", "122640.049000", "122642.048000", "122644.048000", "122646.048000", "122648.048000", "122650.049000", "122652.049000", "122654.049000", "122656.048000", "122658.059000", "122700.048000", "122702.048000", "122704.047000", "122706.049000", "122708.048000", "122710.048000", "122712.049000", "122714.049000", "122716.048000", "122718.048000", "122720.048000", "122722.048000", "122724.049000", "122726.048000", "122728.048000", "122730.048000", "122732.048000", "122734.049000", "122736.069000", "122738.049000", "122740.047000", "122741.818000"],
      "InstanceCreationTime": ["122000.553000", "122002.048000", "122004.047000", "122006.048000", "122008.068000", "122010.048000", "122012.048000", "122014.048000", "122016.048000", "122018.048000", "122020.048000", "122022.047000", "122024.048000", "122026.048000", "122028.049000", "122030.048000", "122032.048000", "122034.048000", "122036.069000", "122038.048000", "122040.048000", "122042.048000", "122044.049000", "122046.049000", "122048.048000", "122050.048000", "122052.048000", "122054.048000", "122056.048000", "122058.049000", "122100.048000", "122102.048000", "122104.048000", "122106.048000", "122108.049000", "122110.048000", "122112.048000", "122114.047000", "122116.048000", "122118.048000", "122120.048000", "122122.048000", "122124.048000", "122126.048000", "122128.048000", "122130.048000", "122132.048000", "122134.048000", "122136.049000", "122138.048000", "122140.068000", "122142.048000", "122144.048000", "122146.048000", "122148.048000", "122150.047000", "122152.048000", "122154.048000", "122156.048000", "122158.048000", "122200.048000", "122202.048000", "122204.048000", "122206.048000", "122208.048000", "122210.048000", "122212.049000", "122214.048000", "122216.049000", "122218.048000", "122220.049000", "122222.049000", "122224.047000", "122226.048000", "122228.049000", "122230.049000", "122232.049000", "122234.048000", "122236.048000", "122238.049000", "122240.048000", "122242.047000", "122244.048000", "122246.048000", "122248.048000", "122250.049000", "122252.048000", "122254.048000", "122256.048000", "122258.048000", "122300.048000", "122302.048000", "122304.048000", "122306.049000", "122308.048000", "122310.048000", "122312.048000", "122314.048000", "122316.048000", "122318.048000", "122320.048000", "122322.048000", "122324.048000", "122326.049000", "122328.048000", "122330.048000", "122332.048000", "122334.048000", "122336.049000", "122338.048000", "122340.049000", "122342.049000", "122344.048000", "122346.049000", "122348.069000", "122350.048000", "122352.047000", "122354.048000", "122356.049000", "122358.068000", "122400.048000", "122402.048000", "122404.048000", "122406.049000", "122408.049000", "122410.048000", "122412.049000", "122414.048000", "122416.049000", "122418.048000", "122420.048000", "122422.048000", "122424.048000", "122426.068000", "122428.048000", "122430.048000", "122432.048000", "122434.048000", "122436.048000", "122438.049000", "122440.049000", "122442.048000", "122444.047000", "122446.049000", "122448.049000", "122450.049000", "122452.049000", "122454.049000", "122456.048000", "122458.048000", "122500.048000", "122502.047000", "122504.048000", "122506.048000", "122508.068000", "122510.048000", "122512.048000", "122514.048000", "122516.048000", "122518.048000", "122520.047000", "122522.048000", "122524.048000", "122526.049000", "122528.048000", "122530.049000", "122532.048000", "122534.048000", "122536.048000", "122538.048000", "122540.049000", "122542.068000", "122544.049000", "122546.049000", "122548.048000", "122550.048000", "122552.049000", "122554.047000", "122556.048000", "122558.048000", "122600.048000", "122602.048000", "122604.049000", "122606.049000", "122608.048000", "122610.048000", "122612.047000", "122614.049000", "122616.048000", "122618.048000", "122620.048000", "122622.049000", "122624.049000", "122626.048000", "122628.048000", "122630.047000", "122632.049000", "122634.049000", "122636.049000", "122638.048000", "122640.049000", "122642.048000", "122644.048000", "122646.048000", "122648.048000", "122650.049000", "122652.049000", "122654.049000", "122656.048000", "122658.059000", "122700.048000", "122702.048000", "122704.047000", "122706.049000", "122708.048000", "122710.048000", "122712.049000", "122714.049000", "122716.048000", "122718.048000", "122720.048000", "122722.048000", "122724.049000", "122726.048000", "122728.048000", "122730.048000", "122732.048000", "122734.049000", "122736.069000", "122738.049000", "122740.047000", "122741.818000"],
      "InstanceNumber": [1, 2, 3, 4, 5, 6, 7, 8, 9, 10, 11, 12, 13, 14, 15, 16, 17, 18, 19, 20, 21, 22, 23, 24, 25, 26, 27, 28, 29, 30, 31, 32, 33, 34, 35, 36, 37, 38, 39, 40, 41, 42, 43, 44, 45, 46, 47, 48, 49, 50, 51, 52, 53, 54, 55, 56, 57, 58, 59, 60, 61, 62, 63, 64, 65, 66, 67, 68, 69, 70, 71, 72, 73, 74, 75, 76, 77, 78, 79, 80, 81, 82, 83, 84, 85, 86, 87, 88, 89, 90, 91, 92, 93, 94, 95, 96, 97, 98, 99, 100, 101, 102, 103, 104, 105, 106, 107, 108, 109, 110, 111, 112, 113, 114, 115, 116, 117, 118, 119, 120, 121, 122, 123, 124, 125, 126, 127, 128, 129, 130, 131, 132, 133, 134, 135, 136, 137, 138, 139, 140, 141, 142, 143, 144, 145, 146, 147, 148, 149, 150, 151, 152, 153, 154, 155, 156, 157, 158, 159, 160, 161, 162, 163, 164, 165, 166, 167, 168, 169, 170, 171, 172, 173, 174, 175, 176, 177, 178, 179, 180, 181, 182, 183, 184, 185, 186, 187, 188, 189, 190, 191, 192, 193, 194, 195, 196, 197, 198, 199, 200, 201, 202, 203, 204, 205, 206, 207, 208, 209, 210, 211, 212, 213, 214, 215, 216, 217, 218, 219, 220, 221, 222, 223, 224, 225, 226, 227, 228, 229, 230, 231, 232],
      "LargestImagePixelValue": [3876, 3770, 3825, 3872, 3778, 3785, 3776, 3904, 3866, 3845, 3849, 3851, 3875, 3804, 3937, 3879, 3919, 3778, 3807, 3741, 3787, 3767, 3870, 3759, 3939, 3914, 3811, 3748, 3750, 3788, 3728, 3811, 3902, 3886, 3870, 3919, 3922, 4006, 3904, 3881, 3863, 3926, 3961, 3937, 3893, 3772, 3796, 3760, 3799, 3833, 3783, 3779, 3779, 3808, 3819, 3817, 3851, 3928, 3846, 4050, 3881, 3868, 3804, 3846, 3898, 3870, 3783, 3780, 3768, 3823, 3810, 3821, 3803, 3780, 3769, 3764, 3780, 3796, 3740, 3834, 3817, 3830, 3798, 3791, 3801, 3803, 3808, 3814, 3792, 3824, 3779, 3746, 3755, 3780, 3785, 3832, 3867, 3827, 3801, 3803, 3751, 3784, 3811, 3849, 3843, 3812, 3855, 3817, 3797, 3849, 3818, 3806, 3809, 3856, 3781, 3869, 3798, 3805, 3788, 3786, 3798, 3816, 3807, 3778, 3805, 3784, 3766, 3770, 3841, 3948, 3733, 3768, 3812, 3795, 3807, 3801, 3810, 3777, 3779, 3801, 3771, 3752, 3788, 3783, 3785, 3746, 3794, 3790, 3795, 3818, 3812, 3822, 3799, 3816, 3830, 3820, 3809, 3834, 3825, 3859, 3834, 3868, 3837, 3880, 3832, 3855, 3869, 3853, 3811, 3798, 3828, 3802, 3797, 3797, 3797, 3814, 3782, 3797, 3807, 3784, 3820, 3825, 3817, 3826, 3792, 3827, 3825, 3828, 3789, 3786, 3804, 3859, 3823, 3832, 3797, 3821, 3784, 3828, 3795, 3828, 3823, 3823, 3781, 3802, 3778, 3775, 3764, 3764, 3829, 3780, 3780, 3744, 3746, 3792, 3770, 3778, 3770, 3744, 3784, 3760, 3774, 3763, 3775, 3745, 3836, 3809, 3775, 3821, 3811, 3844, 3778, 3796],
      "WindowCenter": [826.0, 824.0, 825.0, 824.0, 822.0, 821.0, 822.0, 824.0, 825.0, 825.0, 826.0, 826.0, 825.0, 823.0, 825.0, 826.0, 826.0, 825.0, 825.0, 824.0, 824.0, 823.0, 824.0, 824.0, 825.0, 824.0, 824.0, 824.0, 823.0, 821.0, 820.0, 821.0, 823.0, 823.0, 823.0, 823.0, 825.0, 825.0, 825.0, 822.0, 822.0, 822.0, 823.0, 822.0, 821.0, 819.0, 819.0, 820.0, 821.0, 823.0, 822.0, 822.0, 822.0, 822.0, 823.0, 824.0, 825.0, 824.0, 825.0, 826.0, 825.0, 823.0, 821.0, 821.0, 821.0, 821.0, 821.0, 821.0, 819.0, 818.0, 819.0, 820.0, 820.0, 820.0, 820.0, 820.0, 819.0, 819.0, 820.0, 823.0, 824.0, 825.0, 823.0, 822.0, 821.0, 821.0, 822.0, 823.0, 822.0, 822.0, 823.0, 822.0, 823.0, 824.0, 825.0, 825.0, 825.0, 825.0, 826.0, 824.0, 821.0, 820.0, 819.0, 820.0, 820.0, 821.0, 822.0, 823.0, 824.0, 825.0, 825.0, 824.0, 824.0, 825.0, 827.0, 828.0, 828.0, 825.0, 822.0, 818.0, 816.0, 818.0, 819.0, 819.0, 819.0, 819.0, 821.0, 821.0, 823.0, 823.0, 826.0, 826.0, 824.0, 822.0, 821.0, 821.0, 821.0, 821.0, 822.0, 823.0, 824.0, 824.0, 825.0, 826.0, 826.0, 826.0, 826.0, 826.0, 825.0, 825.0, 824.0, 822.0, 822.0, 823.0, 825.0, 825.0, 825.0, 824.0, 822.0, 822.0, 822.0, 822.0, 822.0, 822.0, 820.0, 820.0, 818.0, 818.0, 818.0, 820.0, 820.0, 820.0, 820.0, 820.0, 821.0, 821.0, 821.0, 822.0, 822.0, 822.0, 822.0, 823.0, 822.0, 822.0, 822.0, 823.0, 823.0, 823.0, 822.0, 822.0, 821.0, 820.0, 819.0, 823.0, 824.0, 823.0, 821.0, 819.0, 819.0, 819.0, 821.0, 821.0, 822.0, 820.0, 818.0, 817.0, 818.0, 820.0, 822.0, 821.0, 821.0, 822.0, 823.0, 824.0, 823.0, 822.0, 822.0, 822.0, 822.0, 823.0, 822.0, 822.0, 821.0, 820.0, 820.0, 821.0, 822.0, 822.0, 821.0, 821.0, 820.0, 821.0],
      "WindowWidth": [1801.0, 1797.0, 1799.0, 1797.0, 1791.0, 1789.0, 1790.0, 1795.0, 1798.0, 1799.0, 1801.0, 1800.0, 1797.0, 1794.0, 1798.0, 1801.0, 1802.0, 1799.0, 1798.0, 1796.0, 1796.0, 1794.0, 1796.0, 1795.0, 1798.0, 1796.0, 1794.0, 1794.0, 1793.0, 1788.0, 1786.0, 1789.0, 1794.0, 1793.0, 1792.0, 1794.0, 1798.0, 1800.0, 1798.0, 1791.0, 1790.0, 1791.0, 1794.0, 1791.0, 1788.0, 1783.0, 1782.0, 1784.0, 1789.0, 1793.0, 1791.0, 1789.0, 1789.0, 1790.0, 1794.0, 1796.0, 1798.0, 1797.0, 1798.0, 1801.0, 1798.0, 1793.0, 1788.0, 1787.0, 1788.0, 1789.0, 1786.0, 1786.0, 1782.0, 1780.0, 1781.0, 1784.0, 1784.0, 1785.0, 1785.0, 1784.0, 1782.0, 1783.0, 1785.0, 1792.0, 1796.0, 1797.0, 1793.0, 1789.0, 1787.0, 1787.0, 1788.0, 1792.0, 1791.0, 1791.0, 1792.0, 1791.0, 1792.0, 1796.0, 1797.0, 1798.0, 1800.0, 1799.0, 1799.0, 1795.0, 1785.0, 1784.0, 1782.0, 1785.0, 1785.0, 1788.0, 1791.0, 1793.0, 1796.0, 1798.0, 1797.0, 1796.0, 1794.0, 1798.0, 1802.0, 1807.0, 1806.0, 1797.0, 1788.0, 1779.0, 1775.0, 1780.0, 1783.0, 1781.0, 1782.0, 1783.0, 1787.0, 1789.0, 1793.0, 1793.0, 1801.0, 1800.0, 1796.0, 1789.0, 1786.0, 1786.0, 1788.0, 1788.0, 1791.0, 1793.0, 1794.0, 1795.0, 1799.0, 1801.0, 1801.0, 1801.0, 1799.0, 1799.0, 1799.0, 1798.0, 1795.0, 1791.0, 1789.0, 1792.0, 1798.0, 1799.0, 1796.0, 1795.0, 1791.0, 1790.0, 1789.0, 1789.0, 1789.0, 1788.0, 1786.0, 1783.0, 1779.0, 1778.0, 1778.0, 1783.0, 1785.0, 1784.0, 1784.0, 1785.0, 1786.0, 1787.0, 1786.0, 1788.0, 1789.0, 1789.0, 1790.0, 1791.0, 1791.0, 1790.0, 1791.0, 1793.0, 1791.0, 1791.0, 1790.0, 1789.0, 1786.0, 1784.0, 1782.0, 1791.0, 1795.0, 1792.0, 1786.0, 1782.0, 1781.0, 1782.0, 1786.0, 1788.0, 1790.0, 1784.0, 1778.0, 1777.0, 1779.0, 1784.0, 1789.0, 1787.0, 1789.0, 1790.0, 1793.0, 1795.0, 1793.0, 1791.0, 1790.0, 1789.0, 1791.0, 1792.0, 1790.0, 1790.0, 1788.0, 1785.0, 1785.0, 1787.0, 1788.0, 1788.0, 1786.0, 1786.0, 1785.0, 1786.0]
    },
    "slices": {}
  }
}