{
  "AcquisitionMatrixPE": 100,
  "AcquisitionNumber": 1,
  "AcquisitionTime": "09:58:29.160000",
  "BandwidthPerPixelPhaseEncode": 18.519,
  "BaseResolution": 100,
  "BodyPartExamined": "BRAIN",
  "ConsistencyInfo": "N4_VE11C_LATEST_20160120",
  "ConversionSoftware": "dcm2niix",
  "ConversionSoftwareVersion": "v1.0.20180622 GCC4.9.2",
  "DerivedVendorReportedEchoSpacing": 0.000539986,
  "DeviceSerialNumber": "166078",
  "DwellTime": 2.1e-06,
  "EchoTime": 0.034,
  "EchoTrainLength": 100,
  "EffectiveEchoSpacing": 0.000539986,
  "FlipAngle": 90,
  "ImageOrientationPatientDICOM": [1, 0, 0, 0, 1, 0],
  "ImageType": [
    "ORIGINAL",
    "PRIMARY",
    "M",
    "ND",
    "MOSAIC"
],
  "InPlanePhaseEncodingDirectionDICOM": "COL",
  "InstitutionAddress": "Street_StreetNo_Bei_Jing_District_CN_ZIP",
  "InstitutionName": "BeiJing_Normal_University",
  "InstitutionalDepartmentName": "Department",
  "MRAcquisitionType": "2D",
  "MagneticFieldStrength": 3,
  "Manufacturer": "Siemens",
  "ManufacturersModelName": "Prisma",
  "Modality": "MR",
  "MultibandAccelerationFactor": 3,
  "PartialFourier": 1,
  "PatientPosition": "HFS",
  "PercentPhaseFOV": 100,
  "PhaseEncodingDirection": "j-",
  "PhaseEncodingSteps": 100,
  "PhaseResolution": 1,
  "PixelBandwidth": 2380,
  "ProcedureStepDescription": "BNU_P2018_64CH_Liu.Jia",
  "ProtocolName": "bold_100x100_s3_2x2x2_232",
  "PulseSequenceDetails": "%SiemensSeq%_ep2d_bold",
  "ReceiveCoilActiveElements": "HC1-7;NC1",
  "ReceiveCoilName": "HeadNeck_64",
  "ReconMatrixPE": 100,
  "RepetitionTime": 2,
  "SAR": 0.0700738,
  "ScanOptions": "FS",
  "ScanningSequence": "EP",
  "SequenceName": "_epfid2d1_100",
  "SequenceVariant": "SK",
  "SeriesDescription": "bold_100x100_s3_2x2x2_232",
  "SeriesNumber": 10,
  "ShimSetting": [-5474, -11496, -1214, 331, -20, -197, -182, 73],
  "SliceThickness": 2,
  "SliceTiming": [1.485, 0, 0.99, 0.0825, 1.0725, 0.165, 1.155, 0.2475, 1.2375, 0.33, 1.32, 0.4125, 1.4025, 0.5775, 1.5675, 0.66, 1.65, 0.7425, 1.7325, 0.825, 1.815, 0.9075, 1.8975, 0.495, 1.485, 0, 0.99, 0.0825, 1.0725, 0.165, 1.155, 0.2475, 1.2375, 0.33, 1.32, 0.4125, 1.4025, 0.5775, 1.5675, 0.66, 1.65, 0.7425, 1.7325, 0.825, 1.815, 0.9075, 1.8975, 0.495, 1.485, 0, 0.99, 0.0825, 1.0725, 0.165, 1.155, 0.2475, 1.2375, 0.33, 1.32, 0.4125, 1.4025, 0.5775, 1.5675, 0.66, 1.65, 0.7425, 1.7325, 0.825, 1.815, 0.9075, 1.8975, 0.495],
  "SoftwareVersions": "syngo_MR_E11",
  "SpacingBetweenSlices": 2,
  "StationName": "AWP166078",
  "TaskName": "motor",
  "TotalReadoutTime": 0.0534586,
  "TxRefAmp": 222.708,
  "dcmmeta_affine": [
    [-2.0, 0.0, 0.0, 102.02409362792969],
    [0.0, 2.0, 0.0, -91.37349700927734],
    [0.0, 0.0, 2.0, -46.71084213256836],
    [0.0, 0.0, 0.0, 1.0]
],
  "dcmmeta_reorient_transform": [
    [0.0, -1.0, 0.0, 99.0],
    [1.0, 0.0, 0.0, 0.0],
    [0.0, 0.0, 1.0, 0.0],
    [0.0, 0.0, 0.0, 1.0]
],
  "dcmmeta_shape": [100, 100, 72, 232],
  "dcmmeta_slice_dim": 2,
  "dcmmeta_version": 0.6,
  "global": {
    "const": {
      "AcquisitionMatrix": [100, 0, 0, 100],
      "AngioFlag": "N",
      "BitsAllocated": 16,
      "BitsStored": 12,
      "BodyPartExamined": "BRAIN",
      "Columns": 900,
      "EchoNumbers": 1,
      "EchoTime": 34.0,
      "EchoTrainLength": 100,
      "FlipAngle": 90.0,
      "HighBit": 11,
      "ImageOrientationPatient": [1.0, 0.0, 0.0, 0.0, 1.0, 0.0],
      "ImagePositionPatient": [-902.02409648895, -906.62650585175, -46.710842132568],
      "ImageType": [
        "ORIGINAL",
        "PRIMARY",
        "M",
        "ND",
        "MOSAIC"
],
      "ImagedNucleus": "1H",
      "ImagingFrequency": 123.257825,
      "InPlanePhaseEncodingDirection": "COL",
      "LargestImagePixelValue": 4095,
      "MRAcquisitionType": "2D",
      "MagneticFieldStrength": 3.0,
      "Manufacturer": "SIEMENS",
      "ManufacturerModelName": "Prisma",
      "Modality": "MR",
      "NumberOfAverages": 1.0,
      "NumberOfPhaseEncodingSteps": 100,
      "PercentPhaseFieldOfView": 100.0,
      "PercentSampling": 100.0,
      "PerformedProcedureStepStartTime": "090645.996000",
      "PhotometricInterpretation": "MONOCHROME2",
      "PixelBandwidth": 2380.0,
      "PixelRepresentation": 0,
      "PixelSpacing": [2.0, 2.0],
      "ProtocolName": "bold_100x100_s3_2x2x2_232",
      "RepetitionTime": 2000.0,
      "Rows": 900,
      "SAR": 0.07007384061558,
      "SamplesPerPixel": 1,
      "ScanOptions": "FS",
      "ScanningSequence": "EP",
      "SequenceName": "*epfid2d1_100",
      "SequenceVariant": "SK",
      "SeriesDescription": "bold_100x100_s3_2x2x2_232",
      "SeriesNumber": 10,
      "SeriesTime": "095831.443000",
      "SliceLocation": -46.710842132568,
      "SliceThickness": 2.0,
      "SmallestImagePixelValue": 0,
      "SoftwareVersions": "syngo MR E11",
      "SpacingBetweenSlices": 1.9999999462719,
      "SpecificCharacterSet": "ISO_IR 100",
      "StudyID": "1",
      "StudyTime": "090645.912000",
      "TransmitCoilName": "Body",
      "VariableFlipAngleFlag": "N",
      "WindowCenterWidthExplanation": "Algo1",
      "dBdt": 0.0},
    "slices": {}
  },
  "time": {
    "samples": {
      "AcquisitionNumber": [1, 2, 3, 4, 5, 6, 7, 8, 9, 10, 11, 12, 13, 14, 15, 16, 17, 18, 19, 20, 21, 22, 23, 24, 25, 26, 27, 28, 29, 30, 31, 32, 33, 34, 35, 36, 37, 38, 39, 40, 41, 42, 43, 44, 45, 46, 47, 48, 49, 50, 51, 52, 53, 54, 55, 56, 57, 58, 59, 60, 61, 62, 63, 64, 65, 66, 67, 68, 69, 70, 71, 72, 73, 74, 75, 76, 77, 78, 79, 80, 81, 82, 83, 84, 85, 86, 87, 88, 89, 90, 91, 92, 93, 94, 95, 96, 97, 98, 99, 100, 101, 102, 103, 104, 105, 106, 107, 108, 109, 110, 111, 112, 113, 114, 115, 116, 117, 118, 119, 120, 121, 122, 123, 124, 125, 126, 127, 128, 129, 130, 131, 132, 133, 134, 135, 136, 137, 138, 139, 140, 141, 142, 143, 144, 145, 146, 147, 148, 149, 150, 151, 152, 153, 154, 155, 156, 157, 158, 159, 160, 161, 162, 163, 164, 165, 166, 167, 168, 169, 170, 171, 172, 173, 174, 175, 176, 177, 178, 179, 180, 181, 182, 183, 184, 185, 186, 187, 188, 189, 190, 191, 192, 193, 194, 195, 196, 197, 198, 199, 200, 201, 202, 203, 204, 205, 206, 207, 208, 209, 210, 211, 212, 213, 214, 215, 216, 217, 218, 219, 220, 221, 222, 223, 224, 225, 226, 227, 228, 229, 230, 231, 232],
      "AcquisitionTime": ["095829.160000", "095831.160000", "095833.160000", "095835.160000", "095837.160000", "095839.160000", "095841.160000", "095843.160000", "095845.160000", "095847.160000", "095849.160000", "095851.160000", "095853.160000", "095855.160000", "095857.160000", "095859.160000", "095901.160000", "095903.160000", "095905.160000", "095907.160000", "095909.160000", "095911.160000", "095913.160000", "095915.160000", "095917.160000", "095919.160000", "095921.160000", "095923.160000", "095925.160000", "095927.160000", "095929.160000", "095931.160000", "095933.160000", "095935.160000", "095937.160000", "095939.160000", "095941.160000", "095943.160000", "095945.160000", "095947.160000", "095949.160000", "095951.160000", "095953.160000", "095955.160000", "095957.160000", "095959.160000", "100001.160000", "100003.160000", "100005.160000", "100007.160000", "100009.160000", "100011.160000", "100013.160000", "100015.160000", "100017.160000", "100019.160000", "100021.160000", "100023.160000", "100025.160000", "100027.160000", "100029.160000", "100031.160000", "100033.160000", "100035.160000", "100037.160000", "100039.160000", "100041.160000", "100043.160000", "100045.160000", "100047.160000", "100049.160000", "100051.160000", "100053.160000", "100055.160000", "100057.160000", "100059.160000", "100101.160000", "100103.160000", "100105.160000", "100107.160000", "100109.160000", "100111.160000", "100113.160000", "100115.160000", "100117.160000", "100119.160000", "100121.160000", "100123.160000", "100125.160000", "100127.160000", "100129.160000", "100131.160000", "100133.160000", "100135.160000", "100137.160000", "100139.160000", "100141.160000", "100143.160000", "100145.160000", "100147.160000", "100149.160000", "100151.160000", "100153.160000", "100155.160000", "100157.160000", "100159.160000", "100201.160000", "100203.160000", "100205.160000", "100207.160000", "100209.160000", "100211.160000", "100213.160000", "100215.160000", "100217.160000", "100219.160000", "100221.160000", "100223.160000", "100225.160000", "100227.160000", "100229.160000", "100231.160000", "100233.160000", "100235.160000", "100237.160000", "100239.160000", "100241.160000", "100243.160000", "100245.160000", "100247.160000", "100249.160000", "100251.160000", "100253.160000", "100255.160000", "100257.160000", "100259.160000", "100301.160000", "100303.160000", "100305.160000", "100307.160000", "100309.160000", "100311.160000", "100313.160000", "100315.160000", "100317.160000", "100319.160000", "100321.160000", "100323.160000", "100325.160000", "100327.160000", "100329.160000", "100331.160000", "100333.160000", "100335.160000", "100337.160000", "100339.160000", "100341.160000", "100343.160000", "100345.160000", "100347.160000", "100349.160000", "100351.160000", "100353.160000", "100355.160000", "100357.160000", "100359.160000", "100401.160000", "100403.160000", "100405.160000", "100407.160000", "100409.160000", "100411.160000", "100413.160000", "100415.160000", "100417.160000", "100419.160000", "100421.160000", "100423.160000", "100425.160000", "100427.160000", "100429.160000", "100431.160000", "100433.160000", "100435.160000", "100437.160000", "100439.160000", "100441.160000", "100443.160000", "100445.160000", "100447.160000", "100449.160000", "100451.160000", "100453.160000", "100455.160000", "100457.160000", "100459.160000", "100501.160000", "100503.160000", "100505.160000", "100507.160000", "100509.160000", "100511.160000", "100513.160000", "100515.160000", "100517.160000", "100519.160000", "100521.160000", "100523.160000", "100525.160000", "100527.160000", "100529.160000", "100531.160000", "100533.160000", "100535.160000", "100537.160000", "100539.160000", "100541.160000", "100543.160000", "100545.160000", "100547.160000", "100549.160000", "100551.160000", "100553.160000", "100555.160000", "100557.160000", "100559.160000", "100601.160000", "100603.160000", "100605.160000", "100607.160000", "100609.160000", "100611.160000"],
      "ContentTime": ["095831.447000", "095832.943000", "095834.942000", "095836.942000", "095838.943000", "095840.942000", "095842.942000", "095844.943000", "095846.944000", "095848.942000", "095850.943000", "095852.942000", "095854.942000", "095856.942000", "095858.942000", "095900.943000", "095902.943000", "095904.944000", "095906.942000", "095908.942000", "095910.942000", "095912.943000", "095914.942000", "095916.942000", "095918.943000", "095920.943000", "095922.943000", "095924.943000", "095926.942000", "095928.942000", "095930.942000", "095932.943000", "095934.942000", "095936.943000", "095938.943000", "095940.942000", "095942.942000", "095944.942000", "095946.942000", "095948.943000", "095950.942000", "095952.943000", "095954.943000", "095956.943000", "095958.942000", "100000.943000", "100002.942000", "100004.943000", "100006.943000", "100008.943000", "100010.942000", "100012.943000", "100014.943000", "100016.942000", "100018.943000", "100020.942000", "100022.943000", "100024.943000", "100026.942000", "100028.942000", "100030.943000", "100032.944000", "100034.942000", "100036.942000", "100038.943000", "100040.942000", "100042.942000", "100044.942000", "100046.942000", "100048.943000", "100050.943000", "100052.942000", "100054.943000", "100056.943000", "100058.942000", "100100.942000", "100102.942000", "100104.943000", "100106.943000", "100108.942000", "100110.943000", "100112.943000", "100114.943000", "100116.942000", "100118.942000", "100120.943000", "100122.944000", "100124.944000", "100126.942000", "100128.943000", "100130.943000", "100132.942000", "100134.942000", "100136.943000", "100138.942000", "100140.943000", "100142.944000", "100144.943000", "100146.943000", "100148.942000", "100150.942000", "100152.942000", "100154.943000", "100156.942000", "100158.944000", "100200.943000", "100202.942000", "100204.942000", "100206.943000", "100208.943000", "100210.943000", "100212.943000", "100214.943000", "100216.943000", "100218.942000", "100220.943000", "100222.942000", "100224.943000", "100226.943000", "100228.942000", "100230.943000", "100232.943000", "100234.943000", "100236.942000", "100238.942000", "100240.942000", "100242.943000", "100244.942000", "100246.942000", "100248.942000", "100250.943000", "100252.944000", "100254.943000", "100256.942000", "100258.942000", "100300.942000", "100302.943000", "100304.943000", "100306.942000", "100308.943000", "100310.943000", "100312.942000", "100314.943000", "100316.942000", "100318.943000", "100320.943000", "100322.943000", "100324.944000", "100326.943000", "100328.943000", "100330.942000", "100332.943000", "100334.943000", "100336.942000", "100338.943000", "100340.943000", "100342.944000", "100344.944000", "100346.942000", "100348.942000", "100350.942000", "100352.943000", "100354.942000", "100356.942000", "100358.943000", "100400.943000", "100402.944000", "100404.942000", "100406.942000", "100408.943000", "100410.942000", "100412.942000", "100414.942000", "100416.942000", "100418.944000", "100420.942000", "100422.943000", "100424.942000", "100426.943000", "100428.943000", "100430.943000", "100432.943000", "100434.943000", "100436.943000", "100438.942000", "100440.942000", "100442.943000", "100444.943000", "100446.943000", "100448.943000", "100450.943000", "100452.943000", "100454.943000", "100456.943000", "100458.943000", "100500.942000", "100502.942000", "100504.942000", "100506.942000", "100508.943000", "100510.944000", "100512.943000", "100514.943000", "100516.942000", "100518.942000", "100520.942000", "100522.942000", "100524.942000", "100526.943000", "100528.957000", "100530.943000", "100532.942000", "100534.942000", "100536.943000", "100538.942000", "100540.942000", "100542.942000", "100544.943000", "100546.944000", "100548.942000", "100550.943000", "100552.942000", "100554.942000", "100556.943000", "100558.943000", "100600.942000", "100602.943000", "100604.944000", "100606.942000", "100608.943000", "100610.942000", "100612.571000"],
      "InstanceCreationTime": ["095831.447000", "095832.943000", "095834.942000", "095836.942000", "095838.943000", "095840.942000", "095842.942000", "095844.943000", "095846.944000", "095848.942000", "095850.943000", "095852.942000", "095854.942000", "095856.942000", "095858.942000", "095900.943000", "095902.943000", "095904.944000", "095906.942000", "095908.942000", "095910.942000", "095912.943000", "095914.942000", "095916.942000", "095918.943000", "095920.943000", "095922.943000", "095924.943000", "095926.942000", "095928.942000", "095930.942000", "095932.943000", "095934.942000", "095936.943000", "095938.943000", "095940.942000", "095942.942000", "095944.942000", "095946.942000", "095948.943000", "095950.942000", "095952.943000", "095954.943000", "095956.943000", "095958.942000", "100000.943000", "100002.942000", "100004.943000", "100006.943000", "100008.943000", "100010.942000", "100012.943000", "100014.943000", "100016.942000", "100018.943000", "100020.942000", "100022.943000", "100024.943000", "100026.942000", "100028.942000", "100030.943000", "100032.944000", "100034.942000", "100036.942000", "100038.943000", "100040.942000", "100042.942000", "100044.942000", "100046.942000", "100048.943000", "100050.943000", "100052.942000", "100054.943000", "100056.943000", "100058.942000", "100100.942000", "100102.942000", "100104.943000", "100106.943000", "100108.942000", "100110.943000", "100112.943000", "100114.943000", "100116.942000", "100118.942000", "100120.943000", "100122.944000", "100124.944000", "100126.942000", "100128.943000", "100130.943000", "100132.942000", "100134.942000", "100136.943000", "100138.942000", "100140.943000", "100142.944000", "100144.943000", "100146.943000", "100148.942000", "100150.942000", "100152.942000", "100154.943000", "100156.942000", "100158.944000", "100200.943000", "100202.942000", "100204.942000", "100206.943000", "100208.943000", "100210.943000", "100212.943000", "100214.943000", "100216.943000", "100218.942000", "100220.943000", "100222.942000", "100224.943000", "100226.943000", "100228.942000", "100230.943000", "100232.943000", "100234.943000", "100236.942000", "100238.942000", "100240.942000", "100242.943000", "100244.942000", "100246.942000", "100248.942000", "100250.943000", "100252.944000", "100254.943000", "100256.942000", "100258.942000", "100300.942000", "100302.943000", "100304.943000", "100306.942000", "100308.943000", "100310.943000", "100312.942000", "100314.943000", "100316.942000", "100318.943000", "100320.943000", "100322.943000", "100324.944000", "100326.943000", "100328.943000", "100330.942000", "100332.943000", "100334.943000", "100336.942000", "100338.943000", "100340.943000", "100342.944000", "100344.944000", "100346.942000", "100348.942000", "100350.942000", "100352.943000", "100354.942000", "100356.942000", "100358.943000", "100400.943000", "100402.944000", "100404.942000", "100406.942000", "100408.943000", "100410.942000", "100412.942000", "100414.942000", "100416.942000", "100418.944000", "100420.942000", "100422.943000", "100424.942000", "100426.943000", "100428.943000", "100430.943000", "100432.943000", "100434.943000", "100436.943000", "100438.942000", "100440.942000", "100442.943000", "100444.943000", "100446.943000", "100448.943000", "100450.943000", "100452.943000", "100454.943000", "100456.943000", "100458.943000", "100500.942000", "100502.942000", "100504.942000", "100506.942000", "100508.943000", "100510.944000", "100512.943000", "100514.943000", "100516.942000", "100518.942000", "100520.942000", "100522.942000", "100524.942000", "100526.943000", "100528.957000", "100530.943000", "100532.942000", "100534.942000", "100536.943000", "100538.942000", "100540.942000", "100542.942000", "100544.943000", "100546.944000", "100548.942000", "100550.943000", "100552.942000", "100554.942000", "100556.943000", "100558.943000", "100600.942000", "100602.943000", "100604.944000", "100606.942000", "100608.943000", "100610.942000", "100612.571000"],
      "InstanceNumber": [1, 2, 3, 4, 5, 6, 7, 8, 9, 10, 11, 12, 13, 14, 15, 16, 17, 18, 19, 20, 21, 22, 23, 24, 25, 26, 27, 28, 29, 30, 31, 32, 33, 34, 35, 36, 37, 38, 39, 40, 41, 42, 43, 44, 45, 46, 47, 48, 49, 50, 51, 52, 53, 54, 55, 56, 57, 58, 59, 60, 61, 62, 63, 64, 65, 66, 67, 68, 69, 70, 71, 72, 73, 74, 75, 76, 77, 78, 79, 80, 81, 82, 83, 84, 85, 86, 87, 88, 89, 90, 91, 92, 93, 94, 95, 96, 97, 98, 99, 100, 101, 102, 103, 104, 105, 106, 107, 108, 109, 110, 111, 112, 113, 114, 115, 116, 117, 118, 119, 120, 121, 122, 123, 124, 125, 126, 127, 128, 129, 130, 131, 132, 133, 134, 135, 136, 137, 138, 139, 140, 141, 142, 143, 144, 145, 146, 147, 148, 149, 150, 151, 152, 153, 154, 155, 156, 157, 158, 159, 160, 161, 162, 163, 164, 165, 166, 167, 168, 169, 170, 171, 172, 173, 174, 175, 176, 177, 178, 179, 180, 181, 182, 183, 184, 185, 186, 187, 188, 189, 190, 191, 192, 193, 194, 195, 196, 197, 198, 199, 200, 201, 202, 203, 204, 205, 206, 207, 208, 209, 210, 211, 212, 213, 214, 215, 216, 217, 218, 219, 220, 221, 222, 223, 224, 225, 226, 227, 228, 229, 230, 231, 232],
      "WindowCenter": [887.0, 885.0, 884.0, 884.0, 883.0, 882.0, 882.0, 882.0, 883.0, 885.0, 886.0, 885.0, 884.0, 884.0, 884.0, 884.0, 885.0, 887.0, 888.0, 887.0, 885.0, 885.0, 885.0, 884.0, 883.0, 882.0, 882.0, 882.0, 884.0, 885.0, 885.0, 884.0, 884.0, 885.0, 885.0, 885.0, 884.0, 883.0, 883.0, 883.0, 882.0, 882.0, 882.0, 882.0, 882.0, 883.0, 883.0, 883.0, 884.0, 885.0, 886.0, 887.0, 886.0, 885.0, 883.0, 882.0, 882.0, 883.0, 883.0, 882.0, 881.0, 879.0, 879.0, 879.0, 879.0, 880.0, 881.0, 883.0, 884.0, 883.0, 882.0, 882.0, 882.0, 882.0, 882.0, 884.0, 885.0, 885.0, 884.0, 883.0, 884.0, 885.0, 885.0, 886.0, 886.0, 885.0, 884.0, 885.0, 885.0, 886.0, 885.0, 885.0, 884.0, 883.0, 883.0, 883.0, 884.0, 885.0, 885.0, 885.0, 884.0, 884.0, 884.0, 884.0, 885.0, 885.0, 886.0, 886.0, 887.0, 886.0, 884.0, 885.0, 884.0, 884.0, 882.0, 882.0, 883.0, 882.0, 881.0, 880.0, 881.0, 882.0, 883.0, 885.0, 884.0, 884.0, 884.0, 885.0, 884.0, 884.0, 884.0, 884.0, 884.0, 883.0, 884.0, 884.0, 884.0, 885.0, 884.0, 884.0, 884.0, 883.0, 882.0, 882.0, 883.0, 884.0, 884.0, 883.0, 882.0, 882.0, 882.0, 883.0, 882.0, 882.0, 885.0, 883.0, 882.0, 882.0, 882.0, 883.0, 882.0, 882.0, 883.0, 884.0, 885.0, 885.0, 884.0, 883.0, 883.0, 884.0, 885.0, 886.0, 886.0, 884.0, 884.0, 884.0, 885.0, 886.0, 888.0, 887.0, 885.0, 884.0, 884.0, 885.0, 885.0, 887.0, 886.0, 886.0, 885.0, 883.0, 882.0, 883.0, 884.0, 885.0, 886.0, 886.0, 886.0, 885.0, 886.0, 886.0, 886.0, 885.0, 884.0, 883.0, 884.0, 884.0, 885.0, 885.0, 885.0, 886.0, 887.0, 887.0, 886.0, 886.0, 886.0, 886.0, 885.0, 885.0, 886.0, 887.0, 888.0, 888.0, 887.0, 887.0, 887.0, 887.0, 889.0, 889.0, 888.0, 889.0, 888.0, 888.0],
      "WindowWidth": [1929.0, 1921.0, 1918.0, 1918.0, 1915.0, 1913.0, 1912.0, 1913.0, 1916.0, 1920.0, 1924.0, 1922.0, 1918.0, 1918.0, 1918.0, 1919.0, 1921.0, 1926.0, 1929.0, 1924.0, 1920.0, 1919.0, 1919.0, 1918.0, 1916.0, 1913.0, 1913.0, 1914.0, 1918.0, 1922.0, 1922.0, 1918.0, 1918.0, 1920.0, 1921.0, 1921.0, 1919.0, 1917.0, 1915.0, 1914.0, 1913.0, 1913.0, 1912.0, 1912.0, 1911.0, 1914.0, 1916.0, 1917.0, 1917.0, 1920.0, 1924.0, 1926.0, 1925.0, 1922.0, 1914.0, 1913.0, 1912.0, 1915.0, 1917.0, 1912.0, 1909.0, 1906.0, 1906.0, 1905.0, 1904.0, 1907.0, 1910.0, 1916.0, 1919.0, 1917.0, 1913.0, 1913.0, 1911.0, 1912.0, 1914.0, 1918.0, 1920.0, 1919.0, 1917.0, 1915.0, 1917.0, 1919.0, 1921.0, 1923.0, 1923.0, 1920.0, 1919.0, 1920.0, 1919.0, 1923.0, 1921.0, 1920.0, 1916.0, 1914.0, 1913.0, 1914.0, 1918.0, 1919.0, 1920.0, 1920.0, 1918.0, 1916.0, 1916.0, 1917.0, 1919.0, 1920.0, 1922.0, 1924.0, 1925.0, 1922.0, 1918.0, 1919.0, 1917.0, 1916.0, 1913.0, 1912.0, 1915.0, 1912.0, 1909.0, 1907.0, 1909.0, 1911.0, 1916.0, 1920.0, 1918.0, 1918.0, 1918.0, 1919.0, 1918.0, 1917.0, 1918.0, 1918.0, 1918.0, 1916.0, 1917.0, 1919.0, 1919.0, 1921.0, 1919.0, 1917.0, 1916.0, 1914.0, 1913.0, 1914.0, 1916.0, 1917.0, 1916.0, 1915.0, 1913.0, 1913.0, 1913.0, 1914.0, 1911.0, 1914.0, 1920.0, 1916.0, 1911.0, 1912.0, 1914.0, 1914.0, 1914.0, 1914.0, 1917.0, 1919.0, 1921.0, 1921.0, 1918.0, 1914.0, 1915.0, 1917.0, 1921.0, 1922.0, 1922.0, 1919.0, 1916.0, 1918.0, 1920.0, 1925.0, 1928.0, 1926.0, 1919.0, 1916.0, 1917.0, 1920.0, 1922.0, 1925.0, 1924.0, 1923.0, 1920.0, 1914.0, 1914.0, 1915.0, 1917.0, 1920.0, 1922.0, 1923.0, 1922.0, 1920.0, 1923.0, 1925.0, 1922.0, 1920.0, 1917.0, 1916.0, 1917.0, 1919.0, 1920.0, 1919.0, 1920.0, 1923.0, 1925.0, 1925.0, 1921.0, 1921.0, 1920.0, 1921.0, 1918.0, 1918.0, 1921.0, 1924.0, 1927.0, 1927.0, 1926.0, 1924.0, 1923.0, 1925.0, 1929.0, 1929.0, 1926.0, 1928.0, 1928.0, 1927.0]
    },
    "slices": {}
  }
}