{
  "AcquisitionMatrixPE": 100,
  "AcquisitionNumber": 1,
  "AcquisitionTime": "13:08:13.127500",
  "BandwidthPerPixelPhaseEncode": 18.519,
  "BaseResolution": 100,
  "BodyPartExamined": "BRAIN",
  "ConsistencyInfo": "N4_VE11C_LATEST_20160120",
  "ConversionSoftware": "dcm2niix",
  "ConversionSoftwareVersion": "v1.0.20180622 GCC4.9.2",
  "DerivedVendorReportedEchoSpacing": 0.000539986,
  "DeviceSerialNumber": "166078",
  "DwellTime": 2.1e-06,
  "EchoTime": 0.034,
  "EchoTrainLength": 100,
  "EffectiveEchoSpacing": 0.000539986,
  "FlipAngle": 90,
  "ImageOrientationPatientDICOM": [0.996287, -0.0165983, 0.0844757, 0.0278288, 0.99065, -0.133557],
  "ImageType": [
    "ORIGINAL",
    "PRIMARY",
    "M",
    "ND",
    "MOSAIC"
],
  "InPlanePhaseEncodingDirectionDICOM": "COL",
  "InstitutionAddress": "Street_StreetNo_Bei_Jing_District_CN_ZIP",
  "InstitutionName": "BeiJing_Normal_University",
  "InstitutionalDepartmentName": "Department",
  "MRAcquisitionType": "2D",
  "MagneticFieldStrength": 3,
  "Manufacturer": "Siemens",
  "ManufacturersModelName": "Prisma",
  "Modality": "MR",
  "MultibandAccelerationFactor": 3,
  "PartialFourier": 1,
  "PatientPosition": "HFS",
  "PercentPhaseFOV": 100,
  "PhaseEncodingDirection": "j-",
  "PhaseEncodingSteps": 100,
  "PhaseResolution": 1,
  "PixelBandwidth": 2380,
  "ProcedureStepDescription": "BNU_P2018_64CH_Liu.Jia",
  "ProtocolName": "bold_100x100_s3_2x2x2_232",
  "PulseSequenceDetails": "%SiemensSeq%_ep2d_bold",
  "ReceiveCoilActiveElements": "HC1-7;NC1",
  "ReceiveCoilName": "HeadNeck_64",
  "ReconMatrixPE": 100,
  "RepetitionTime": 2,
  "SAR": 0.0679034,
  "ScanOptions": "FS",
  "ScanningSequence": "EP",
  "SequenceName": "_epfid2d1_100",
  "SequenceVariant": "SK",
  "SeriesDescription": "bold_100x100_s3_2x2x2_232",
  "SeriesNumber": 4,
  "ShimSetting": [-5341, -11440, -1434, 351, 393, -436, -728, -81],
  "SliceThickness": 2,
  "SliceTiming": [1.485, 0, 0.99, 0.0825, 1.0725, 0.165, 1.155, 0.2475, 1.2375, 0.33, 1.32, 0.4125, 1.4025, 0.5775, 1.5675, 0.66, 1.65, 0.7425, 1.7325, 0.825, 1.815, 0.9075, 1.8975, 0.495, 1.485, 0, 0.99, 0.0825, 1.0725, 0.165, 1.155, 0.2475, 1.2375, 0.33, 1.32, 0.4125, 1.4025, 0.5775, 1.5675, 0.66, 1.65, 0.7425, 1.7325, 0.825, 1.815, 0.9075, 1.8975, 0.495, 1.485, 0, 0.99, 0.0825, 1.0725, 0.165, 1.155, 0.2475, 1.2375, 0.33, 1.32, 0.4125, 1.4025, 0.5775, 1.5675, 0.66, 1.65, 0.7425, 1.7325, 0.825, 1.815, 0.9075, 1.8975, 0.495],
  "SoftwareVersions": "syngo_MR_E11",
  "SpacingBetweenSlices": 2,
  "StationName": "AWP166078",
  "TaskName": "motor",
  "TotalReadoutTime": 0.0534586,
  "TxRefAmp": 206.451,
  "dcmmeta_affine": [
    [-1.9925745725631714, 0.05565755069255829, 0.16293814778327942, 91.73544311523438],
    [0.03319667652249336, 1.981300711631775, -0.27082359790802, -84.05330657958984],
    [0.16895142197608948, 0.267113596200943, 1.9748685359954834, -91.02314758300781],
    [0.0, 0.0, 0.0, 1.0]
],
  "dcmmeta_reorient_transform": [
    [0.0, -1.0, 0.0, 99.0],
    [1.0, 0.0, 0.0, 0.0],
    [0.0, 0.0, 1.0, 0.0],
    [0.0, 0.0, 0.0, 1.0]
],
  "dcmmeta_shape": [100, 100, 72, 232],
  "dcmmeta_slice_dim": 2,
  "dcmmeta_version": 0.6,
  "global": {
    "const": {
      "AcquisitionMatrix": [100, 0, 0, 100],
      "AngioFlag": "N",
      "BitsAllocated": 16,
      "BitsStored": 12,
      "BodyPartExamined": "BRAIN",
      "Columns": 900,
      "EchoNumbers": 1,
      "EchoTime": 34.0,
      "EchoTrainLength": 100,
      "FlipAngle": 90.0,
      "HighBit": 11,
      "ImageOrientationPatient": [0.99628728246288, -0.0165983378042, 0.08447571239635, 0.02782877551965, 0.99065036243136, -0.1335567994065],
      "ImagePositionPatient": [-916.53838887556, -891.33708305158, -25.314028832014],
      "ImageType": [
        "ORIGINAL",
        "PRIMARY",
        "M",
        "ND",
        "MOSAIC"
],
      "ImagedNucleus": "1H",
      "ImagingFrequency": 123.258034,
      "InPlanePhaseEncodingDirection": "COL",
      "MRAcquisitionType": "2D",
      "MagneticFieldStrength": 3.0,
      "Manufacturer": "SIEMENS",
      "ManufacturerModelName": "Prisma",
      "Modality": "MR",
      "NumberOfAverages": 1.0,
      "NumberOfPhaseEncodingSteps": 100,
      "PercentPhaseFieldOfView": 100.0,
      "PercentSampling": 100.0,
      "PerformedProcedureStepStartTime": "124841.844000",
      "PhotometricInterpretation": "MONOCHROME2",
      "PixelBandwidth": 2380.0,
      "PixelRepresentation": 0,
      "PixelSpacing": [2.0, 2.0],
      "ProtocolName": "bold_100x100_s3_2x2x2_232",
      "RepetitionTime": 2000.0,
      "Rows": 900,
      "SAR": 0.06790339473215,
      "SamplesPerPixel": 1,
      "ScanOptions": "FS",
      "ScanningSequence": "EP",
      "SequenceName": "*epfid2d1_100",
      "SequenceVariant": "SK",
      "SeriesDescription": "bold_100x100_s3_2x2x2_232",
      "SeriesNumber": 4,
      "SeriesTime": "130815.958000",
      "SliceLocation": -71.02396110373,
      "SliceThickness": 2.0,
      "SmallestImagePixelValue": 0,
      "SoftwareVersions": "syngo MR E11",
      "SpacingBetweenSlices": 2.0000000221116,
      "SpecificCharacterSet": "ISO_IR 100",
      "StudyID": "1",
      "StudyTime": "124841.752000",
      "TransmitCoilName": "Body",
      "VariableFlipAngleFlag": "N",
      "WindowCenterWidthExplanation": "Algo1",
      "dBdt": 0.0},
    "slices": {}
  },
  "time": {
    "samples": {
      "AcquisitionNumber": [1, 2, 3, 4, 5, 6, 7, 8, 9, 10, 11, 12, 13, 14, 15, 16, 17, 18, 19, 20, 21, 22, 23, 24, 25, 26, 27, 28, 29, 30, 31, 32, 33, 34, 35, 36, 37, 38, 39, 40, 41, 42, 43, 44, 45, 46, 47, 48, 49, 50, 51, 52, 53, 54, 55, 56, 57, 58, 59, 60, 61, 62, 63, 64, 65, 66, 67, 68, 69, 70, 71, 72, 73, 74, 75, 76, 77, 78, 79, 80, 81, 82, 83, 84, 85, 86, 87, 88, 89, 90, 91, 92, 93, 94, 95, 96, 97, 98, 99, 100, 101, 102, 103, 104, 105, 106, 107, 108, 109, 110, 111, 112, 113, 114, 115, 116, 117, 118, 119, 120, 121, 122, 123, 124, 125, 126, 127, 128, 129, 130, 131, 132, 133, 134, 135, 136, 137, 138, 139, 140, 141, 142, 143, 144, 145, 146, 147, 148, 149, 150, 151, 152, 153, 154, 155, 156, 157, 158, 159, 160, 161, 162, 163, 164, 165, 166, 167, 168, 169, 170, 171, 172, 173, 174, 175, 176, 177, 178, 179, 180, 181, 182, 183, 184, 185, 186, 187, 188, 189, 190, 191, 192, 193, 194, 195, 196, 197, 198, 199, 200, 201, 202, 203, 204, 205, 206, 207, 208, 209, 210, 211, 212, 213, 214, 215, 216, 217, 218, 219, 220, 221, 222, 223, 224, 225, 226, 227, 228, 229, 230, 231, 232],
      "AcquisitionTime": ["130813.127500", "130815.127500", "130817.127500", "130819.127500", "130821.127500", "130823.127500", "130825.127500", "130827.127500", "130829.127500", "130831.127500", "130833.127500", "130835.127500", "130837.127500", "130839.127500", "130841.127500", "130843.127500", "130845.127500", "130847.127500", "130849.127500", "130851.127500", "130853.127500", "130855.127500", "130857.127500", "130859.127500", "130901.127500", "130903.127500", "130905.127500", "130907.127500", "130909.127500", "130911.127500", "130913.127500", "130915.127500", "130917.127500", "130919.127500", "130921.127500", "130923.127500", "130925.127500", "130927.127500", "130929.127500", "130931.127500", "130933.127500", "130935.127500", "130937.127500", "130939.127500", "130941.127500", "130943.127500", "130945.127500", "130947.127500", "130949.127500", "130951.127500", "130953.127500", "130955.127500", "130957.127500", "130959.127500", "131001.127500", "131003.127500", "131005.127500", "131007.127500", "131009.127500", "131011.127500", "131013.127500", "131015.127500", "131017.127500", "131019.127500", "131021.127500", "131023.127500", "131025.127500", "131027.127500", "131029.127500", "131031.127500", "131033.127500", "131035.127500", "131037.127500", "131039.127500", "131041.127500", "131043.127500", "131045.127500", "131047.127500", "131049.127500", "131051.127500", "131053.127500", "131055.127500", "131057.127500", "131059.127500", "131101.127500", "131103.127500", "131105.127500", "131107.127500", "131109.127500", "131111.127500", "131113.127500", "131115.127500", "131117.127500", "131119.127500", "131121.127500", "131123.127500", "131125.127500", "131127.127500", "131129.127500", "131131.127500", "131133.127500", "131135.127500", "131137.127500", "131139.127500", "131141.127500", "131143.127500", "131145.127500", "131147.127500", "131149.127500", "131151.127500", "131153.127500", "131155.127500", "131157.127500", "131159.127500", "131201.127500", "131203.127500", "131205.127500", "131207.127500", "131209.127500", "131211.127500", "131213.127500", "131215.127500", "131217.127500", "131219.127500", "131221.127500", "131223.127500", "131225.127500", "131227.127500", "131229.127500", "131231.127500", "131233.127500", "131235.127500", "131237.127500", "131239.127500", "131241.127500", "131243.127500", "131245.127500", "131247.127500", "131249.127500", "131251.127500", "131253.127500", "131255.127500", "131257.127500", "131259.127500", "131301.127500", "131303.127500", "131305.127500", "131307.127500", "131309.127500", "131311.127500", "131313.127500", "131315.127500", "131317.127500", "131319.127500", "131321.127500", "131323.127500", "131325.127500", "131327.127500", "131329.127500", "131331.127500", "131333.127500", "131335.127500", "131337.127500", "131339.127500", "131341.127500", "131343.127500", "131345.127500", "131347.127500", "131349.127500", "131351.127500", "131353.127500", "131355.127500", "131357.127500", "131359.127500", "131401.127500", "131403.127500", "131405.127500", "131407.127500", "131409.127500", "131411.127500", "131413.127500", "131415.127500", "131417.127500", "131419.127500", "131421.127500", "131423.127500", "131425.127500", "131427.127500", "131429.127500", "131431.127500", "131433.127500", "131435.127500", "131437.127500", "131439.127500", "131441.127500", "131443.127500", "131445.127500", "131447.127500", "131449.127500", "131451.127500", "131453.127500", "131455.127500", "131457.127500", "131459.127500", "131501.127500", "131503.127500", "131505.127500", "131507.127500", "131509.127500", "131511.127500", "131513.127500", "131515.127500", "131517.127500", "131519.127500", "131521.127500", "131523.127500", "131525.127500", "131527.127500", "131529.127500", "131531.127500", "131533.127500", "131535.127500", "131537.127500", "131539.127500", "131541.127500", "131543.127500", "131545.127500", "131547.127500", "131549.127500", "131551.127500", "131553.127500", "131555.127500"],
      "ContentTime": ["130815.961000", "130817.457000", "130819.456000", "130821.456000", "130823.457000", "130825.456000", "130827.457000", "130829.457000", "130831.456000", "130833.457000", "130835.456000", "130837.457000", "130839.457000", "130841.457000", "130843.457000", "130845.457000", "130847.456000", "130849.456000", "130851.457000", "130853.456000", "130855.456000", "130857.457000", "130859.456000", "130901.457000", "130903.457000", "130905.456000", "130907.456000", "130909.457000", "130911.457000", "130913.457000", "130915.457000", "130917.456000", "130919.458000", "130921.457000", "130923.457000", "130925.456000", "130927.456000", "130929.456000", "130931.456000", "130933.457000", "130935.456000", "130937.457000", "130939.458000", "130941.457000", "130943.456000", "130945.456000", "130947.456000", "130949.457000", "130951.456000", "130953.456000", "130955.457000", "130957.456000", "130959.457000", "131001.456000", "131003.456000", "131005.456000", "131007.457000", "131009.456000", "131011.457000", "131013.458000", "131015.457000", "131017.456000", "131019.457000", "131021.456000", "131023.456000", "131025.457000", "131027.456000", "131029.458000", "131031.458000", "131033.456000", "131035.456000", "131037.457000", "131039.457000", "131041.456000", "131043.457000", "131045.457000", "131047.457000", "131049.457000", "131051.456000", "131053.456000", "131055.456000", "131057.457000", "131059.456000", "131101.457000", "131103.456000", "131105.458000", "131107.457000", "131109.456000", "131111.456000", "131113.457000", "131115.456000", "131117.456000", "131119.457000", "131121.458000", "131123.457000", "131125.457000", "131127.456000", "131129.457000", "131131.456000", "131133.456000", "131135.457000", "131137.457000", "131139.458000", "131141.457000", "131143.456000", "131145.456000", "131147.456000", "131149.457000", "131151.457000", "131153.457000", "131155.456000", "131157.458000", "131159.457000", "131201.456000", "131203.456000", "131205.456000", "131207.457000", "131209.456000", "131211.456000", "131213.456000", "131215.458000", "131217.457000", "131219.456000", "131221.456000", "131223.459000", "131225.457000", "131227.456000", "131229.456000", "131231.458000", "131233.458000", "131235.456000", "131237.456000", "131239.457000", "131241.456000", "131243.456000", "131245.457000", "131247.457000", "131249.457000", "131251.458000", "131253.456000", "131255.456000", "131257.456000", "131259.456000", "131301.456000", "131303.456000", "131305.456000", "131307.457000", "131309.458000", "131311.456000", "131313.456000", "131315.456000", "131317.456000", "131319.456000", "131321.456000", "131323.457000", "131325.458000", "131327.456000", "131329.456000", "131331.456000", "131333.456000", "131335.457000", "131337.456000", "131339.456000", "131341.458000", "131343.457000", "131345.456000", "131347.456000", "131349.456000", "131351.457000", "131353.457000", "131355.456000", "131357.456000", "131359.457000", "131401.458000", "131403.457000", "131405.457000", "131407.457000", "131409.456000", "131411.456000", "131413.456000", "131415.457000", "131417.458000", "131419.458000", "131421.456000", "131423.457000", "131425.456000", "131427.456000", "131429.456000", "131431.456000", "131433.456000", "131435.457000", "131437.456000", "131439.457000", "131441.456000", "131443.457000", "131445.456000", "131447.456000", "131449.456000", "131451.457000", "131453.457000", "131455.456000", "131457.456000", "131459.456000", "131501.457000", "131503.456000", "131505.456000", "131507.456000", "131509.457000", "131511.457000", "131513.456000", "131515.456000", "131517.456000", "131519.457000", "131521.457000", "131523.456000", "131525.456000", "131527.457000", "131529.458000", "131531.456000", "131533.456000", "131535.456000", "131537.457000", "131539.457000", "131541.457000", "131543.456000", "131545.457000", "131547.456000", "131549.457000", "131551.456000", "131553.457000", "131555.456000", "131557.039000"],
      "InstanceCreationTime": ["130815.961000", "130817.457000", "130819.456000", "130821.456000", "130823.457000", "130825.456000", "130827.457000", "130829.457000", "130831.456000", "130833.457000", "130835.456000", "130837.457000", "130839.457000", "130841.457000", "130843.457000", "130845.457000", "130847.456000", "130849.456000", "130851.457000", "130853.456000", "130855.456000", "130857.457000", "130859.456000", "130901.457000", "130903.457000", "130905.456000", "130907.456000", "130909.457000", "130911.457000", "130913.457000", "130915.457000", "130917.456000", "130919.458000", "130921.457000", "130923.457000", "130925.456000", "130927.456000", "130929.456000", "130931.456000", "130933.457000", "130935.456000", "130937.457000", "130939.458000", "130941.457000", "130943.456000", "130945.456000", "130947.456000", "130949.457000", "130951.456000", "130953.456000", "130955.457000", "130957.456000", "130959.457000", "131001.456000", "131003.456000", "131005.456000", "131007.457000", "131009.456000", "131011.457000", "131013.458000", "131015.457000", "131017.456000", "131019.457000", "131021.456000", "131023.456000", "131025.457000", "131027.456000", "131029.458000", "131031.458000", "131033.456000", "131035.456000", "131037.457000", "131039.457000", "131041.456000", "131043.457000", "131045.457000", "131047.457000", "131049.457000", "131051.456000", "131053.456000", "131055.456000", "131057.457000", "131059.456000", "131101.457000", "131103.456000", "131105.458000", "131107.457000", "131109.456000", "131111.456000", "131113.457000", "131115.456000", "131117.456000", "131119.457000", "131121.458000", "131123.457000", "131125.457000", "131127.456000", "131129.457000", "131131.456000", "131133.456000", "131135.457000", "131137.457000", "131139.458000", "131141.457000", "131143.456000", "131145.456000", "131147.456000", "131149.457000", "131151.457000", "131153.457000", "131155.456000", "131157.458000", "131159.457000", "131201.456000", "131203.456000", "131205.456000", "131207.457000", "131209.456000", "131211.456000", "131213.456000", "131215.458000", "131217.457000", "131219.456000", "131221.456000", "131223.459000", "131225.457000", "131227.456000", "131229.456000", "131231.458000", "131233.458000", "131235.456000", "131237.456000", "131239.457000", "131241.456000", "131243.456000", "131245.457000", "131247.457000", "131249.457000", "131251.458000", "131253.456000", "131255.456000", "131257.456000", "131259.456000", "131301.456000", "131303.456000", "131305.456000", "131307.457000", "131309.458000", "131311.456000", "131313.456000", "131315.456000", "131317.456000", "131319.456000", "131321.456000", "131323.457000", "131325.458000", "131327.456000", "131329.456000", "131331.456000", "131333.456000", "131335.457000", "131337.456000", "131339.456000", "131341.458000", "131343.457000", "131345.456000", "131347.456000", "131349.456000", "131351.457000", "131353.457000", "131355.456000", "131357.456000", "131359.457000", "131401.458000", "131403.457000", "131405.457000", "131407.457000", "131409.456000", "131411.456000", "131413.456000", "131415.457000", "131417.458000", "131419.458000", "131421.456000", "131423.457000", "131425.456000", "131427.456000", "131429.456000", "131431.456000", "131433.456000", "131435.457000", "131437.456000", "131439.457000", "131441.456000", "131443.457000", "131445.456000", "131447.456000", "131449.456000", "131451.457000", "131453.457000", "131455.456000", "131457.456000", "131459.456000", "131501.457000", "131503.456000", "131505.456000", "131507.456000", "131509.457000", "131511.457000", "131513.456000", "131515.456000", "131517.456000", "131519.457000", "131521.457000", "131523.456000", "131525.456000", "131527.457000", "131529.458000", "131531.456000", "131533.456000", "131535.456000", "131537.457000", "131539.457000", "131541.457000", "131543.456000", "131545.457000", "131547.456000", "131549.457000", "131551.456000", "131553.457000", "131555.456000", "131557.039000"],
      "InstanceNumber": [1, 2, 3, 4, 5, 6, 7, 8, 9, 10, 11, 12, 13, 14, 15, 16, 17, 18, 19, 20, 21, 22, 23, 24, 25, 26, 27, 28, 29, 30, 31, 32, 33, 34, 35, 36, 37, 38, 39, 40, 41, 42, 43, 44, 45, 46, 47, 48, 49, 50, 51, 52, 53, 54, 55, 56, 57, 58, 59, 60, 61, 62, 63, 64, 65, 66, 67, 68, 69, 70, 71, 72, 73, 74, 75, 76, 77, 78, 79, 80, 81, 82, 83, 84, 85, 86, 87, 88, 89, 90, 91, 92, 93, 94, 95, 96, 97, 98, 99, 100, 101, 102, 103, 104, 105, 106, 107, 108, 109, 110, 111, 112, 113, 114, 115, 116, 117, 118, 119, 120, 121, 122, 123, 124, 125, 126, 127, 128, 129, 130, 131, 132, 133, 134, 135, 136, 137, 138, 139, 140, 141, 142, 143, 144, 145, 146, 147, 148, 149, 150, 151, 152, 153, 154, 155, 156, 157, 158, 159, 160, 161, 162, 163, 164, 165, 166, 167, 168, 169, 170, 171, 172, 173, 174, 175, 176, 177, 178, 179, 180, 181, 182, 183, 184, 185, 186, 187, 188, 189, 190, 191, 192, 193, 194, 195, 196, 197, 198, 199, 200, 201, 202, 203, 204, 205, 206, 207, 208, 209, 210, 211, 212, 213, 214, 215, 216, 217, 218, 219, 220, 221, 222, 223, 224, 225, 226, 227, 228, 229, 230, 231, 232],
      "LargestImagePixelValue": [3934, 3924, 3878, 3908, 3925, 3909, 3949, 3943, 3900, 3949, 3898, 3896, 3934, 3921, 3900, 3854, 3872, 3893, 3870, 3838, 3835, 3849, 3885, 3846, 3875, 3832, 3855, 3876, 3839, 3953, 3967, 3853, 3847, 3871, 3884, 3861, 3872, 3838, 3782, 3786, 3864, 3984, 3881, 3927, 3999, 3948, 4016, 3942, 3974, 3885, 3863, 3875, 3902, 3999, 4088, 4059, 4010, 3937, 4000, 3931, 3957, 3958, 3971, 3981, 3957, 4063, 3991, 4022, 4034, 4042, 4021, 4016, 4017, 3919, 4010, 3982, 3980, 4003, 3993, 4028, 3993, 4063, 4065, 4039, 4044, 3993, 3975, 3986, 3997, 3993, 3996, 3994, 4060, 3991, 4013, 4035, 4027, 4064, 3896, 3921, 3840, 3893, 3894, 3952, 3946, 4053, 4029, 3908, 3948, 4012, 3969, 3882, 3991, 3925, 3885, 3881, 3908, 3937, 3912, 3905, 3968, 3954, 3972, 3986, 3966, 4032, 3994, 3940, 3973, 3962, 4022, 4095, 4095, 4095, 4095, 4095, 4088, 4016, 3979, 4034, 4004, 4007, 3966, 3922, 3872, 4029, 3923, 3882, 4033, 3987, 4049, 4067, 4079, 4029, 4065, 4000, 4065, 4036, 3990, 3986, 4007, 4095, 4062, 4089, 4060, 4095, 4095, 4095, 4095, 4062, 4043, 4041, 4070, 4067, 4086, 4021, 3954, 4095, 4091, 4095, 4095, 4095, 4086, 4095, 4095, 4088, 4095, 4095, 4095, 4095, 4095, 4062, 4095, 4095, 4095, 4076, 4095, 4095, 4095, 4095, 4090, 4075, 4078, 4078, 4095, 4076, 4095, 4095, 4073, 4069, 4069, 4095, 4063, 4008, 4040, 4034, 4004, 3979, 4069, 4094, 4048, 3997, 3971, 4005, 4095, 4095, 4088, 4095, 4095, 4035, 4048, 4034],
      "WindowCenter": [770.0, 769.0, 768.0, 767.0, 767.0, 768.0, 769.0, 769.0, 767.0, 768.0, 768.0, 769.0, 769.0, 769.0, 768.0, 768.0, 768.0, 769.0, 769.0, 768.0, 768.0, 768.0, 769.0, 769.0, 770.0, 769.0, 769.0, 769.0, 768.0, 769.0, 769.0, 769.0, 769.0, 769.0, 770.0, 770.0, 769.0, 769.0, 769.0, 769.0, 768.0, 770.0, 768.0, 770.0, 771.0, 771.0, 772.0, 770.0, 769.0, 768.0, 769.0, 769.0, 770.0, 769.0, 770.0, 770.0, 771.0, 771.0, 772.0, 771.0, 770.0, 770.0, 770.0, 769.0, 768.0, 770.0, 769.0, 769.0, 770.0, 770.0, 770.0, 771.0, 769.0, 768.0, 770.0, 770.0, 770.0, 770.0, 770.0, 770.0, 769.0, 769.0, 768.0, 768.0, 769.0, 769.0, 768.0, 768.0, 768.0, 769.0, 770.0, 770.0, 769.0, 768.0, 768.0, 768.0, 769.0, 769.0, 767.0, 767.0, 767.0, 768.0, 767.0, 768.0, 767.0, 767.0, 767.0, 766.0, 767.0, 769.0, 766.0, 765.0, 764.0, 764.0, 765.0, 766.0, 766.0, 766.0, 766.0, 766.0, 766.0, 768.0, 767.0, 768.0, 767.0, 767.0, 766.0, 767.0, 766.0, 768.0, 768.0, 768.0, 770.0, 771.0, 770.0, 768.0, 767.0, 767.0, 767.0, 767.0, 766.0, 766.0, 766.0, 763.0, 762.0, 762.0, 762.0, 765.0, 768.0, 767.0, 767.0, 767.0, 768.0, 767.0, 768.0, 768.0, 768.0, 768.0, 768.0, 769.0, 766.0, 769.0, 768.0, 767.0, 768.0, 768.0, 768.0, 769.0, 767.0, 768.0, 768.0, 768.0, 768.0, 768.0, 768.0, 766.0, 762.0, 767.0, 768.0, 767.0, 767.0, 766.0, 766.0, 765.0, 768.0, 769.0, 765.0, 769.0, 764.0, 769.0, 763.0, 767.0, 768.0, 767.0, 768.0, 769.0, 769.0, 770.0, 771.0, 771.0, 770.0, 769.0, 770.0, 770.0, 770.0, 769.0, 769.0, 770.0, 770.0, 770.0, 771.0, 770.0, 770.0, 769.0, 769.0, 769.0, 769.0, 769.0, 769.0, 769.0, 768.0, 768.0, 767.0, 767.0, 767.0, 767.0, 769.0, 771.0, 770.0, 768.0, 767.0, 767.0],
      "WindowWidth": [1695.0, 1692.0, 1689.0, 1685.0, 1685.0, 1687.0, 1691.0, 1689.0, 1686.0, 1688.0, 1689.0, 1690.0, 1691.0, 1690.0, 1689.0, 1688.0, 1689.0, 1691.0, 1691.0, 1688.0, 1687.0, 1687.0, 1690.0, 1692.0, 1693.0, 1691.0, 1691.0, 1691.0, 1689.0, 1691.0, 1691.0, 1690.0, 1689.0, 1692.0, 1694.0, 1694.0, 1692.0, 1692.0, 1691.0, 1689.0, 1686.0, 1694.0, 1689.0, 1694.0, 1696.0, 1696.0, 1699.0, 1693.0, 1691.0, 1689.0, 1690.0, 1692.0, 1693.0, 1693.0, 1695.0, 1695.0, 1695.0, 1697.0, 1698.0, 1696.0, 1693.0, 1692.0, 1691.0, 1688.0, 1686.0, 1693.0, 1690.0, 1691.0, 1692.0, 1692.0, 1694.0, 1695.0, 1691.0, 1687.0, 1694.0, 1694.0, 1692.0, 1694.0, 1694.0, 1693.0, 1690.0, 1691.0, 1689.0, 1687.0, 1689.0, 1690.0, 1687.0, 1687.0, 1686.0, 1688.0, 1692.0, 1693.0, 1691.0, 1688.0, 1687.0, 1688.0, 1688.0, 1690.0, 1684.0, 1685.0, 1684.0, 1686.0, 1684.0, 1685.0, 1685.0, 1686.0, 1685.0, 1683.0, 1686.0, 1690.0, 1680.0, 1678.0, 1675.0, 1675.0, 1678.0, 1682.0, 1682.0, 1680.0, 1680.0, 1681.0, 1682.0, 1687.0, 1683.0, 1686.0, 1685.0, 1685.0, 1681.0, 1683.0, 1682.0, 1686.0, 1686.0, 1687.0, 1692.0, 1695.0, 1692.0, 1688.0, 1685.0, 1683.0, 1683.0, 1684.0, 1681.0, 1682.0, 1680.0, 1672.0, 1670.0, 1671.0, 1671.0, 1677.0, 1685.0, 1684.0, 1684.0, 1684.0, 1685.0, 1683.0, 1687.0, 1687.0, 1687.0, 1685.0, 1686.0, 1689.0, 1680.0, 1692.0, 1688.0, 1686.0, 1686.0, 1687.0, 1687.0, 1690.0, 1683.0, 1686.0, 1686.0, 1686.0, 1687.0, 1687.0, 1686.0, 1682.0, 1669.0, 1684.0, 1686.0, 1685.0, 1683.0, 1682.0, 1682.0, 1680.0, 1686.0, 1690.0, 1681.0, 1691.0, 1676.0, 1691.0, 1675.0, 1683.0, 1687.0, 1685.0, 1688.0, 1689.0, 1690.0, 1694.0, 1695.0, 1695.0, 1693.0, 1691.0, 1692.0, 1693.0, 1694.0, 1691.0, 1691.0, 1692.0, 1694.0, 1693.0, 1695.0, 1694.0, 1693.0, 1691.0, 1690.0, 1690.0, 1689.0, 1689.0, 1688.0, 1689.0, 1687.0, 1685.0, 1685.0, 1684.0, 1684.0, 1686.0, 1691.0, 1696.0, 1691.0, 1686.0, 1684.0, 1684.0]
    },
    "slices": {}
  }
}