{
  "AcquisitionMatrixPE": 100,
  "AcquisitionNumber": 1,
  "AcquisitionTime": "13:08:12.610000",
  "BandwidthPerPixelPhaseEncode": 18.519,
  "BaseResolution": 100,
  "BodyPartExamined": "BRAIN",
  "ConsistencyInfo": "N4_VE11C_LATEST_20160120",
  "ConversionSoftware": "dcm2niix",
  "ConversionSoftwareVersion": "v1.0.20180622 GCC4.9.2",
  "DerivedVendorReportedEchoSpacing": 0.000539986,
  "DeviceSerialNumber": "166078",
  "DwellTime": 2.1e-06,
  "EchoTime": 0.034,
  "EchoTrainLength": 100,
  "EffectiveEchoSpacing": 0.000539986,
  "FlipAngle": 90,
  "ImageOrientationPatientDICOM": [1, 0, 0, 0, 0.996493, -0.0836778],
  "ImageType": [
    "ORIGINAL",
    "PRIMARY",
    "M",
    "ND",
    "MOSAIC"
],
  "InPlanePhaseEncodingDirectionDICOM": "COL",
  "InstitutionAddress": "Street_StreetNo_Bei_Jing_District_CN_ZIP",
  "InstitutionName": "BeiJing_Normal_University",
  "InstitutionalDepartmentName": "Department",
  "MRAcquisitionType": "2D",
  "MagneticFieldStrength": 3,
  "Manufacturer": "Siemens",
  "ManufacturersModelName": "Prisma",
  "Modality": "MR",
  "MultibandAccelerationFactor": 3,
  "PartialFourier": 1,
  "PatientPosition": "HFS",
  "PercentPhaseFOV": 100,
  "PhaseEncodingDirection": "j-",
  "PhaseEncodingSteps": 100,
  "PhaseResolution": 1,
  "PixelBandwidth": 2380,
  "ProcedureStepDescription": "BNU_P2018_64CH_Liu.Jia",
  "ProtocolName": "bold_100x100_s3_2x2x2_232",
  "PulseSequenceDetails": "%SiemensSeq%_ep2d_bold",
  "ReceiveCoilActiveElements": "HC1-7;NC1",
  "ReceiveCoilName": "HeadNeck_64",
  "ReconMatrixPE": 100,
  "RepetitionTime": 2,
  "SAR": 0.0797317,
  "ScanOptions": "FS",
  "ScanningSequence": "EP",
  "SequenceName": "_epfid2d1_100",
  "SequenceVariant": "SK",
  "SeriesDescription": "bold_100x100_s3_2x2x2_232",
  "SeriesNumber": 5,
  "ShimSetting": [-5473, -11498, -1261, 356, -60, -204, -229, 76],
  "SliceThickness": 2,
  "SliceTiming": [1.485, 0, 0.99, 0.0825, 1.0725, 0.165, 1.155, 0.2475, 1.2375, 0.33, 1.32, 0.4125, 1.4025, 0.5775, 1.5675, 0.66, 1.65, 0.7425, 1.7325, 0.825, 1.815, 0.9075, 1.8975, 0.495, 1.485, 0, 0.99, 0.0825, 1.0725, 0.165, 1.155, 0.2475, 1.2375, 0.33, 1.32, 0.4125, 1.4025, 0.5775, 1.5675, 0.66, 1.65, 0.7425, 1.7325, 0.825, 1.815, 0.9075, 1.8975, 0.495, 1.485, 0, 0.99, 0.0825, 1.0725, 0.165, 1.155, 0.2475, 1.2375, 0.33, 1.32, 0.4125, 1.4025, 0.5775, 1.5675, 0.66, 1.65, 0.7425, 1.7325, 0.825, 1.815, 0.9075, 1.8975, 0.495],
  "SoftwareVersions": "syngo_MR_E11",
  "SpacingBetweenSlices": 2,
  "StationName": "AWP166078",
  "TaskName": "motor",
  "TotalReadoutTime": 0.0534586,
  "TxRefAmp": 229.91,
  "dcmmeta_affine": [
    [-2.0, 0.0, 0.0, 100.0],
    [0.0, 1.992985725402832, -0.1673557013273239, -88.44288635253906],
    [0.0, 0.16735568642616272, 1.9929858446121216, -79.41407775878906],
    [0.0, 0.0, 0.0, 1.0]
],
  "dcmmeta_reorient_transform": [
    [0.0, -1.0, 0.0, 99.0],
    [1.0, 0.0, 0.0, 0.0],
    [0.0, 0.0, 1.0, 0.0],
    [0.0, 0.0, 0.0, 1.0]
],
  "dcmmeta_shape": [100, 100, 72, 232],
  "dcmmeta_slice_dim": 2,
  "dcmmeta_version": 0.6,
  "global": {
    "const": {
      "AcquisitionMatrix": [100, 0, 0, 100],
      "AngioFlag": "N",
      "BitsAllocated": 16,
      "BitsStored": 12,
      "BodyPartExamined": "BRAIN",
      "Columns": 900,
      "EchoNumbers": 1,
      "EchoTime": 34.0,
      "EchoTrainLength": 100,
      "FlipAngle": 90.0,
      "HighBit": 11,
      "ImageOrientationPatient": [1.0, 0.0, 0.0, 0.0, 0.9964928590495, -0.0836778457141],
      "ImagePositionPatient": [-900.0, -906.0569892441, 4.0964152076143],
      "ImageType": [
        "ORIGINAL",
        "PRIMARY",
        "M",
        "ND",
        "MOSAIC"
],
      "ImagedNucleus": "1H",
      "ImagingFrequency": 123.257821,
      "InPlanePhaseEncodingDirection": "COL",
      "MRAcquisitionType": "2D",
      "MagneticFieldStrength": 3.0,
      "Manufacturer": "SIEMENS",
      "ManufacturerModelName": "Prisma",
      "Modality": "MR",
      "NumberOfAverages": 1.0,
      "NumberOfPhaseEncodingSteps": 100,
      "PercentPhaseFieldOfView": 100.0,
      "PercentSampling": 100.0,
      "PerformedProcedureStepStartTime": "124751.412000",
      "PhotometricInterpretation": "MONOCHROME2",
      "PixelBandwidth": 2380.0,
      "PixelRepresentation": 0,
      "PixelSpacing": [2.0, 2.0],
      "ProtocolName": "bold_100x100_s3_2x2x2_232",
      "RepetitionTime": 2000.0,
      "Rows": 900,
      "SAR": 0.07973172227634,
      "SamplesPerPixel": 1,
      "ScanOptions": "FS",
      "ScanningSequence": "EP",
      "SequenceName": "*epfid2d1_100",
      "SequenceVariant": "SK",
      "SeriesDescription": "bold_100x100_s3_2x2x2_232",
      "SeriesNumber": 5,
      "SeriesTime": "130815.312000",
      "SliceLocation": -71.734848452043,
      "SliceThickness": 2.0,
      "SmallestImagePixelValue": 0,
      "SoftwareVersions": "syngo MR E11",
      "SpacingBetweenSlices": 2.0000000739599,
      "SpecificCharacterSet": "ISO_IR 100",
      "StudyID": "1",
      "StudyTime": "124751.316000",
      "TransmitCoilName": "Body",
      "VariableFlipAngleFlag": "N",
      "WindowCenterWidthExplanation": "Algo1",
      "dBdt": 0.0},
    "slices": {}
  },
  "time": {
    "samples": {
      "AcquisitionNumber": [1, 2, 3, 4, 5, 6, 7, 8, 9, 10, 11, 12, 13, 14, 15, 16, 17, 18, 19, 20, 21, 22, 23, 24, 25, 26, 27, 28, 29, 30, 31, 32, 33, 34, 35, 36, 37, 38, 39, 40, 41, 42, 43, 44, 45, 46, 47, 48, 49, 50, 51, 52, 53, 54, 55, 56, 57, 58, 59, 60, 61, 62, 63, 64, 65, 66, 67, 68, 69, 70, 71, 72, 73, 74, 75, 76, 77, 78, 79, 80, 81, 82, 83, 84, 85, 86, 87, 88, 89, 90, 91, 92, 93, 94, 95, 96, 97, 98, 99, 100, 101, 102, 103, 104, 105, 106, 107, 108, 109, 110, 111, 112, 113, 114, 115, 116, 117, 118, 119, 120, 121, 122, 123, 124, 125, 126, 127, 128, 129, 130, 131, 132, 133, 134, 135, 136, 137, 138, 139, 140, 141, 142, 143, 144, 145, 146, 147, 148, 149, 150, 151, 152, 153, 154, 155, 156, 157, 158, 159, 160, 161, 162, 163, 164, 165, 166, 167, 168, 169, 170, 171, 172, 173, 174, 175, 176, 177, 178, 179, 180, 181, 182, 183, 184, 185, 186, 187, 188, 189, 190, 191, 192, 193, 194, 195, 196, 197, 198, 199, 200, 201, 202, 203, 204, 205, 206, 207, 208, 209, 210, 211, 212, 213, 214, 215, 216, 217, 218, 219, 220, 221, 222, 223, 224, 225, 226, 227, 228, 229, 230, 231, 232],
      "AcquisitionTime": ["130812.610000", "130814.610000", "130816.610000", "130818.610000", "130820.610000", "130822.610000", "130824.610000", "130826.610000", "130828.610000", "130830.610000", "130832.610000", "130834.610000", "130836.610000", "130838.610000", "130840.610000", "130842.610000", "130844.610000", "130846.610000", "130848.610000", "130850.610000", "130852.610000", "130854.610000", "130856.610000", "130858.610000", "130900.610000", "130902.610000", "130904.610000", "130906.610000", "130908.610000", "130910.610000", "130912.610000", "130914.610000", "130916.610000", "130918.610000", "130920.610000", "130922.610000", "130924.610000", "130926.610000", "130928.610000", "130930.610000", "130932.610000", "130934.610000", "130936.610000", "130938.610000", "130940.610000", "130942.610000", "130944.610000", "130946.610000", "130948.610000", "130950.610000", "130952.610000", "130954.610000", "130956.610000", "130958.610000", "131000.610000", "131002.610000", "131004.610000", "131006.610000", "131008.610000", "131010.610000", "131012.610000", "131014.610000", "131016.610000", "131018.610000", "131020.610000", "131022.610000", "131024.610000", "131026.610000", "131028.610000", "131030.610000", "131032.610000", "131034.610000", "131036.610000", "131038.610000", "131040.610000", "131042.610000", "131044.610000", "131046.610000", "131048.610000", "131050.610000", "131052.610000", "131054.610000", "131056.610000", "131058.610000", "131100.610000", "131102.610000", "131104.610000", "131106.610000", "131108.610000", "131110.610000", "131112.610000", "131114.610000", "131116.610000", "131118.610000", "131120.610000", "131122.610000", "131124.610000", "131126.610000", "131128.610000", "131130.610000", "131132.610000", "131134.610000", "131136.610000", "131138.610000", "131140.610000", "131142.610000", "131144.610000", "131146.610000", "131148.610000", "131150.610000", "131152.610000", "131154.610000", "131156.610000", "131158.610000", "131200.610000", "131202.610000", "131204.610000", "131206.610000", "131208.610000", "131210.610000", "131212.610000", "131214.610000", "131216.610000", "131218.610000", "131220.610000", "131222.610000", "131224.610000", "131226.610000", "131228.610000", "131230.610000", "131232.610000", "131234.610000", "131236.610000", "131238.610000", "131240.610000", "131242.610000", "131244.610000", "131246.610000", "131248.610000", "131250.610000", "131252.610000", "131254.610000", "131256.610000", "131258.610000", "131300.610000", "131302.610000", "131304.610000", "131306.610000", "131308.610000", "131310.610000", "131312.610000", "131314.610000", "131316.610000", "131318.610000", "131320.610000", "131322.610000", "131324.610000", "131326.610000", "131328.610000", "131330.610000", "131332.610000", "131334.610000", "131336.610000", "131338.610000", "131340.610000", "131342.610000", "131344.610000", "131346.610000", "131348.610000", "131350.610000", "131352.610000", "131354.610000", "131356.610000", "131358.610000", "131400.610000", "131402.610000", "131404.610000", "131406.610000", "131408.610000", "131410.610000", "131412.610000", "131414.610000", "131416.610000", "131418.610000", "131420.610000", "131422.610000", "131424.610000", "131426.610000", "131428.610000", "131430.610000", "131432.610000", "131434.610000", "131436.610000", "131438.610000", "131440.610000", "131442.610000", "131444.610000", "131446.610000", "131448.610000", "131450.610000", "131452.610000", "131454.610000", "131456.610000", "131458.610000", "131500.610000", "131502.610000", "131504.610000", "131506.610000", "131508.610000", "131510.610000", "131512.610000", "131514.610000", "131516.610000", "131518.610000", "131520.610000", "131522.610000", "131524.610000", "131526.610000", "131528.610000", "131530.610000", "131532.610000", "131534.610000", "131536.610000", "131538.610000", "131540.610000", "131542.610000", "131544.610000", "131546.610000", "131548.610000", "131550.610000", "131552.610000", "131554.610000"],
      "ContentTime": ["130815.316000", "130816.811000", "130818.811000", "130820.812000", "130822.811000", "130824.812000", "130826.811000", "130828.811000", "130830.811000", "130832.811000", "130834.811000", "130836.811000", "130838.811000", "130840.811000", "130842.811000", "130844.811000", "130846.812000", "130848.811000", "130850.811000", "130852.811000", "130854.813000", "130856.811000", "130858.811000", "130900.811000", "130902.811000", "130904.812000", "130906.811000", "130908.811000", "130910.811000", "130912.812000", "130914.812000", "130916.812000", "130918.812000", "130920.811000", "130922.812000", "130924.811000", "130926.811000", "130928.812000", "130930.812000", "130932.811000", "130934.811000", "130936.811000", "130938.811000", "130940.812000", "130942.811000", "130944.811000", "130946.811000", "130948.811000", "130950.811000", "130952.811000", "130954.811000", "130956.811000", "130958.812000", "131000.812000", "131002.811000", "131004.813000", "131006.811000", "131008.812000", "131010.811000", "131012.811000", "131014.811000", "131016.811000", "131018.811000", "131020.812000", "131022.812000", "131024.812000", "131026.811000", "131028.812000", "131030.811000", "131032.812000", "131034.811000", "131036.811000", "131038.811000", "131040.812000", "131042.812000", "131044.811000", "131046.811000", "131048.811000", "131050.812000", "131052.812000", "131054.811000", "131056.812000", "131058.811000", "131100.811000", "131102.811000", "131104.811000", "131106.811000", "131108.812000", "131110.812000", "131112.811000", "131114.812000", "131116.811000", "131118.812000", "131120.811000", "131122.812000", "131124.812000", "131126.812000", "131128.811000", "131130.811000", "131132.812000", "131134.812000", "131136.812000", "131138.811000", "131140.811000", "131142.811000", "131144.811000", "131146.812000", "131148.811000", "131150.813000", "131152.811000", "131154.812000", "131156.811000", "131158.812000", "131200.811000", "131202.812000", "131204.811000", "131206.812000", "131208.812000", "131210.812000", "131212.812000", "131214.811000", "131216.820000", "131218.812000", "131220.811000", "131222.811000", "131224.812000", "131226.811000", "131228.811000", "131230.811000", "131232.812000", "131234.811000", "131236.811000", "131238.811000", "131240.811000", "131242.812000", "131244.811000", "131246.811000", "131248.812000", "131250.812000", "131252.811000", "131254.811000", "131256.811000", "131258.811000", "131300.812000", "131302.811000", "131304.812000", "131306.811000", "131308.811000", "131310.811000", "131312.811000", "131314.811000", "131316.812000", "131318.811000", "131320.811000", "131322.811000", "131324.811000", "131326.812000", "131328.811000", "131330.812000", "131332.812000", "131334.813000", "131336.812000", "131338.811000", "131340.812000", "131342.812000", "131344.812000", "131346.812000", "131348.811000", "131350.812000", "131352.813000", "131354.811000", "131356.811000", "131358.811000", "131400.812000", "131402.812000", "131404.811000", "131406.811000", "131408.812000", "131410.813000", "131412.811000", "131414.811000", "131416.811000", "131418.812000", "131420.811000", "131422.811000", "131424.812000", "131426.812000", "131428.812000", "131430.812000", "131432.812000", "131434.811000", "131436.811000", "131438.812000", "131440.812000", "131442.812000", "131444.812000", "131446.811000", "131448.811000", "131450.812000", "131452.811000", "131454.812000", "131456.811000", "131458.812000", "131500.812000", "131502.813000", "131504.811000", "131506.812000", "131508.812000", "131510.811000", "131512.811000", "131514.811000", "131516.812000", "131518.812000", "131520.813000", "131522.812000", "131524.812000", "131526.812000", "131528.812000", "131530.811000", "131532.812000", "131534.811000", "131536.812000", "131538.811000", "131540.811000", "131542.812000", "131544.811000", "131546.812000", "131548.831000", "131550.811000", "131552.811000", "131554.812000", "131556.447000"],
      "InstanceCreationTime": ["130815.316000", "130816.811000", "130818.811000", "130820.812000", "130822.811000", "130824.812000", "130826.811000", "130828.811000", "130830.811000", "130832.811000", "130834.811000", "130836.811000", "130838.811000", "130840.811000", "130842.811000", "130844.811000", "130846.812000", "130848.811000", "130850.811000", "130852.811000", "130854.813000", "130856.811000", "130858.811000", "130900.811000", "130902.811000", "130904.812000", "130906.811000", "130908.811000", "130910.811000", "130912.812000", "130914.812000", "130916.812000", "130918.812000", "130920.811000", "130922.812000", "130924.811000", "130926.811000", "130928.812000", "130930.812000", "130932.811000", "130934.811000", "130936.811000", "130938.811000", "130940.812000", "130942.811000", "130944.811000", "130946.811000", "130948.811000", "130950.811000", "130952.811000", "130954.811000", "130956.811000", "130958.812000", "131000.812000", "131002.811000", "131004.813000", "131006.811000", "131008.812000", "131010.811000", "131012.811000", "131014.811000", "131016.811000", "131018.811000", "131020.812000", "131022.812000", "131024.812000", "131026.811000", "131028.812000", "131030.811000", "131032.812000", "131034.811000", "131036.811000", "131038.811000", "131040.812000", "131042.812000", "131044.811000", "131046.811000", "131048.811000", "131050.812000", "131052.812000", "131054.811000", "131056.812000", "131058.811000", "131100.811000", "131102.811000", "131104.811000", "131106.811000", "131108.812000", "131110.812000", "131112.811000", "131114.812000", "131116.811000", "131118.812000", "131120.811000", "131122.812000", "131124.812000", "131126.812000", "131128.811000", "131130.811000", "131132.812000", "131134.812000", "131136.812000", "131138.811000", "131140.811000", "131142.811000", "131144.811000", "131146.812000", "131148.811000", "131150.813000", "131152.811000", "131154.812000", "131156.811000", "131158.812000", "131200.811000", "131202.812000", "131204.811000", "131206.812000", "131208.812000", "131210.812000", "131212.812000", "131214.811000", "131216.820000", "131218.812000", "131220.811000", "131222.811000", "131224.812000", "131226.811000", "131228.811000", "131230.811000", "131232.812000", "131234.811000", "131236.811000", "131238.811000", "131240.811000", "131242.812000", "131244.811000", "131246.811000", "131248.812000", "131250.812000", "131252.811000", "131254.811000", "131256.811000", "131258.811000", "131300.812000", "131302.811000", "131304.812000", "131306.811000", "131308.811000", "131310.811000", "131312.811000", "131314.811000", "131316.812000", "131318.811000", "131320.811000", "131322.811000", "131324.811000", "131326.812000", "131328.811000", "131330.812000", "131332.812000", "131334.813000", "131336.812000", "131338.811000", "131340.812000", "131342.812000", "131344.812000", "131346.812000", "131348.811000", "131350.812000", "131352.813000", "131354.811000", "131356.811000", "131358.811000", "131400.812000", "131402.812000", "131404.811000", "131406.811000", "131408.812000", "131410.813000", "131412.811000", "131414.811000", "131416.811000", "131418.812000", "131420.811000", "131422.811000", "131424.812000", "131426.812000", "131428.812000", "131430.812000", "131432.812000", "131434.811000", "131436.811000", "131438.812000", "131440.812000", "131442.812000", "131444.812000", "131446.811000", "131448.811000", "131450.812000", "131452.811000", "131454.812000", "131456.811000", "131458.812000", "131500.812000", "131502.813000", "131504.811000", "131506.812000", "131508.812000", "131510.811000", "131512.811000", "131514.811000", "131516.812000", "131518.812000", "131520.813000", "131522.812000", "131524.812000", "131526.812000", "131528.812000", "131530.811000", "131532.812000", "131534.811000", "131536.812000", "131538.811000", "131540.811000", "131542.812000", "131544.811000", "131546.812000", "131548.831000", "131550.811000", "131552.811000", "131554.812000", "131556.447000"],
      "InstanceNumber": [1, 2, 3, 4, 5, 6, 7, 8, 9, 10, 11, 12, 13, 14, 15, 16, 17, 18, 19, 20, 21, 22, 23, 24, 25, 26, 27, 28, 29, 30, 31, 32, 33, 34, 35, 36, 37, 38, 39, 40, 41, 42, 43, 44, 45, 46, 47, 48, 49, 50, 51, 52, 53, 54, 55, 56, 57, 58, 59, 60, 61, 62, 63, 64, 65, 66, 67, 68, 69, 70, 71, 72, 73, 74, 75, 76, 77, 78, 79, 80, 81, 82, 83, 84, 85, 86, 87, 88, 89, 90, 91, 92, 93, 94, 95, 96, 97, 98, 99, 100, 101, 102, 103, 104, 105, 106, 107, 108, 109, 110, 111, 112, 113, 114, 115, 116, 117, 118, 119, 120, 121, 122, 123, 124, 125, 126, 127, 128, 129, 130, 131, 132, 133, 134, 135, 136, 137, 138, 139, 140, 141, 142, 143, 144, 145, 146, 147, 148, 149, 150, 151, 152, 153, 154, 155, 156, 157, 158, 159, 160, 161, 162, 163, 164, 165, 166, 167, 168, 169, 170, 171, 172, 173, 174, 175, 176, 177, 178, 179, 180, 181, 182, 183, 184, 185, 186, 187, 188, 189, 190, 191, 192, 193, 194, 195, 196, 197, 198, 199, 200, 201, 202, 203, 204, 205, 206, 207, 208, 209, 210, 211, 212, 213, 214, 215, 216, 217, 218, 219, 220, 221, 222, 223, 224, 225, 226, 227, 228, 229, 230, 231, 232],
      "LargestImagePixelValue": [2579, 2573, 2508, 2538, 2552, 2544, 2545, 2516, 2540, 2583, 2522, 2574, 2531, 2488, 2550, 2571, 2521, 2580, 2544, 2504, 2546, 2538, 2568, 2576, 2523, 2535, 2624, 2530, 2594, 2670, 2556, 2707, 2574, 2517, 2539, 2579, 2564, 2560, 2613, 2600, 2568, 2573, 2573, 2768, 2712, 2657, 2632, 2655, 2615, 2587, 2655, 2562, 2596, 2619, 2572, 2569, 2571, 2547, 2609, 2565, 2622, 2635, 2619, 2659, 2605, 2635, 2573, 2632, 2562, 2536, 2503, 2520, 2560, 2523, 2564, 2573, 2540, 2551, 2533, 2524, 2509, 2514, 2518, 2555, 2532, 2514, 2514, 2547, 2523, 2574, 2583, 2591, 2544, 2581, 2565, 2580, 2547, 2761, 2622, 2575, 2633, 2607, 2644, 2585, 2568, 2577, 2538, 2882, 2607, 2584, 2570, 2610, 2552, 2557, 2488, 2554, 2527, 2589, 2551, 2563, 2572, 2573, 2599, 2589, 2653, 2584, 2619, 2622, 2611, 2635, 2607, 2762, 2645, 2615, 2553, 2571, 2593, 2549, 2574, 2595, 2710, 2594, 2573, 2585, 2613, 2602, 2599, 2580, 2531, 2566, 2586, 2536, 2523, 2562, 2553, 2548, 2551, 2577, 2542, 2566, 2580, 2555, 2552, 2519, 2526, 2500, 2536, 2556, 2718, 2568, 2655, 2724, 2653, 2702, 2697, 2652, 2678, 2643, 2667, 2639, 2636, 2622, 2614, 2594, 2623, 2613, 2640, 2640, 2644, 2645, 2651, 2640, 2613, 2624, 2688, 2625, 2686, 2607, 2614, 2612, 2602, 2610, 2755, 2681, 2621, 2745, 2628, 2661, 2662, 2624, 2642, 2624, 2612, 2612, 2642, 2650, 2653, 2684, 2607, 2664, 2641, 2598, 2662, 2613, 2644, 2669, 2634, 2620, 2659, 2626, 2659, 2635],
      "WindowCenter": [728.0, 727.0, 726.0, 726.0, 727.0, 728.0, 729.0, 728.0, 726.0, 726.0, 727.0, 728.0, 727.0, 725.0, 725.0, 726.0, 726.0, 727.0, 726.0, 724.0, 725.0, 726.0, 727.0, 728.0, 727.0, 728.0, 730.0, 728.0, 728.0, 729.0, 728.0, 731.0, 729.0, 728.0, 728.0, 729.0, 729.0, 729.0, 729.0, 729.0, 728.0, 728.0, 725.0, 730.0, 731.0, 730.0, 728.0, 728.0, 727.0, 726.0, 727.0, 724.0, 725.0, 725.0, 727.0, 729.0, 730.0, 729.0, 730.0, 729.0, 728.0, 728.0, 729.0, 730.0, 729.0, 729.0, 729.0, 731.0, 729.0, 726.0, 724.0, 724.0, 725.0, 725.0, 725.0, 725.0, 724.0, 726.0, 726.0, 726.0, 727.0, 728.0, 729.0, 728.0, 725.0, 724.0, 726.0, 726.0, 726.0, 727.0, 726.0, 726.0, 726.0, 727.0, 728.0, 728.0, 727.0, 727.0, 729.0, 727.0, 723.0, 723.0, 727.0, 727.0, 728.0, 728.0, 729.0, 733.0, 730.0, 726.0, 726.0, 726.0, 727.0, 728.0, 727.0, 728.0, 726.0, 725.0, 724.0, 725.0, 726.0, 726.0, 727.0, 727.0, 728.0, 728.0, 729.0, 729.0, 729.0, 727.0, 722.0, 732.0, 731.0, 728.0, 727.0, 727.0, 729.0, 730.0, 730.0, 729.0, 730.0, 730.0, 730.0, 728.0, 727.0, 727.0, 728.0, 729.0, 728.0, 727.0, 726.0, 728.0, 729.0, 729.0, 728.0, 727.0, 727.0, 727.0, 727.0, 728.0, 729.0, 728.0, 728.0, 726.0, 727.0, 725.0, 726.0, 726.0, 728.0, 724.0, 730.0, 731.0, 728.0, 727.0, 726.0, 727.0, 731.0, 732.0, 730.0, 727.0, 728.0, 730.0, 730.0, 729.0, 728.0, 729.0, 731.0, 731.0, 730.0, 730.0, 728.0, 727.0, 728.0, 729.0, 729.0, 726.0, 728.0, 729.0, 730.0, 729.0, 728.0, 727.0, 730.0, 730.0, 726.0, 727.0, 725.0, 725.0, 727.0, 731.0, 731.0, 729.0, 728.0, 728.0, 729.0, 731.0, 731.0, 730.0, 729.0, 731.0, 730.0, 729.0, 729.0, 730.0, 731.0, 730.0, 729.0, 730.0, 730.0, 727.0, 726.0, 727.0],
      "WindowWidth": [1549.0, 1547.0, 1543.0, 1545.0, 1547.0, 1549.0, 1552.0, 1549.0, 1544.0, 1544.0, 1546.0, 1548.0, 1546.0, 1542.0, 1542.0, 1544.0, 1545.0, 1547.0, 1544.0, 1540.0, 1541.0, 1543.0, 1547.0, 1549.0, 1546.0, 1550.0, 1554.0, 1549.0, 1548.0, 1552.0, 1550.0, 1556.0, 1552.0, 1550.0, 1550.0, 1551.0, 1552.0, 1551.0, 1552.0, 1551.0, 1549.0, 1549.0, 1543.0, 1553.0, 1556.0, 1552.0, 1548.0, 1547.0, 1547.0, 1543.0, 1545.0, 1539.0, 1539.0, 1541.0, 1544.0, 1550.0, 1553.0, 1551.0, 1552.0, 1551.0, 1548.0, 1547.0, 1550.0, 1551.0, 1550.0, 1551.0, 1551.0, 1554.0, 1550.0, 1544.0, 1538.0, 1539.0, 1541.0, 1540.0, 1541.0, 1539.0, 1538.0, 1543.0, 1544.0, 1544.0, 1545.0, 1549.0, 1551.0, 1548.0, 1541.0, 1539.0, 1543.0, 1545.0, 1544.0, 1546.0, 1543.0, 1544.0, 1544.0, 1547.0, 1548.0, 1549.0, 1547.0, 1546.0, 1550.0, 1547.0, 1536.0, 1535.0, 1547.0, 1545.0, 1548.0, 1548.0, 1551.0, 1561.0, 1552.0, 1545.0, 1544.0, 1545.0, 1547.0, 1547.0, 1547.0, 1547.0, 1544.0, 1541.0, 1539.0, 1540.0, 1543.0, 1545.0, 1547.0, 1546.0, 1548.0, 1547.0, 1550.0, 1551.0, 1550.0, 1547.0, 1532.0, 1558.0, 1555.0, 1548.0, 1545.0, 1546.0, 1551.0, 1553.0, 1552.0, 1550.0, 1553.0, 1554.0, 1554.0, 1549.0, 1547.0, 1547.0, 1549.0, 1551.0, 1548.0, 1546.0, 1544.0, 1548.0, 1552.0, 1552.0, 1549.0, 1545.0, 1546.0, 1545.0, 1546.0, 1549.0, 1550.0, 1549.0, 1549.0, 1543.0, 1545.0, 1542.0, 1544.0, 1544.0, 1547.0, 1538.0, 1553.0, 1553.0, 1549.0, 1545.0, 1543.0, 1546.0, 1554.0, 1558.0, 1552.0, 1546.0, 1547.0, 1552.0, 1551.0, 1549.0, 1549.0, 1551.0, 1556.0, 1555.0, 1553.0, 1552.0, 1547.0, 1546.0, 1548.0, 1550.0, 1549.0, 1543.0, 1547.0, 1550.0, 1552.0, 1551.0, 1549.0, 1547.0, 1552.0, 1552.0, 1543.0, 1545.0, 1540.0, 1542.0, 1547.0, 1555.0, 1555.0, 1550.0, 1548.0, 1549.0, 1552.0, 1555.0, 1555.0, 1554.0, 1551.0, 1554.0, 1553.0, 1551.0, 1551.0, 1554.0, 1554.0, 1552.0, 1550.0, 1554.0, 1554.0, 1545.0, 1543.0, 1545.0]
    },
    "slices": {}
  }
}