{
  "AcquisitionMatrixPE": 100,
  "AcquisitionNumber": 1,
  "AcquisitionTime": "11:12:4.977500",
  "BandwidthPerPixelPhaseEncode": 18.519,
  "BaseResolution": 100,
  "BodyPartExamined": "BRAIN",
  "ConsistencyInfo": "N4_VE11C_LATEST_20160120",
  "ConversionSoftware": "dcm2niix",
  "ConversionSoftwareVersion": "v1.0.20180622 GCC4.9.2",
  "DerivedVendorReportedEchoSpacing": 0.000539986,
  "DeviceSerialNumber": "166078",
  "DwellTime": 2.1e-06,
  "EchoTime": 0.034,
  "EchoTrainLength": 100,
  "EffectiveEchoSpacing": 0.000539986,
  "FlipAngle": 90,
  "ImageOrientationPatientDICOM": [0.999152, 0.025026, 0.0327023, -0.015696, 0.965639, -0.259415],
  "ImageType": [
    "ORIGINAL",
    "PRIMARY",
    "M",
    "ND",
    "MOSAIC"
],
  "InPlanePhaseEncodingDirectionDICOM": "COL",
  "InstitutionAddress": "Street_StreetNo_Bei_Jing_District_CN_ZIP",
  "InstitutionName": "BeiJing_Normal_University",
  "InstitutionalDepartmentName": "Department",
  "MRAcquisitionType": "2D",
  "MagneticFieldStrength": 3,
  "Manufacturer": "Siemens",
  "ManufacturersModelName": "Prisma",
  "Modality": "MR",
  "MultibandAccelerationFactor": 3,
  "PartialFourier": 1,
  "PatientPosition": "HFS",
  "PercentPhaseFOV": 100,
  "PhaseEncodingDirection": "j-",
  "PhaseEncodingSteps": 100,
  "PhaseResolution": 1,
  "PixelBandwidth": 2380,
  "ProcedureStepDescription": "BNU_P2018_64CH_Liu.Jia",
  "ProtocolName": "bold_100x100_s3_2x2x2_232",
  "PulseSequenceDetails": "%SiemensSeq%_ep2d_bold",
  "ReceiveCoilActiveElements": "HC1-7;NC1",
  "ReceiveCoilName": "HeadNeck_64",
  "ReconMatrixPE": 100,
  "RepetitionTime": 2,
  "SAR": 0.0765725,
  "ScanOptions": "FS",
  "ScanningSequence": "EP",
  "SequenceName": "_epfid2d1_100",
  "SequenceVariant": "SK",
  "SeriesDescription": "bold_100x100_s3_2x2x2_232",
  "SeriesNumber": 10,
  "ShimSetting": [-5460, -11482, -1238, 508, -15, -78, -175, 37],
  "SliceThickness": 2,
  "SliceTiming": [1.485, 0, 0.99, 0.0825, 1.0725, 0.165, 1.155, 0.2475, 1.2375, 0.33, 1.32, 0.4125, 1.4025, 0.5775, 1.5675, 0.66, 1.65, 0.7425, 1.7325, 0.825, 1.815, 0.9075, 1.8975, 0.495, 1.485, 0, 0.99, 0.0825, 1.0725, 0.165, 1.155, 0.2475, 1.2375, 0.33, 1.32, 0.4125, 1.4025, 0.5775, 1.5675, 0.66, 1.65, 0.7425, 1.7325, 0.825, 1.815, 0.9075, 1.8975, 0.495, 1.485, 0, 0.99, 0.0825, 1.0725, 0.165, 1.155, 0.2475, 1.2375, 0.33, 1.32, 0.4125, 1.4025, 0.5775, 1.5675, 0.66, 1.65, 0.7425, 1.7325, 0.825, 1.815, 0.9075, 1.8975, 0.495],
  "SoftwareVersions": "syngo_MR_E11",
  "SpacingBetweenSlices": 2,
  "StationName": "AWP166078",
  "TaskName": "motor",
  "TotalReadoutTime": 0.0534586,
  "TxRefAmp": 233.13,
  "dcmmeta_affine": [
    [-1.9983035326004028, -0.0313919372856617, 0.07614148408174515, 102.82117462158203],
    [-0.050052087754011154, 1.9312770366668701, -0.5173624157905579, -69.71002197265625],
    [0.06540464609861374, 0.5188290476799011, 1.9304245710372925, -101.4394760131836],
    [0.0, 0.0, 0.0, 1.0]
],
  "dcmmeta_reorient_transform": [
    [0.0, -1.0, 0.0, 99.0],
    [1.0, 0.0, 0.0, 0.0],
    [0.0, 0.0, 1.0, 0.0],
    [0.0, 0.0, 0.0, 1.0]
],
  "dcmmeta_shape": [100, 100, 72, 232],
  "dcmmeta_slice_dim": 2,
  "dcmmeta_version": 0.6,
  "global": {
    "const": {
      "AcquisitionMatrix": [100, 0, 0, 100],
      "AngioFlag": "N",
      "BitsAllocated": 16,
      "BitsStored": 12,
      "BodyPartExamined": "BRAIN",
      "Columns": 900,
      "EchoNumbers": 1,
      "EchoTime": 34.0,
      "EchoTrainLength": 100,
      "FlipAngle": 90.0,
      "HighBit": 11,
      "ImageOrientationPatient": [0.9991517678411, 0.02502604411115, 0.03270232310034, -0.0156959678068, 0.9656385113953, -0.2594145368033],
      "ImagePositionPatient": [-886.47801549825, -914.01804471899, 131.29437215446],
      "ImageType": [
        "ORIGINAL",
        "PRIMARY",
        "M",
        "ND",
        "MOSAIC"
],
      "ImagedNucleus": "1H",
      "ImagingFrequency": 123.257846,
      "InPlanePhaseEncodingDirection": "COL",
      "MRAcquisitionType": "2D",
      "MagneticFieldStrength": 3.0,
      "Manufacturer": "SIEMENS",
      "ManufacturerModelName": "Prisma",
      "Modality": "MR",
      "NumberOfAverages": 1.0,
      "NumberOfPhaseEncodingSteps": 100,
      "PercentPhaseFieldOfView": 100.0,
      "PercentSampling": 100.0,
      "PerformedProcedureStepStartTime": "102220.594000",
      "PhotometricInterpretation": "MONOCHROME2",
      "PixelBandwidth": 2380.0,
      "PixelRepresentation": 0,
      "PixelSpacing": [2.0, 2.0],
      "ProtocolName": "bold_100x100_s3_2x2x2_232",
      "RepetitionTime": 2000.0,
      "Rows": 900,
      "SAR": 0.0765724901123,
      "SamplesPerPixel": 1,
      "ScanOptions": "FS",
      "ScanningSequence": "EP",
      "SequenceName": "*epfid2d1_100",
      "SequenceVariant": "SK",
      "SeriesDescription": "bold_100x100_s3_2x2x2_232",
      "SeriesNumber": 10,
      "SeriesTime": "111207.542000",
      "SliceLocation": -75.963472950795,
      "SliceThickness": 2.0,
      "SmallestImagePixelValue": 0,
      "SoftwareVersions": "syngo MR E11",
      "SpacingBetweenSlices": 2.0000000749309,
      "SpecificCharacterSet": "ISO_IR 100",
      "StudyID": "1",
      "StudyTime": "102220.543000",
      "TransmitCoilName": "Body",
      "VariableFlipAngleFlag": "N",
      "WindowCenterWidthExplanation": "Algo1",
      "dBdt": 0.0},
    "slices": {}
  },
  "time": {
    "samples": {
      "AcquisitionNumber": [1, 2, 3, 4, 5, 6, 7, 8, 9, 10, 11, 12, 13, 14, 15, 16, 17, 18, 19, 20, 21, 22, 23, 24, 25, 26, 27, 28, 29, 30, 31, 32, 33, 34, 35, 36, 37, 38, 39, 40, 41, 42, 43, 44, 45, 46, 47, 48, 49, 50, 51, 52, 53, 54, 55, 56, 57, 58, 59, 60, 61, 62, 63, 64, 65, 66, 67, 68, 69, 70, 71, 72, 73, 74, 75, 76, 77, 78, 79, 80, 81, 82, 83, 84, 85, 86, 87, 88, 89, 90, 91, 92, 93, 94, 95, 96, 97, 98, 99, 100, 101, 102, 103, 104, 105, 106, 107, 108, 109, 110, 111, 112, 113, 114, 115, 116, 117, 118, 119, 120, 121, 122, 123, 124, 125, 126, 127, 128, 129, 130, 131, 132, 133, 134, 135, 136, 137, 138, 139, 140, 141, 142, 143, 144, 145, 146, 147, 148, 149, 150, 151, 152, 153, 154, 155, 156, 157, 158, 159, 160, 161, 162, 163, 164, 165, 166, 167, 168, 169, 170, 171, 172, 173, 174, 175, 176, 177, 178, 179, 180, 181, 182, 183, 184, 185, 186, 187, 188, 189, 190, 191, 192, 193, 194, 195, 196, 197, 198, 199, 200, 201, 202, 203, 204, 205, 206, 207, 208, 209, 210, 211, 212, 213, 214, 215, 216, 217, 218, 219, 220, 221, 222, 223, 224, 225, 226, 227, 228, 229, 230, 231, 232],
      "AcquisitionTime": ["111204.977500", "111206.977500", "111208.977500", "111210.977500", "111212.977500", "111214.977500", "111216.977500", "111218.977500", "111220.977500", "111222.977500", "111224.977500", "111226.977500", "111228.977500", "111230.977500", "111232.977500", "111234.977500", "111236.977500", "111238.977500", "111240.977500", "111242.977500", "111244.977500", "111246.977500", "111248.977500", "111250.977500", "111252.977500", "111254.977500", "111256.977500", "111258.977500", "111300.977500", "111302.977500", "111304.977500", "111306.977500", "111308.977500", "111310.977500", "111312.977500", "111314.977500", "111316.977500", "111318.977500", "111320.977500", "111322.977500", "111324.977500", "111326.977500", "111328.977500", "111330.977500", "111332.977500", "111334.977500", "111336.977500", "111338.977500", "111340.977500", "111342.977500", "111344.977500", "111346.977500", "111348.977500", "111350.977500", "111352.977500", "111354.977500", "111356.977500", "111358.977500", "111400.977500", "111402.977500", "111404.977500", "111406.977500", "111408.977500", "111410.977500", "111412.977500", "111414.977500", "111416.977500", "111418.977500", "111420.977500", "111422.977500", "111424.977500", "111426.977500", "111428.977500", "111430.977500", "111432.977500", "111434.977500", "111436.977500", "111438.977500", "111440.977500", "111442.977500", "111444.977500", "111446.977500", "111448.977500", "111450.977500", "111452.977500", "111454.977500", "111456.977500", "111458.977500", "111500.977500", "111502.977500", "111504.977500", "111506.977500", "111508.977500", "111510.977500", "111512.977500", "111514.977500", "111516.977500", "111518.977500", "111520.977500", "111522.977500", "111524.977500", "111526.977500", "111528.977500", "111530.977500", "111532.977500", "111534.977500", "111536.977500", "111538.977500", "111540.977500", "111542.977500", "111544.977500", "111546.977500", "111548.977500", "111550.977500", "111552.977500", "111554.977500", "111556.977500", "111558.977500", "111600.977500", "111602.977500", "111604.977500", "111606.977500", "111608.977500", "111610.977500", "111612.977500", "111614.977500", "111616.977500", "111618.977500", "111620.977500", "111622.977500", "111624.977500", "111626.977500", "111628.977500", "111630.977500", "111632.977500", "111634.977500", "111636.977500", "111638.977500", "111640.977500", "111642.977500", "111644.977500", "111646.977500", "111648.977500", "111650.977500", "111652.977500", "111654.977500", "111656.977500", "111658.977500", "111700.977500", "111702.977500", "111704.977500", "111706.977500", "111708.977500", "111710.977500", "111712.977500", "111714.977500", "111716.977500", "111718.977500", "111720.977500", "111722.977500", "111724.977500", "111726.977500", "111728.977500", "111730.977500", "111732.977500", "111734.977500", "111736.977500", "111738.977500", "111740.977500", "111742.977500", "111744.977500", "111746.977500", "111748.977500", "111750.977500", "111752.977500", "111754.977500", "111756.977500", "111758.977500", "111800.977500", "111802.977500", "111804.977500", "111806.977500", "111808.977500", "111810.977500", "111812.977500", "111814.977500", "111816.977500", "111818.977500", "111820.977500", "111822.977500", "111824.977500", "111826.977500", "111828.977500", "111830.977500", "111832.977500", "111834.977500", "111836.977500", "111838.977500", "111840.977500", "111842.977500", "111844.977500", "111846.977500", "111848.977500", "111850.977500", "111852.977500", "111854.977500", "111856.977500", "111858.977500", "111900.977500", "111902.977500", "111904.977500", "111906.977500", "111908.977500", "111910.977500", "111912.977500", "111914.977500", "111916.977500", "111918.977500", "111920.977500", "111922.977500", "111924.977500", "111926.977500", "111928.977500", "111930.977500", "111932.977500", "111934.977500", "111936.977500", "111938.977500", "111940.977500", "111942.977500", "111944.977500", "111946.977500"],
      "ContentTime": ["111207.546000", "111209.041000", "111211.041000", "111213.042000", "111215.541000", "111217.542000", "111219.541000", "111221.041000", "111223.041000", "111225.041000", "111227.041000", "111229.042000", "111231.541000", "111233.541000", "111235.042000", "111237.042000", "111239.041000", "111241.042000", "111243.043000", "111245.041000", "111247.042000", "111249.541000", "111251.041000", "111253.041000", "111255.041000", "111257.541000", "111259.041000", "111301.042000", "111303.041000", "111305.041000", "111307.541000", "111309.541000", "111311.541000", "111313.041000", "111315.041000", "111317.042000", "111319.541000", "111321.041000", "111323.041000", "111325.041000", "111327.041000", "111329.041000", "111331.041000", "111333.042000", "111335.041000", "111337.042000", "111339.041000", "111341.042000", "111343.041000", "111345.042000", "111347.042000", "111349.541000", "111351.041000", "111353.042000", "111355.541000", "111357.041000", "111359.542000", "111401.041000", "111403.041000", "111405.042000", "111407.541000", "111409.041000", "111411.043000", "111413.541000", "111415.041000", "111417.041000", "111419.541000", "111421.042000", "111423.041000", "111425.541000", "111427.041000", "111429.041000", "111431.041000", "111433.041000", "111435.042000", "111437.041000", "111439.042000", "111441.042000", "111443.041000", "111445.542000", "111447.041000", "111449.041000", "111451.042000", "111453.041000", "111455.542000", "111457.042000", "111459.042000", "111501.041000", "111503.042000", "111505.041000", "111507.042000", "111509.042000", "111511.042000", "111513.042000", "111515.541000", "111517.042000", "111519.042000", "111521.043000", "111523.042000", "111525.541000", "111527.541000", "111529.542000", "111531.542000", "111533.542000", "111535.542000", "111537.542000", "111539.542000", "111541.041000", "111543.541000", "111545.041000", "111547.541000", "111549.041000", "111551.042000", "111553.041000", "111555.042000", "111557.542000", "111559.541000", "111601.041000", "111603.041000", "111605.541000", "111607.041000", "111609.042000", "111611.042000", "111613.043000", "111615.041000", "111617.042000", "111619.042000", "111621.542000", "111623.041000", "111625.541000", "111627.542000", "111629.041000", "111631.042000", "111633.041000", "111635.541000", "111637.541000", "111639.542000", "111641.042000", "111643.542000", "111645.542000", "111647.041000", "111649.041000", "111651.541000", "111653.042000", "111655.042000", "111657.541000", "111659.042000", "111701.042000", "111703.042000", "111705.041000", "111707.042000", "111709.542000", "111711.041000", "111713.542000", "111715.042000", "111717.042000", "111719.042000", "111721.042000", "111723.042000", "111725.042000", "111727.541000", "111729.541000", "111731.541000", "111733.541000", "111735.042000", "111737.541000", "111739.042000", "111741.541000", "111743.541000", "111745.041000", "111747.542000", "111749.542000", "111751.042000", "111753.041000", "111755.041000", "111757.041000", "111759.542000", "111801.541000", "111803.542000", "111805.041000", "111807.042000", "111809.041000", "111811.541000", "111813.042000", "111815.542000", "111817.042000", "111819.041000", "111821.041000", "111823.042000", "111825.041000", "111827.041000", "111829.042000", "111831.542000", "111833.542000", "111835.042000", "111837.042000", "111839.041000", "111841.542000", "111843.041000", "111845.042000", "111847.041000", "111849.041000", "111851.542000", "111853.042000", "111855.041000", "111857.541000", "111859.542000", "111901.041000", "111903.042000", "111905.041000", "111907.041000", "111909.542000", "111911.541000", "111913.042000", "111915.042000", "111917.542000", "111919.042000", "111921.041000", "111923.541000", "111925.542000", "111927.042000", "111929.041000", "111931.541000", "111933.042000", "111935.041000", "111937.041000", "111939.042000", "111941.042000", "111943.042000", "111945.542000", "111947.041000", "111948.971000"],
      "InstanceCreationTime": ["111207.546000", "111209.041000", "111211.041000", "111213.042000", "111215.541000", "111217.542000", "111219.541000", "111221.041000", "111223.041000", "111225.041000", "111227.041000", "111229.042000", "111231.541000", "111233.541000", "111235.042000", "111237.042000", "111239.041000", "111241.042000", "111243.043000", "111245.041000", "111247.042000", "111249.541000", "111251.041000", "111253.041000", "111255.041000", "111257.541000", "111259.041000", "111301.042000", "111303.041000", "111305.041000", "111307.541000", "111309.541000", "111311.541000", "111313.041000", "111315.041000", "111317.042000", "111319.541000", "111321.041000", "111323.041000", "111325.041000", "111327.041000", "111329.041000", "111331.041000", "111333.042000", "111335.041000", "111337.042000", "111339.041000", "111341.042000", "111343.041000", "111345.042000", "111347.042000", "111349.541000", "111351.041000", "111353.042000", "111355.541000", "111357.041000", "111359.542000", "111401.041000", "111403.041000", "111405.042000", "111407.541000", "111409.041000", "111411.043000", "111413.541000", "111415.041000", "111417.041000", "111419.541000", "111421.042000", "111423.041000", "111425.541000", "111427.041000", "111429.041000", "111431.041000", "111433.041000", "111435.042000", "111437.041000", "111439.042000", "111441.042000", "111443.041000", "111445.542000", "111447.041000", "111449.041000", "111451.042000", "111453.041000", "111455.542000", "111457.042000", "111459.042000", "111501.041000", "111503.042000", "111505.041000", "111507.042000", "111509.042000", "111511.042000", "111513.042000", "111515.541000", "111517.042000", "111519.042000", "111521.043000", "111523.042000", "111525.541000", "111527.541000", "111529.542000", "111531.542000", "111533.542000", "111535.542000", "111537.542000", "111539.542000", "111541.041000", "111543.541000", "111545.041000", "111547.541000", "111549.041000", "111551.042000", "111553.041000", "111555.042000", "111557.542000", "111559.541000", "111601.041000", "111603.041000", "111605.541000", "111607.041000", "111609.042000", "111611.042000", "111613.043000", "111615.041000", "111617.042000", "111619.042000", "111621.542000", "111623.041000", "111625.541000", "111627.542000", "111629.041000", "111631.042000", "111633.041000", "111635.541000", "111637.541000", "111639.542000", "111641.042000", "111643.542000", "111645.542000", "111647.041000", "111649.041000", "111651.541000", "111653.042000", "111655.042000", "111657.541000", "111659.042000", "111701.042000", "111703.042000", "111705.041000", "111707.042000", "111709.542000", "111711.041000", "111713.542000", "111715.042000", "111717.042000", "111719.042000", "111721.042000", "111723.042000", "111725.042000", "111727.541000", "111729.541000", "111731.541000", "111733.541000", "111735.042000", "111737.541000", "111739.042000", "111741.541000", "111743.541000", "111745.041000", "111747.542000", "111749.542000", "111751.042000", "111753.041000", "111755.041000", "111757.041000", "111759.542000", "111801.541000", "111803.542000", "111805.041000", "111807.042000", "111809.041000", "111811.541000", "111813.042000", "111815.542000", "111817.042000", "111819.041000", "111821.041000", "111823.042000", "111825.041000", "111827.041000", "111829.042000", "111831.542000", "111833.542000", "111835.042000", "111837.042000", "111839.041000", "111841.542000", "111843.041000", "111845.042000", "111847.041000", "111849.041000", "111851.542000", "111853.042000", "111855.041000", "111857.541000", "111859.542000", "111901.041000", "111903.042000", "111905.041000", "111907.041000", "111909.542000", "111911.541000", "111913.042000", "111915.042000", "111917.542000", "111919.042000", "111921.041000", "111923.541000", "111925.542000", "111927.042000", "111929.041000", "111931.541000", "111933.042000", "111935.041000", "111937.041000", "111939.042000", "111941.042000", "111943.042000", "111945.542000", "111947.041000", "111948.971000"],
      "InstanceNumber": [1, 2, 3, 4, 5, 6, 7, 8, 9, 10, 11, 12, 13, 14, 15, 16, 17, 18, 19, 20, 21, 22, 23, 24, 25, 26, 27, 28, 29, 30, 31, 32, 33, 34, 35, 36, 37, 38, 39, 40, 41, 42, 43, 44, 45, 46, 47, 48, 49, 50, 51, 52, 53, 54, 55, 56, 57, 58, 59, 60, 61, 62, 63, 64, 65, 66, 67, 68, 69, 70, 71, 72, 73, 74, 75, 76, 77, 78, 79, 80, 81, 82, 83, 84, 85, 86, 87, 88, 89, 90, 91, 92, 93, 94, 95, 96, 97, 98, 99, 100, 101, 102, 103, 104, 105, 106, 107, 108, 109, 110, 111, 112, 113, 114, 115, 116, 117, 118, 119, 120, 121, 122, 123, 124, 125, 126, 127, 128, 129, 130, 131, 132, 133, 134, 135, 136, 137, 138, 139, 140, 141, 142, 143, 144, 145, 146, 147, 148, 149, 150, 151, 152, 153, 154, 155, 156, 157, 158, 159, 160, 161, 162, 163, 164, 165, 166, 167, 168, 169, 170, 171, 172, 173, 174, 175, 176, 177, 178, 179, 180, 181, 182, 183, 184, 185, 186, 187, 188, 189, 190, 191, 192, 193, 194, 195, 196, 197, 198, 199, 200, 201, 202, 203, 204, 205, 206, 207, 208, 209, 210, 211, 212, 213, 214, 215, 216, 217, 218, 219, 220, 221, 222, 223, 224, 225, 226, 227, 228, 229, 230, 231, 232],
      "LargestImagePixelValue": [3503, 3416, 3404, 3444, 3403, 3450, 3416, 3395, 3424, 3403, 3395, 3410, 3403, 3403, 3468, 3421, 3415, 3513, 3481, 3467, 3507, 3462, 3429, 3427, 3434, 3422, 3362, 3422, 3381, 3382, 3385, 3447, 3447, 3458, 3551, 3611, 3498, 3526, 3553, 3543, 3461, 3709, 3371, 3364, 3366, 3377, 3394, 3373, 3366, 3380, 3372, 3369, 3367, 3360, 3409, 3374, 3362, 3365, 3405, 3371, 3398, 3391, 3362, 3393, 3387, 3371, 3381, 3371, 3396, 3378, 3387, 3385, 3366, 3387, 3390, 3374, 3386, 3389, 3371, 3393, 3379, 3401, 3403, 3433, 3404, 3445, 3422, 3423, 3419, 3444, 3516, 3442, 3431, 3403, 3423, 3392, 3421, 3426, 3421, 3439, 3392, 3424, 3398, 3402, 3432, 3449, 3447, 3446, 3277, 3666, 3480, 3652, 3642, 3477, 3348, 3352, 3357, 3369, 3377, 3407, 3388, 3424, 3505, 3464, 3235, 2952, 3921, 3490, 3157, 4020, 3363, 3294, 3299, 3287, 3347, 3329, 3327, 3373, 3431, 3355, 3388, 3402, 3417, 3387, 3354, 3411, 3440, 3380, 3400, 3388, 3406, 3426, 3400, 3382, 3415, 3389, 3400, 3396, 3388, 3370, 3366, 3393, 3412, 3368, 3376, 3406, 3385, 3409, 3376, 3383, 3374, 3409, 3378, 3374, 3361, 3344, 3362, 3406, 3361, 3421, 3390, 3382, 3383, 3380, 3392, 3408, 3368, 3402, 3373, 3408, 3373, 3392, 3367, 3396, 3365, 3875, 3375, 3450, 3728, 3491, 3280, 3903, 3441, 3362, 3389, 3395, 3365, 3404, 3386, 3471, 3389, 3415, 3381, 3367, 3382, 3388, 3387, 3382, 3372, 3372, 3408, 3374, 3387, 3391, 3410, 3393, 3396, 3402, 3395, 3434, 3410, 3396],
      "WindowCenter": [811.0, 809.0, 809.0, 808.0, 807.0, 807.0, 806.0, 806.0, 807.0, 806.0, 808.0, 808.0, 809.0, 808.0, 809.0, 809.0, 810.0, 811.0, 810.0, 809.0, 810.0, 810.0, 809.0, 809.0, 809.0, 808.0, 809.0, 810.0, 808.0, 808.0, 807.0, 808.0, 809.0, 806.0, 797.0, 809.0, 796.0, 792.0, 797.0, 797.0, 794.0, 812.0, 806.0, 807.0, 807.0, 808.0, 808.0, 808.0, 808.0, 808.0, 808.0, 808.0, 809.0, 808.0, 807.0, 806.0, 806.0, 806.0, 806.0, 806.0, 805.0, 805.0, 805.0, 805.0, 805.0, 805.0, 806.0, 807.0, 806.0, 805.0, 806.0, 807.0, 807.0, 807.0, 807.0, 808.0, 807.0, 807.0, 807.0, 807.0, 808.0, 809.0, 809.0, 809.0, 808.0, 809.0, 808.0, 808.0, 807.0, 804.0, 806.0, 807.0, 807.0, 807.0, 806.0, 806.0, 806.0, 806.0, 809.0, 809.0, 810.0, 810.0, 810.0, 810.0, 810.0, 808.0, 796.0, 798.0, 798.0, 802.0, 792.0, 795.0, 793.0, 813.0, 806.0, 807.0, 808.0, 808.0, 808.0, 808.0, 807.0, 801.0, 792.0, 791.0, 791.0, 773.0, 806.0, 796.0, 781.0, 810.0, 805.0, 806.0, 806.0, 806.0, 807.0, 808.0, 806.0, 807.0, 807.0, 806.0, 806.0, 806.0, 806.0, 805.0, 805.0, 804.0, 804.0, 804.0, 803.0, 804.0, 805.0, 806.0, 806.0, 806.0, 806.0, 807.0, 806.0, 806.0, 806.0, 806.0, 806.0, 806.0, 806.0, 806.0, 806.0, 806.0, 806.0, 806.0, 806.0, 806.0, 806.0, 807.0, 806.0, 806.0, 806.0, 806.0, 806.0, 806.0, 805.0, 806.0, 806.0, 806.0, 806.0, 806.0, 806.0, 806.0, 806.0, 807.0, 807.0, 807.0, 808.0, 809.0, 809.0, 801.0, 793.0, 810.0, 794.0, 796.0, 810.0, 806.0, 786.0, 816.0, 807.0, 807.0, 808.0, 808.0, 807.0, 808.0, 807.0, 809.0, 807.0, 807.0, 807.0, 806.0, 806.0, 806.0, 806.0, 806.0, 806.0, 807.0, 806.0, 805.0, 806.0, 807.0, 807.0, 808.0, 808.0, 807.0, 807.0, 807.0, 807.0, 806.0],
      "WindowWidth": [1770.0, 1764.0, 1762.0, 1760.0, 1758.0, 1758.0, 1755.0, 1755.0, 1757.0, 1755.0, 1759.0, 1761.0, 1763.0, 1761.0, 1763.0, 1763.0, 1765.0, 1768.0, 1765.0, 1764.0, 1767.0, 1765.0, 1763.0, 1762.0, 1763.0, 1761.0, 1761.0, 1764.0, 1760.0, 1758.0, 1757.0, 1761.0, 1762.0, 1755.0, 1733.0, 1766.0, 1732.0, 1719.0, 1734.0, 1733.0, 1725.0, 1777.0, 1755.0, 1757.0, 1758.0, 1760.0, 1760.0, 1758.0, 1759.0, 1759.0, 1758.0, 1761.0, 1762.0, 1760.0, 1757.0, 1754.0, 1753.0, 1753.0, 1754.0, 1753.0, 1751.0, 1750.0, 1750.0, 1752.0, 1751.0, 1751.0, 1753.0, 1756.0, 1753.0, 1752.0, 1755.0, 1757.0, 1757.0, 1756.0, 1758.0, 1758.0, 1758.0, 1758.0, 1758.0, 1758.0, 1760.0, 1763.0, 1762.0, 1762.0, 1758.0, 1762.0, 1760.0, 1759.0, 1758.0, 1749.0, 1755.0, 1758.0, 1756.0, 1756.0, 1754.0, 1753.0, 1753.0, 1755.0, 1760.0, 1763.0, 1764.0, 1764.0, 1764.0, 1764.0, 1766.0, 1760.0, 1729.0, 1733.0, 1733.0, 1746.0, 1719.0, 1729.0, 1725.0, 1779.0, 1755.0, 1757.0, 1759.0, 1759.0, 1760.0, 1760.0, 1758.0, 1741.0, 1720.0, 1716.0, 1713.0, 1667.0, 1763.0, 1730.0, 1688.0, 1775.0, 1752.0, 1753.0, 1754.0, 1753.0, 1755.0, 1758.0, 1754.0, 1757.0, 1758.0, 1754.0, 1754.0, 1756.0, 1755.0, 1752.0, 1751.0, 1750.0, 1750.0, 1748.0, 1746.0, 1748.0, 1753.0, 1755.0, 1756.0, 1754.0, 1755.0, 1756.0, 1756.0, 1755.0, 1753.0, 1754.0, 1754.0, 1754.0, 1755.0, 1754.0, 1754.0, 1754.0, 1753.0, 1754.0, 1755.0, 1755.0, 1755.0, 1756.0, 1755.0, 1755.0, 1754.0, 1754.0, 1754.0, 1754.0, 1752.0, 1754.0, 1754.0, 1755.0, 1755.0, 1754.0, 1755.0, 1754.0, 1754.0, 1756.0, 1757.0, 1757.0, 1760.0, 1763.0, 1761.0, 1743.0, 1721.0, 1771.0, 1722.0, 1730.0, 1769.0, 1757.0, 1702.0, 1786.0, 1757.0, 1757.0, 1759.0, 1758.0, 1755.0, 1760.0, 1758.0, 1762.0, 1758.0, 1757.0, 1756.0, 1755.0, 1754.0, 1754.0, 1755.0, 1754.0, 1755.0, 1757.0, 1755.0, 1751.0, 1754.0, 1756.0, 1757.0, 1759.0, 1759.0, 1756.0, 1756.0, 1756.0, 1755.0, 1754.0]
    },
    "slices": {}
  }
}