{
  "AcquisitionMatrixPE": 100,
  "AcquisitionNumber": 1,
  "AcquisitionTime": "10:54:43.340000",
  "BandwidthPerPixelPhaseEncode": 18.519,
  "BaseResolution": 100,
  "BodyPartExamined": "BRAIN",
  "ConsistencyInfo": "N4_VE11C_LATEST_20160120",
  "ConversionSoftware": "dcm2niix",
  "ConversionSoftwareVersion": "v1.0.20180622 GCC4.9.2",
  "DerivedVendorReportedEchoSpacing": 0.000539986,
  "DeviceSerialNumber": "166078",
  "DwellTime": 2.1e-06,
  "EchoTime": 0.034,
  "EchoTrainLength": 100,
  "EffectiveEchoSpacing": 0.000539986,
  "FlipAngle": 90,
  "ImageOrientationPatientDICOM": [0.999152, 0.025026, 0.0327023, -0.015696, 0.965639, -0.259415],
  "ImageType": [
    "ORIGINAL",
    "PRIMARY",
    "M",
    "ND",
    "MOSAIC"
],
  "InPlanePhaseEncodingDirectionDICOM": "COL",
  "InstitutionAddress": "Street_StreetNo_Bei_Jing_District_CN_ZIP",
  "InstitutionName": "BeiJing_Normal_University",
  "InstitutionalDepartmentName": "Department",
  "MRAcquisitionType": "2D",
  "MagneticFieldStrength": 3,
  "Manufacturer": "Siemens",
  "ManufacturersModelName": "Prisma",
  "Modality": "MR",
  "MultibandAccelerationFactor": 3,
  "PartialFourier": 1,
  "PatientPosition": "HFS",
  "PercentPhaseFOV": 100,
  "PhaseEncodingDirection": "j-",
  "PhaseEncodingSteps": 100,
  "PhaseResolution": 1,
  "PixelBandwidth": 2380,
  "ProcedureStepDescription": "BNU_P2018_64CH_Liu.Jia",
  "ProtocolName": "bold_100x100_s3_2x2x2_232",
  "PulseSequenceDetails": "%SiemensSeq%_ep2d_bold",
  "ReceiveCoilActiveElements": "HC1-7;NC1",
  "ReceiveCoilName": "HeadNeck_64",
  "ReconMatrixPE": 100,
  "RepetitionTime": 2,
  "SAR": 0.0765725,
  "ScanOptions": "FS",
  "ScanningSequence": "EP",
  "SequenceName": "_epfid2d1_100",
  "SequenceVariant": "SK",
  "SeriesDescription": "bold_100x100_s3_2x2x2_232",
  "SeriesNumber": 8,
  "ShimSetting": [-5460, -11482, -1238, 508, -15, -78, -175, 37],
  "SliceThickness": 2,
  "SliceTiming": [1.485, 0, 0.99, 0.0825, 1.0725, 0.165, 1.155, 0.2475, 1.2375, 0.33, 1.32, 0.4125, 1.4025, 0.5775, 1.5675, 0.66, 1.65, 0.7425, 1.7325, 0.825, 1.815, 0.9075, 1.8975, 0.495, 1.485, 0, 0.99, 0.0825, 1.0725, 0.165, 1.155, 0.2475, 1.2375, 0.33, 1.32, 0.4125, 1.4025, 0.5775, 1.5675, 0.66, 1.65, 0.7425, 1.7325, 0.825, 1.815, 0.9075, 1.8975, 0.495, 1.485, 0, 0.99, 0.0825, 1.0725, 0.165, 1.155, 0.2475, 1.2375, 0.33, 1.32, 0.4125, 1.4025, 0.5775, 1.5675, 0.66, 1.65, 0.7425, 1.7325, 0.825, 1.815, 0.9075, 1.8975, 0.495],
  "SoftwareVersions": "syngo_MR_E11",
  "SpacingBetweenSlices": 2,
  "StationName": "AWP166078",
  "TaskName": "motor",
  "TotalReadoutTime": 0.0534586,
  "TxRefAmp": 233.13,
  "dcmmeta_affine": [
    [-1.9983035326004028, -0.0313919372856617, 0.07614148408174515, 102.82117462158203],
    [-0.050052087754011154, 1.9312770366668701, -0.5173624157905579, -69.71002197265625],
    [0.06540464609861374, 0.5188290476799011, 1.9304245710372925, -101.4394760131836],
    [0.0, 0.0, 0.0, 1.0]
],
  "dcmmeta_reorient_transform": [
    [0.0, -1.0, 0.0, 99.0],
    [1.0, 0.0, 0.0, 0.0],
    [0.0, 0.0, 1.0, 0.0],
    [0.0, 0.0, 0.0, 1.0]
],
  "dcmmeta_shape": [100, 100, 72, 232],
  "dcmmeta_slice_dim": 2,
  "dcmmeta_version": 0.6,
  "global": {
    "const": {
      "AcquisitionMatrix": [100, 0, 0, 100],
      "AngioFlag": "N",
      "BitsAllocated": 16,
      "BitsStored": 12,
      "BodyPartExamined": "BRAIN",
      "Columns": 900,
      "EchoNumbers": 1,
      "EchoTime": 34.0,
      "EchoTrainLength": 100,
      "FlipAngle": 90.0,
      "HighBit": 11,
      "ImageOrientationPatient": [0.9991517678411, 0.02502604411115, 0.03270232310034, -0.0156959678068, 0.9656385113953, -0.2594145368033],
      "ImagePositionPatient": [-886.47801549825, -914.01804471899, 131.29437215446],
      "ImageType": [
        "ORIGINAL",
        "PRIMARY",
        "M",
        "ND",
        "MOSAIC"
],
      "ImagedNucleus": "1H",
      "ImagingFrequency": 123.257837,
      "InPlanePhaseEncodingDirection": "COL",
      "MRAcquisitionType": "2D",
      "MagneticFieldStrength": 3.0,
      "Manufacturer": "SIEMENS",
      "ManufacturerModelName": "Prisma",
      "Modality": "MR",
      "NumberOfAverages": 1.0,
      "NumberOfPhaseEncodingSteps": 100,
      "PercentPhaseFieldOfView": 100.0,
      "PercentSampling": 100.0,
      "PerformedProcedureStepStartTime": "102220.594000",
      "PhotometricInterpretation": "MONOCHROME2",
      "PixelBandwidth": 2380.0,
      "PixelRepresentation": 0,
      "PixelSpacing": [2.0, 2.0],
      "ProtocolName": "bold_100x100_s3_2x2x2_232",
      "RepetitionTime": 2000.0,
      "Rows": 900,
      "SAR": 0.0765724901123,
      "SamplesPerPixel": 1,
      "ScanOptions": "FS",
      "ScanningSequence": "EP",
      "SequenceName": "*epfid2d1_100",
      "SequenceVariant": "SK",
      "SeriesDescription": "bold_100x100_s3_2x2x2_232",
      "SeriesNumber": 8,
      "SeriesTime": "105445.634000",
      "SliceLocation": -75.963472950795,
      "SliceThickness": 2.0,
      "SmallestImagePixelValue": 0,
      "SoftwareVersions": "syngo MR E11",
      "SpacingBetweenSlices": 2.0000000749309,
      "SpecificCharacterSet": "ISO_IR 100",
      "StudyID": "1",
      "StudyTime": "102220.543000",
      "TransmitCoilName": "Body",
      "VariableFlipAngleFlag": "N",
      "WindowCenterWidthExplanation": "Algo1",
      "dBdt": 0.0},
    "slices": {}
  },
  "time": {
    "samples": {
      "AcquisitionNumber": [1, 2, 3, 4, 5, 6, 7, 8, 9, 10, 11, 12, 13, 14, 15, 16, 17, 18, 19, 20, 21, 22, 23, 24, 25, 26, 27, 28, 29, 30, 31, 32, 33, 34, 35, 36, 37, 38, 39, 40, 41, 42, 43, 44, 45, 46, 47, 48, 49, 50, 51, 52, 53, 54, 55, 56, 57, 58, 59, 60, 61, 62, 63, 64, 65, 66, 67, 68, 69, 70, 71, 72, 73, 74, 75, 76, 77, 78, 79, 80, 81, 82, 83, 84, 85, 86, 87, 88, 89, 90, 91, 92, 93, 94, 95, 96, 97, 98, 99, 100, 101, 102, 103, 104, 105, 106, 107, 108, 109, 110, 111, 112, 113, 114, 115, 116, 117, 118, 119, 120, 121, 122, 123, 124, 125, 126, 127, 128, 129, 130, 131, 132, 133, 134, 135, 136, 137, 138, 139, 140, 141, 142, 143, 144, 145, 146, 147, 148, 149, 150, 151, 152, 153, 154, 155, 156, 157, 158, 159, 160, 161, 162, 163, 164, 165, 166, 167, 168, 169, 170, 171, 172, 173, 174, 175, 176, 177, 178, 179, 180, 181, 182, 183, 184, 185, 186, 187, 188, 189, 190, 191, 192, 193, 194, 195, 196, 197, 198, 199, 200, 201, 202, 203, 204, 205, 206, 207, 208, 209, 210, 211, 212, 213, 214, 215, 216, 217, 218, 219, 220, 221, 222, 223, 224, 225, 226, 227, 228, 229, 230, 231, 232],
      "AcquisitionTime": ["105443.340000", "105445.340000", "105447.340000", "105449.340000", "105451.340000", "105453.340000", "105455.340000", "105457.340000", "105459.340000", "105501.340000", "105503.340000", "105505.340000", "105507.340000", "105509.340000", "105511.340000", "105513.340000", "105515.340000", "105517.340000", "105519.340000", "105521.340000", "105523.340000", "105525.340000", "105527.340000", "105529.340000", "105531.340000", "105533.340000", "105535.340000", "105537.340000", "105539.340000", "105541.340000", "105543.340000", "105545.340000", "105547.340000", "105549.340000", "105551.340000", "105553.340000", "105555.340000", "105557.340000", "105559.340000", "105601.340000", "105603.340000", "105605.340000", "105607.340000", "105609.340000", "105611.340000", "105613.340000", "105615.340000", "105617.340000", "105619.340000", "105621.340000", "105623.340000", "105625.340000", "105627.340000", "105629.340000", "105631.340000", "105633.340000", "105635.340000", "105637.340000", "105639.340000", "105641.340000", "105643.340000", "105645.340000", "105647.340000", "105649.340000", "105651.340000", "105653.340000", "105655.340000", "105657.340000", "105659.340000", "105701.340000", "105703.340000", "105705.340000", "105707.340000", "105709.340000", "105711.340000", "105713.340000", "105715.340000", "105717.340000", "105719.340000", "105721.340000", "105723.340000", "105725.340000", "105727.340000", "105729.340000", "105731.340000", "105733.340000", "105735.340000", "105737.340000", "105739.340000", "105741.340000", "105743.340000", "105745.340000", "105747.340000", "105749.340000", "105751.340000", "105753.340000", "105755.340000", "105757.340000", "105759.340000", "105801.340000", "105803.340000", "105805.340000", "105807.340000", "105809.340000", "105811.340000", "105813.340000", "105815.340000", "105817.340000", "105819.340000", "105821.340000", "105823.340000", "105825.340000", "105827.340000", "105829.340000", "105831.340000", "105833.340000", "105835.340000", "105837.340000", "105839.340000", "105841.340000", "105843.340000", "105845.340000", "105847.340000", "105849.340000", "105851.340000", "105853.340000", "105855.340000", "105857.340000", "105859.340000", "105901.340000", "105903.340000", "105905.340000", "105907.340000", "105909.340000", "105911.340000", "105913.340000", "105915.340000", "105917.340000", "105919.340000", "105921.340000", "105923.340000", "105925.340000", "105927.340000", "105929.340000", "105931.340000", "105933.340000", "105935.340000", "105937.340000", "105939.340000", "105941.340000", "105943.340000", "105945.340000", "105947.340000", "105949.340000", "105951.340000", "105953.340000", "105955.340000", "105957.340000", "105959.340000", "110001.340000", "110003.340000", "110005.340000", "110007.340000", "110009.340000", "110011.340000", "110013.340000", "110015.340000", "110017.340000", "110019.340000", "110021.340000", "110023.340000", "110025.340000", "110027.340000", "110029.340000", "110031.340000", "110033.340000", "110035.340000", "110037.340000", "110039.340000", "110041.340000", "110043.340000", "110045.340000", "110047.340000", "110049.340000", "110051.340000", "110053.340000", "110055.340000", "110057.340000", "110059.340000", "110101.340000", "110103.340000", "110105.340000", "110107.340000", "110109.340000", "110111.340000", "110113.340000", "110115.340000", "110117.340000", "110119.340000", "110121.340000", "110123.340000", "110125.340000", "110127.340000", "110129.340000", "110131.340000", "110133.340000", "110135.340000", "110137.340000", "110139.340000", "110141.340000", "110143.340000", "110145.340000", "110147.340000", "110149.340000", "110151.340000", "110153.340000", "110155.340000", "110157.340000", "110159.340000", "110201.340000", "110203.340000", "110205.340000", "110207.340000", "110209.340000", "110211.340000", "110213.340000", "110215.340000", "110217.340000", "110219.340000", "110221.340000", "110223.340000", "110225.340000"],
      "ContentTime": ["105445.637000", "105447.133000", "105449.133000", "105451.133000", "105453.133000", "105455.133000", "105457.134000", "105459.133000", "105501.133000", "105503.133000", "105505.133000", "105507.133000", "105509.134000", "105511.133000", "105513.133000", "105515.134000", "105517.134000", "105519.133000", "105521.133000", "105523.134000", "105525.133000", "105527.133000", "105529.134000", "105531.133000", "105533.134000", "105535.133000", "105537.133000", "105539.133000", "105541.133000", "105543.134000", "105545.134000", "105547.134000", "105549.135000", "105551.133000", "105553.134000", "105555.133000", "105557.134000", "105559.133000", "105601.134000", "105603.133000", "105605.133000", "105607.134000", "105609.133000", "105611.133000", "105613.133000", "105615.133000", "105617.133000", "105619.133000", "105621.134000", "105623.134000", "105625.134000", "105627.133000", "105629.134000", "105631.133000", "105633.133000", "105635.133000", "105637.134000", "105639.133000", "105641.134000", "105643.134000", "105645.133000", "105647.133000", "105649.133000", "105651.133000", "105653.133000", "105655.133000", "105657.133000", "105659.134000", "105701.133000", "105703.133000", "105705.133000", "105707.133000", "105709.133000", "105711.133000", "105713.133000", "105715.133000", "105717.134000", "105719.133000", "105721.133000", "105723.134000", "105725.134000", "105727.133000", "105729.133000", "105731.134000", "105733.134000", "105735.135000", "105737.134000", "105739.134000", "105741.133000", "105743.133000", "105745.133000", "105747.133000", "105749.134000", "105751.133000", "105753.134000", "105755.134000", "105757.134000", "105759.133000", "105801.133000", "105803.133000", "105805.133000", "105807.133000", "105809.135000", "105811.133000", "105813.133000", "105815.133000", "105817.133000", "105819.133000", "105821.133000", "105823.133000", "105825.133000", "105827.135000", "105829.134000", "105831.133000", "105833.133000", "105835.133000", "105837.133000", "105839.134000", "105841.133000", "105843.134000", "105845.135000", "105847.134000", "105849.134000", "105851.133000", "105853.133000", "105855.634000", "105857.133000", "105859.133000", "105901.133000", "105903.134000", "105905.133000", "105907.133000", "105909.133000", "105911.133000", "105913.133000", "105915.134000", "105917.134000", "105919.134000", "105921.134000", "105923.133000", "105925.133000", "105927.133000", "105929.133000", "105931.133000", "105933.134000", "105935.134000", "105937.134000", "105939.133000", "105941.134000", "105943.133000", "105945.133000", "105947.134000", "105949.133000", "105951.134000", "105953.134000", "105955.134000", "105957.134000", "105959.133000", "110001.133000", "110003.133000", "110005.133000", "110007.134000", "110009.133000", "110011.134000", "110013.135000", "110015.143000", "110017.133000", "110019.133000", "110021.133000", "110023.133000", "110025.133000", "110027.133000", "110029.135000", "110031.133000", "110033.133000", "110035.133000", "110037.134000", "110039.134000", "110041.133000", "110043.133000", "110045.134000", "110047.135000", "110049.133000", "110051.134000", "110053.133000", "110055.134000", "110057.134000", "110059.133000", "110101.133000", "110103.134000", "110105.135000", "110107.133000", "110109.134000", "110111.133000", "110113.133000", "110115.133000", "110117.133000", "110119.133000", "110121.133000", "110123.135000", "110125.134000", "110127.133000", "110129.133000", "110131.133000", "110133.133000", "110135.134000", "110137.134000", "110139.134000", "110141.133000", "110143.134000", "110145.133000", "110147.133000", "110149.133000", "110151.134000", "110153.134000", "110155.133000", "110157.134000", "110159.133000", "110201.134000", "110203.133000", "110205.134000", "110207.133000", "110209.133000", "110211.134000", "110213.134000", "110215.135000", "110217.133000", "110219.134000", "110221.134000", "110223.133000", "110225.133000", "110227.005000"],
      "InstanceCreationTime": ["105445.637000", "105447.133000", "105449.133000", "105451.133000", "105453.133000", "105455.133000", "105457.134000", "105459.133000", "105501.133000", "105503.133000", "105505.133000", "105507.133000", "105509.134000", "105511.133000", "105513.133000", "105515.134000", "105517.134000", "105519.133000", "105521.133000", "105523.134000", "105525.133000", "105527.133000", "105529.134000", "105531.133000", "105533.134000", "105535.133000", "105537.133000", "105539.133000", "105541.133000", "105543.134000", "105545.134000", "105547.134000", "105549.135000", "105551.133000", "105553.134000", "105555.133000", "105557.134000", "105559.133000", "105601.134000", "105603.133000", "105605.133000", "105607.134000", "105609.133000", "105611.133000", "105613.133000", "105615.133000", "105617.133000", "105619.133000", "105621.134000", "105623.134000", "105625.134000", "105627.133000", "105629.134000", "105631.133000", "105633.133000", "105635.133000", "105637.134000", "105639.133000", "105641.134000", "105643.134000", "105645.133000", "105647.133000", "105649.133000", "105651.133000", "105653.133000", "105655.133000", "105657.133000", "105659.134000", "105701.133000", "105703.133000", "105705.133000", "105707.133000", "105709.133000", "105711.133000", "105713.133000", "105715.133000", "105717.134000", "105719.133000", "105721.133000", "105723.134000", "105725.134000", "105727.133000", "105729.133000", "105731.134000", "105733.134000", "105735.135000", "105737.134000", "105739.134000", "105741.133000", "105743.133000", "105745.133000", "105747.133000", "105749.134000", "105751.133000", "105753.134000", "105755.134000", "105757.134000", "105759.133000", "105801.133000", "105803.133000", "105805.133000", "105807.133000", "105809.135000", "105811.133000", "105813.133000", "105815.133000", "105817.133000", "105819.133000", "105821.133000", "105823.133000", "105825.133000", "105827.135000", "105829.134000", "105831.133000", "105833.133000", "105835.133000", "105837.133000", "105839.134000", "105841.133000", "105843.134000", "105845.135000", "105847.134000", "105849.134000", "105851.133000", "105853.133000", "105855.634000", "105857.133000", "105859.133000", "105901.133000", "105903.134000", "105905.133000", "105907.133000", "105909.133000", "105911.133000", "105913.133000", "105915.134000", "105917.134000", "105919.134000", "105921.134000", "105923.133000", "105925.133000", "105927.133000", "105929.133000", "105931.133000", "105933.134000", "105935.134000", "105937.134000", "105939.133000", "105941.134000", "105943.133000", "105945.133000", "105947.134000", "105949.133000", "105951.134000", "105953.134000", "105955.134000", "105957.134000", "105959.133000", "110001.133000", "110003.133000", "110005.133000", "110007.134000", "110009.133000", "110011.134000", "110013.135000", "110015.143000", "110017.133000", "110019.133000", "110021.133000", "110023.133000", "110025.133000", "110027.133000", "110029.135000", "110031.133000", "110033.133000", "110035.133000", "110037.134000", "110039.134000", "110041.133000", "110043.133000", "110045.134000", "110047.135000", "110049.133000", "110051.134000", "110053.133000", "110055.134000", "110057.134000", "110059.133000", "110101.133000", "110103.134000", "110105.135000", "110107.133000", "110109.134000", "110111.133000", "110113.133000", "110115.133000", "110117.133000", "110119.133000", "110121.133000", "110123.135000", "110125.134000", "110127.133000", "110129.133000", "110131.133000", "110133.133000", "110135.134000", "110137.134000", "110139.134000", "110141.133000", "110143.134000", "110145.133000", "110147.133000", "110149.133000", "110151.134000", "110153.134000", "110155.133000", "110157.134000", "110159.133000", "110201.134000", "110203.133000", "110205.134000", "110207.133000", "110209.133000", "110211.134000", "110213.134000", "110215.135000", "110217.133000", "110219.134000", "110221.134000", "110223.133000", "110225.133000", "110227.005000"],
      "InstanceNumber": [1, 2, 3, 4, 5, 6, 7, 8, 9, 10, 11, 12, 13, 14, 15, 16, 17, 18, 19, 20, 21, 22, 23, 24, 25, 26, 27, 28, 29, 30, 31, 32, 33, 34, 35, 36, 37, 38, 39, 40, 41, 42, 43, 44, 45, 46, 47, 48, 49, 50, 51, 52, 53, 54, 55, 56, 57, 58, 59, 60, 61, 62, 63, 64, 65, 66, 67, 68, 69, 70, 71, 72, 73, 74, 75, 76, 77, 78, 79, 80, 81, 82, 83, 84, 85, 86, 87, 88, 89, 90, 91, 92, 93, 94, 95, 96, 97, 98, 99, 100, 101, 102, 103, 104, 105, 106, 107, 108, 109, 110, 111, 112, 113, 114, 115, 116, 117, 118, 119, 120, 121, 122, 123, 124, 125, 126, 127, 128, 129, 130, 131, 132, 133, 134, 135, 136, 137, 138, 139, 140, 141, 142, 143, 144, 145, 146, 147, 148, 149, 150, 151, 152, 153, 154, 155, 156, 157, 158, 159, 160, 161, 162, 163, 164, 165, 166, 167, 168, 169, 170, 171, 172, 173, 174, 175, 176, 177, 178, 179, 180, 181, 182, 183, 184, 185, 186, 187, 188, 189, 190, 191, 192, 193, 194, 195, 196, 197, 198, 199, 200, 201, 202, 203, 204, 205, 206, 207, 208, 209, 210, 211, 212, 213, 214, 215, 216, 217, 218, 219, 220, 221, 222, 223, 224, 225, 226, 227, 228, 229, 230, 231, 232],
      "LargestImagePixelValue": [3478, 3377, 3389, 3356, 3342, 3384, 3360, 3359, 3405, 3391, 3381, 3375, 3365, 3415, 3394, 3349, 3371, 3322, 3360, 3364, 3374, 3355, 3343, 3395, 3419, 3396, 3376, 3386, 3399, 3382, 3352, 3386, 3367, 3387, 3373, 3432, 3379, 3414, 3377, 3406, 3383, 3444, 3591, 3556, 3535, 3285, 3312, 3721, 3550, 3778, 3436, 3435, 3415, 3450, 3418, 3414, 3448, 3425, 3438, 3402, 3417, 3424, 3388, 3405, 3407, 3419, 3408, 3429, 3407, 3416, 3377, 3380, 3387, 3347, 3345, 3405, 3393, 3405, 3390, 3437, 3436, 3470, 3440, 3425, 3439, 3450, 3434, 3406, 3446, 3465, 3412, 3432, 3458, 3410, 3386, 3424, 3380, 3464, 3446, 3404, 3419, 3397, 3401, 3417, 3476, 3431, 3489, 3426, 3456, 3413, 3204, 3510, 3722, 3577, 3406, 3430, 3414, 3453, 3441, 3438, 3407, 3462, 3692, 3423, 3731, 3254, 3751, 3562, 3595, 3787, 3480, 3436, 3410, 3435, 3426, 3465, 3465, 3438, 3376, 3400, 3453, 3466, 3447, 3450, 3453, 3467, 3438, 3436, 3424, 3452, 3412, 3436, 3416, 3398, 3410, 3423, 3463, 3430, 3445, 3462, 3437, 3492, 3502, 3473, 3477, 3482, 3469, 3460, 3481, 3467, 3439, 3438, 3460, 3432, 3445, 3442, 3436, 3422, 3436, 3483, 3459, 3467, 3437, 3438, 3411, 3462, 3644, 3457, 3448, 3345, 3348, 3798, 3575, 3797, 3293, 3384, 3375, 3427, 3429, 3390, 3383, 3392, 3387, 3402, 3383, 3387, 3396, 3414, 3370, 3399, 3379, 3404, 3407, 3401, 3387, 3393, 3398, 3383, 3376, 3381, 3411, 3394, 3385, 3411, 3369, 3393, 3415, 3420, 3421, 3418, 3416, 3379],
      "WindowCenter": [809.0, 807.0, 807.0, 806.0, 805.0, 805.0, 805.0, 806.0, 806.0, 806.0, 806.0, 807.0, 807.0, 807.0, 807.0, 806.0, 806.0, 806.0, 807.0, 806.0, 808.0, 807.0, 807.0, 807.0, 807.0, 808.0, 808.0, 808.0, 809.0, 808.0, 807.0, 806.0, 805.0, 805.0, 805.0, 806.0, 805.0, 805.0, 805.0, 806.0, 807.0, 805.0, 800.0, 798.0, 801.0, 799.0, 796.0, 800.0, 800.0, 809.0, 808.0, 810.0, 812.0, 812.0, 810.0, 810.0, 810.0, 810.0, 808.0, 808.0, 807.0, 807.0, 806.0, 806.0, 805.0, 805.0, 804.0, 805.0, 806.0, 806.0, 805.0, 804.0, 804.0, 804.0, 805.0, 807.0, 808.0, 808.0, 808.0, 808.0, 808.0, 809.0, 808.0, 808.0, 808.0, 808.0, 808.0, 808.0, 809.0, 808.0, 808.0, 809.0, 810.0, 809.0, 809.0, 809.0, 808.0, 810.0, 808.0, 807.0, 807.0, 807.0, 807.0, 808.0, 808.0, 804.0, 799.0, 790.0, 796.0, 787.0, 787.0, 799.0, 809.0, 811.0, 805.0, 807.0, 808.0, 809.0, 809.0, 808.0, 806.0, 798.0, 805.0, 797.0, 804.0, 788.0, 808.0, 793.0, 793.0, 813.0, 807.0, 808.0, 808.0, 809.0, 809.0, 809.0, 809.0, 808.0, 809.0, 810.0, 810.0, 810.0, 810.0, 809.0, 809.0, 810.0, 808.0, 807.0, 808.0, 807.0, 806.0, 806.0, 806.0, 806.0, 807.0, 808.0, 808.0, 808.0, 809.0, 810.0, 809.0, 810.0, 811.0, 810.0, 810.0, 810.0, 810.0, 810.0, 810.0, 810.0, 809.0, 808.0, 808.0, 808.0, 808.0, 807.0, 807.0, 806.0, 806.0, 807.0, 809.0, 809.0, 808.0, 808.0, 808.0, 808.0, 799.0, 805.0, 804.0, 792.0, 792.0, 798.0, 797.0, 812.0, 804.0, 806.0, 806.0, 807.0, 807.0, 807.0, 807.0, 808.0, 808.0, 808.0, 806.0, 807.0, 807.0, 806.0, 806.0, 805.0, 805.0, 805.0, 805.0, 805.0, 805.0, 805.0, 806.0, 805.0, 805.0, 806.0, 807.0, 805.0, 804.0, 804.0, 803.0, 804.0, 806.0, 807.0, 806.0, 807.0, 806.0, 806.0],
      "WindowWidth": [1765.0, 1757.0, 1756.0, 1754.0, 1753.0, 1753.0, 1752.0, 1754.0, 1756.0, 1755.0, 1755.0, 1757.0, 1759.0, 1759.0, 1758.0, 1755.0, 1756.0, 1754.0, 1757.0, 1756.0, 1761.0, 1757.0, 1758.0, 1758.0, 1757.0, 1759.0, 1760.0, 1762.0, 1763.0, 1760.0, 1756.0, 1754.0, 1752.0, 1751.0, 1752.0, 1754.0, 1752.0, 1750.0, 1750.0, 1754.0, 1757.0, 1752.0, 1741.0, 1735.0, 1743.0, 1736.0, 1728.0, 1743.0, 1742.0, 1770.0, 1759.0, 1766.0, 1769.0, 1770.0, 1766.0, 1764.0, 1766.0, 1765.0, 1761.0, 1759.0, 1758.0, 1756.0, 1755.0, 1755.0, 1753.0, 1751.0, 1750.0, 1751.0, 1754.0, 1754.0, 1751.0, 1751.0, 1750.0, 1749.0, 1753.0, 1758.0, 1760.0, 1760.0, 1760.0, 1759.0, 1761.0, 1763.0, 1759.0, 1759.0, 1761.0, 1761.0, 1761.0, 1760.0, 1762.0, 1761.0, 1761.0, 1762.0, 1764.0, 1762.0, 1761.0, 1762.0, 1760.0, 1767.0, 1761.0, 1757.0, 1757.0, 1757.0, 1758.0, 1759.0, 1759.0, 1751.0, 1737.0, 1712.0, 1729.0, 1705.0, 1703.0, 1738.0, 1768.0, 1771.0, 1752.0, 1756.0, 1759.0, 1762.0, 1762.0, 1760.0, 1755.0, 1735.0, 1754.0, 1733.0, 1751.0, 1709.0, 1764.0, 1721.0, 1725.0, 1778.0, 1757.0, 1758.0, 1761.0, 1763.0, 1763.0, 1762.0, 1763.0, 1759.0, 1761.0, 1765.0, 1765.0, 1765.0, 1764.0, 1762.0, 1763.0, 1764.0, 1759.0, 1758.0, 1759.0, 1758.0, 1755.0, 1755.0, 1754.0, 1753.0, 1756.0, 1760.0, 1760.0, 1761.0, 1762.0, 1765.0, 1763.0, 1766.0, 1768.0, 1766.0, 1765.0, 1764.0, 1764.0, 1764.0, 1766.0, 1764.0, 1761.0, 1760.0, 1760.0, 1759.0, 1758.0, 1756.0, 1755.0, 1753.0, 1755.0, 1758.0, 1762.0, 1762.0, 1760.0, 1759.0, 1760.0, 1760.0, 1738.0, 1753.0, 1749.0, 1717.0, 1718.0, 1739.0, 1733.0, 1777.0, 1749.0, 1753.0, 1755.0, 1758.0, 1758.0, 1758.0, 1756.0, 1758.0, 1758.0, 1759.0, 1755.0, 1756.0, 1756.0, 1755.0, 1754.0, 1751.0, 1751.0, 1752.0, 1751.0, 1750.0, 1751.0, 1752.0, 1753.0, 1751.0, 1751.0, 1754.0, 1756.0, 1751.0, 1747.0, 1747.0, 1746.0, 1748.0, 1754.0, 1756.0, 1755.0, 1755.0, 1754.0, 1753.0]
    },
    "slices": {}
  }
}