{
  "AcquisitionMatrixPE": 100,
  "AcquisitionNumber": 1,
  "AcquisitionTime": "13:06:11.952500",
  "BandwidthPerPixelPhaseEncode": 18.519,
  "BaseResolution": 100,
  "BodyPartExamined": "BRAIN",
  "ConsistencyInfo": "N4_VE11C_LATEST_20160120",
  "ConversionSoftware": "dcm2niix",
  "ConversionSoftwareVersion": "v1.0.20180622 GCC4.9.2",
  "DerivedVendorReportedEchoSpacing": 0.000539986,
  "DeviceSerialNumber": "166078",
  "DwellTime": 2.1e-06,
  "EchoTime": 0.034,
  "EchoTrainLength": 100,
  "EffectiveEchoSpacing": 0.000539986,
  "FlipAngle": 90,
  "ImageOrientationPatientDICOM": [1, 2.57636e-05, 0.000819241, -2.70618e-08, 0.999507, -0.0313996],
  "ImageType": [
    "ORIGINAL",
    "PRIMARY",
    "M",
    "ND",
    "MOSAIC"
],
  "InPlanePhaseEncodingDirectionDICOM": "COL",
  "InstitutionAddress": "Street_StreetNo_Bei_Jing_District_CN_ZIP",
  "InstitutionName": "BeiJing_Normal_University",
  "InstitutionalDepartmentName": "Department",
  "MRAcquisitionType": "2D",
  "MagneticFieldStrength": 3,
  "Manufacturer": "Siemens",
  "ManufacturersModelName": "Prisma",
  "Modality": "MR",
  "MultibandAccelerationFactor": 3,
  "PartialFourier": 1,
  "PatientPosition": "HFS",
  "PercentPhaseFOV": 100,
  "PhaseEncodingDirection": "j-",
  "PhaseEncodingSteps": 100,
  "PhaseResolution": 1,
  "PixelBandwidth": 2380,
  "ProcedureStepDescription": "BNU_P2018_64CH_Liu.Jia",
  "ProtocolName": "bold_100x100_s3_2x2x2_232",
  "PulseSequenceDetails": "%SiemensSeq%_ep2d_bold",
  "ReceiveCoilActiveElements": "HC1-7;NC1",
  "ReceiveCoilName": "HeadNeck_64",
  "ReconMatrixPE": 100,
  "RepetitionTime": 2,
  "SAR": 0.0710598,
  "ScanOptions": "FS",
  "ScanningSequence": "EP",
  "SequenceName": "_epfid2d1_100",
  "SequenceVariant": "SK",
  "SeriesDescription": "bold_100x100_s3_2x2x2_232",
  "SeriesNumber": 5,
  "ShimSetting": [-5465, -11508, -1249, 363, -15, -220, -156, 33],
  "SliceThickness": 2,
  "SliceTiming": [1.485, 0, 0.99, 0.0825, 1.0725, 0.165, 1.155, 0.2475, 1.2375, 0.33, 1.32, 0.4125, 1.4025, 0.5775, 1.5675, 0.66, 1.65, 0.7425, 1.7325, 0.825, 1.815, 0.9075, 1.8975, 0.495, 1.485, 0, 0.99, 0.0825, 1.0725, 0.165, 1.155, 0.2475, 1.2375, 0.33, 1.32, 0.4125, 1.4025, 0.5775, 1.5675, 0.66, 1.65, 0.7425, 1.7325, 0.825, 1.815, 0.9075, 1.8975, 0.495, 1.485, 0, 0.99, 0.0825, 1.0725, 0.165, 1.155, 0.2475, 1.2375, 0.33, 1.32, 0.4125, 1.4025, 0.5775, 1.5675, 0.66, 1.65, 0.7425, 1.7325, 0.825, 1.815, 0.9075, 1.8975, 0.495],
  "SoftwareVersions": "syngo_MR_E11",
  "SpacingBetweenSlices": 2,
  "StationName": "AWP166078",
  "TaskName": "motor",
  "TotalReadoutTime": 0.0534586,
  "TxRefAmp": 208.073,
  "dcmmeta_affine": [
    [-1.9999992847442627, -5.4123564297015037e-08, 0.0016392911784350872, 100.0612564086914],
    [-5.152725498192012e-05, 1.9990137815475464, -0.06279926747083664, -88.80186462402344],
    [0.0016384811606258154, 0.06279928982257843, 1.9990131855010986, -66.72102355957031],
    [0.0, 0.0, 0.0, 1.0]
],
  "dcmmeta_reorient_transform": [
    [0.0, -1.0, 0.0, 99.0],
    [1.0, 0.0, 0.0, 0.0],
    [0.0, 0.0, 1.0, 0.0],
    [0.0, 0.0, 0.0, 1.0]
],
  "dcmmeta_shape": [100, 100, 72, 232],
  "dcmmeta_slice_dim": 2,
  "dcmmeta_version": 0.6,
  "global": {
    "const": {
      "AcquisitionMatrix": [100, 0, 0, 100],
      "AngioFlag": "N",
      "BitsAllocated": 16,
      "BitsStored": 12,
      "BodyPartExamined": "BRAIN",
      "Columns": 900,
      "EchoNumbers": 1,
      "EchoTime": 34.0,
      "EchoTrainLength": 100,
      "FlipAngle": 90.0,
      "HighBit": 11,
      "ImageOrientationPatient": [0.99999966409052, 2.57636279e-05, 0.00081924055902, -2.7061782e-08, 0.99950690959297, -0.0313996445187],
      "ImagePositionPatient": [-900.06096317649, -908.72664463017, -36.03956804637],
      "ImageType": [
        "ORIGINAL",
        "PRIMARY",
        "M",
        "ND",
        "MOSAIC"
],
      "ImagedNucleus": "1H",
      "ImagingFrequency": 123.257822,
      "InPlanePhaseEncodingDirection": "COL",
      "MRAcquisitionType": "2D",
      "MagneticFieldStrength": 3.0,
      "Manufacturer": "SIEMENS",
      "ManufacturerModelName": "Prisma",
      "Modality": "MR",
      "NumberOfAverages": 1.0,
      "NumberOfPhaseEncodingSteps": 100,
      "PercentPhaseFieldOfView": 100.0,
      "PercentSampling": 100.0,
      "PerformedProcedureStepStartTime": "124605.020000",
      "PhotometricInterpretation": "MONOCHROME2",
      "PixelBandwidth": 2380.0,
      "PixelRepresentation": 0,
      "PixelSpacing": [2.0, 2.0],
      "ProtocolName": "bold_100x100_s3_2x2x2_232",
      "RepetitionTime": 2000.0,
      "Rows": 900,
      "SAR": 0.07105980743656,
      "SamplesPerPixel": 1,
      "ScanOptions": "FS",
      "ScanningSequence": "EP",
      "SequenceName": "*epfid2d1_100",
      "SequenceVariant": "SK",
      "SeriesDescription": "bold_100x100_s3_2x2x2_232",
      "SeriesNumber": 5,
      "SeriesTime": "130614.677000",
      "SliceLocation": -63.817738202751,
      "SliceThickness": 2.0,
      "SmallestImagePixelValue": 0,
      "SoftwareVersions": "syngo MR E11",
      "SpacingBetweenSlices": 2.0000000276431,
      "SpecificCharacterSet": "ISO_IR 100",
      "StudyID": "1",
      "StudyTime": "124604.944000",
      "TransmitCoilName": "Body",
      "VariableFlipAngleFlag": "N",
      "WindowCenterWidthExplanation": "Algo1",
      "dBdt": 0.0},
    "slices": {}
  },
  "time": {
    "samples": {
      "AcquisitionNumber": [1, 2, 3, 4, 5, 6, 7, 8, 9, 10, 11, 12, 13, 14, 15, 16, 17, 18, 19, 20, 21, 22, 23, 24, 25, 26, 27, 28, 29, 30, 31, 32, 33, 34, 35, 36, 37, 38, 39, 40, 41, 42, 43, 44, 45, 46, 47, 48, 49, 50, 51, 52, 53, 54, 55, 56, 57, 58, 59, 60, 61, 62, 63, 64, 65, 66, 67, 68, 69, 70, 71, 72, 73, 74, 75, 76, 77, 78, 79, 80, 81, 82, 83, 84, 85, 86, 87, 88, 89, 90, 91, 92, 93, 94, 95, 96, 97, 98, 99, 100, 101, 102, 103, 104, 105, 106, 107, 108, 109, 110, 111, 112, 113, 114, 115, 116, 117, 118, 119, 120, 121, 122, 123, 124, 125, 126, 127, 128, 129, 130, 131, 132, 133, 134, 135, 136, 137, 138, 139, 140, 141, 142, 143, 144, 145, 146, 147, 148, 149, 150, 151, 152, 153, 154, 155, 156, 157, 158, 159, 160, 161, 162, 163, 164, 165, 166, 167, 168, 169, 170, 171, 172, 173, 174, 175, 176, 177, 178, 179, 180, 181, 182, 183, 184, 185, 186, 187, 188, 189, 190, 191, 192, 193, 194, 195, 196, 197, 198, 199, 200, 201, 202, 203, 204, 205, 206, 207, 208, 209, 210, 211, 212, 213, 214, 215, 216, 217, 218, 219, 220, 221, 222, 223, 224, 225, 226, 227, 228, 229, 230, 231, 232],
      "AcquisitionTime": ["130611.952500", "130613.952500", "130615.952500", "130617.952500", "130619.952500", "130621.952500", "130623.952500", "130625.952500", "130627.952500", "130629.952500", "130631.952500", "130633.952500", "130635.952500", "130637.952500", "130639.952500", "130641.952500", "130643.952500", "130645.952500", "130647.952500", "130649.952500", "130651.952500", "130653.952500", "130655.952500", "130657.952500", "130659.952500", "130701.952500", "130703.952500", "130705.952500", "130707.952500", "130709.952500", "130711.952500", "130713.952500", "130715.952500", "130717.952500", "130719.952500", "130721.952500", "130723.952500", "130725.952500", "130727.952500", "130729.952500", "130731.952500", "130733.952500", "130735.952500", "130737.952500", "130739.952500", "130741.952500", "130743.952500", "130745.952500", "130747.952500", "130749.952500", "130751.952500", "130753.952500", "130755.952500", "130757.952500", "130759.952500", "130801.952500", "130803.952500", "130805.952500", "130807.952500", "130809.952500", "130811.952500", "130813.952500", "130815.952500", "130817.952500", "130819.952500", "130821.952500", "130823.952500", "130825.952500", "130827.952500", "130829.952500", "130831.952500", "130833.952500", "130835.952500", "130837.952500", "130839.952500", "130841.952500", "130843.952500", "130845.952500", "130847.952500", "130849.952500", "130851.952500", "130853.952500", "130855.952500", "130857.952500", "130859.952500", "130901.952500", "130903.952500", "130905.952500", "130907.952500", "130909.952500", "130911.952500", "130913.952500", "130915.952500", "130917.952500", "130919.952500", "130921.952500", "130923.952500", "130925.952500", "130927.952500", "130929.952500", "130931.952500", "130933.952500", "130935.952500", "130937.952500", "130939.952500", "130941.952500", "130943.952500", "130945.952500", "130947.952500", "130949.952500", "130951.952500", "130953.952500", "130955.952500", "130957.952500", "130959.952500", "131001.952500", "131003.952500", "131005.952500", "131007.952500", "131009.952500", "131011.952500", "131013.952500", "131015.952500", "131017.952500", "131019.952500", "131021.952500", "131023.952500", "131025.952500", "131027.952500", "131029.952500", "131031.952500", "131033.952500", "131035.952500", "131037.952500", "131039.952500", "131041.952500", "131043.952500", "131045.952500", "131047.952500", "131049.952500", "131051.952500", "131053.952500", "131055.952500", "131057.952500", "131059.952500", "131101.952500", "131103.952500", "131105.952500", "131107.952500", "131109.952500", "131111.952500", "131113.952500", "131115.952500", "131117.952500", "131119.952500", "131121.952500", "131123.952500", "131125.952500", "131127.952500", "131129.952500", "131131.952500", "131133.952500", "131135.952500", "131137.952500", "131139.952500", "131141.952500", "131143.952500", "131145.952500", "131147.952500", "131149.952500", "131151.952500", "131153.952500", "131155.952500", "131157.952500", "131159.952500", "131201.952500", "131203.952500", "131205.952500", "131207.952500", "131209.952500", "131211.952500", "131213.952500", "131215.952500", "131217.952500", "131219.952500", "131221.952500", "131223.952500", "131225.952500", "131227.952500", "131229.952500", "131231.952500", "131233.952500", "131235.952500", "131237.952500", "131239.952500", "131241.952500", "131243.952500", "131245.952500", "131247.952500", "131249.952500", "131251.952500", "131253.952500", "131255.952500", "131257.952500", "131259.952500", "131301.952500", "131303.952500", "131305.952500", "131307.952500", "131309.952500", "131311.952500", "131313.952500", "131315.952500", "131317.952500", "131319.952500", "131321.952500", "131323.952500", "131325.952500", "131327.952500", "131329.952500", "131331.952500", "131333.952500", "131335.952500", "131337.952500", "131339.952500", "131341.952500", "131343.952500", "131345.952500", "131347.952500", "131349.952500", "131351.952500", "131353.952500"],
      "ContentTime": ["130614.681000", "130616.177000", "130618.177000", "130620.177000", "130622.177000", "130624.177000", "130626.177000", "130628.177000", "130630.177000", "130632.176000", "130634.678000", "130636.178000", "130638.177000", "130640.178000", "130642.177000", "130644.177000", "130646.177000", "130648.177000", "130650.176000", "130652.677000", "130654.177000", "130656.177000", "130658.177000", "130700.177000", "130702.177000", "130704.177000", "130706.176000", "130708.177000", "130710.177000", "130712.177000", "130714.178000", "130716.677000", "130718.177000", "130720.177000", "130722.178000", "130724.176000", "130726.177000", "130728.177000", "130730.177000", "130732.178000", "130734.178000", "130736.178000", "130738.177000", "130740.177000", "130742.176000", "130744.177000", "130746.178000", "130748.177000", "130750.177000", "130752.178000", "130754.177000", "130756.178000", "130758.177000", "130800.176000", "130802.177000", "130804.177000", "130806.178000", "130808.178000", "130810.177000", "130812.177000", "130814.677000", "130816.176000", "130818.176000", "130820.178000", "130822.178000", "130824.177000", "130826.178000", "130828.177000", "130830.178000", "130832.677000", "130834.176000", "130836.177000", "130838.677000", "130840.178000", "130842.177000", "130844.177000", "130846.677000", "130848.177000", "130850.677000", "130852.176000", "130854.177000", "130856.177000", "130858.177000", "130900.177000", "130902.177000", "130904.177000", "130906.177000", "130908.177000", "130910.176000", "130912.177000", "130914.178000", "130916.177000", "130918.177000", "130920.177000", "130922.178000", "130924.177000", "130926.176000", "130928.177000", "130930.177000", "130932.178000", "130934.178000", "130936.178000", "130938.178000", "130940.178000", "130942.177000", "130944.176000", "130946.177000", "130948.177000", "130950.177000", "130952.178000", "130954.178000", "130956.177000", "130958.177000", "131000.177000", "131002.176000", "131004.177000", "131006.177000", "131008.177000", "131010.177000", "131012.178000", "131014.177000", "131016.177000", "131018.177000", "131020.677000", "131022.678000", "131024.177000", "131026.177000", "131028.178000", "131030.177000", "131032.178000", "131034.178000", "131036.176000", "131038.177000", "131040.177000", "131042.677000", "131044.177000", "131046.678000", "131048.677000", "131050.177000", "131052.178000", "131054.177000", "131056.178000", "131058.177000", "131100.177000", "131102.677000", "131104.178000", "131106.178000", "131108.177000", "131110.178000", "131112.176000", "131114.178000", "131116.177000", "131118.678000", "131120.177000", "131122.177000", "131124.177000", "131126.177000", "131128.177000", "131130.176000", "131132.177000", "131134.177000", "131136.178000", "131138.178000", "131140.177000", "131142.177000", "131144.677000", "131146.176000", "131148.177000", "131150.178000", "131152.177000", "131154.177000", "131156.177000", "131158.177000", "131200.178000", "131202.177000", "131204.176000", "131206.177000", "131208.177000", "131210.177000", "131212.177000", "131214.177000", "131216.178000", "131218.177000", "131220.177000", "131222.176000", "131224.678000", "131226.177000", "131228.177000", "131230.178000", "131232.178000", "131234.177000", "131236.177000", "131238.178000", "131240.176000", "131242.178000", "131244.177000", "131246.177000", "131248.177000", "131250.177000", "131252.177000", "131254.177000", "131256.176000", "131258.178000", "131300.177000", "131302.177000", "131304.678000", "131306.177000", "131308.178000", "131310.177000", "131312.177000", "131314.676000", "131316.177000", "131318.178000", "131320.177000", "131322.178000", "131324.177000", "131326.178000", "131328.677000", "131330.177000", "131332.176000", "131334.185000", "131336.177000", "131338.178000", "131340.177000", "131342.177000", "131344.178000", "131346.178000", "131348.178000", "131350.177000", "131352.177000", "131354.177000", "131356.115000"],
      "InstanceCreationTime": ["130614.681000", "130616.177000", "130618.177000", "130620.177000", "130622.177000", "130624.177000", "130626.177000", "130628.177000", "130630.177000", "130632.176000", "130634.678000", "130636.178000", "130638.177000", "130640.178000", "130642.177000", "130644.177000", "130646.177000", "130648.177000", "130650.176000", "130652.677000", "130654.177000", "130656.177000", "130658.177000", "130700.177000", "130702.177000", "130704.177000", "130706.176000", "130708.177000", "130710.177000", "130712.177000", "130714.178000", "130716.677000", "130718.177000", "130720.177000", "130722.178000", "130724.176000", "130726.177000", "130728.177000", "130730.177000", "130732.178000", "130734.178000", "130736.178000", "130738.177000", "130740.177000", "130742.176000", "130744.177000", "130746.178000", "130748.177000", "130750.177000", "130752.178000", "130754.177000", "130756.178000", "130758.177000", "130800.176000", "130802.177000", "130804.177000", "130806.178000", "130808.178000", "130810.177000", "130812.177000", "130814.677000", "130816.176000", "130818.176000", "130820.178000", "130822.178000", "130824.177000", "130826.178000", "130828.177000", "130830.178000", "130832.677000", "130834.176000", "130836.177000", "130838.677000", "130840.178000", "130842.177000", "130844.177000", "130846.677000", "130848.177000", "130850.677000", "130852.176000", "130854.177000", "130856.177000", "130858.177000", "130900.177000", "130902.177000", "130904.177000", "130906.177000", "130908.177000", "130910.176000", "130912.177000", "130914.178000", "130916.177000", "130918.177000", "130920.177000", "130922.178000", "130924.177000", "130926.176000", "130928.177000", "130930.177000", "130932.178000", "130934.178000", "130936.178000", "130938.178000", "130940.178000", "130942.177000", "130944.176000", "130946.177000", "130948.177000", "130950.177000", "130952.178000", "130954.178000", "130956.177000", "130958.177000", "131000.177000", "131002.176000", "131004.177000", "131006.177000", "131008.177000", "131010.177000", "131012.178000", "131014.177000", "131016.177000", "131018.177000", "131020.677000", "131022.678000", "131024.177000", "131026.177000", "131028.178000", "131030.177000", "131032.178000", "131034.178000", "131036.176000", "131038.177000", "131040.177000", "131042.677000", "131044.177000", "131046.678000", "131048.677000", "131050.177000", "131052.178000", "131054.177000", "131056.178000", "131058.177000", "131100.177000", "131102.677000", "131104.178000", "131106.178000", "131108.177000", "131110.178000", "131112.176000", "131114.178000", "131116.177000", "131118.678000", "131120.177000", "131122.177000", "131124.177000", "131126.177000", "131128.177000", "131130.176000", "131132.177000", "131134.177000", "131136.178000", "131138.178000", "131140.177000", "131142.177000", "131144.677000", "131146.176000", "131148.177000", "131150.178000", "131152.177000", "131154.177000", "131156.177000", "131158.177000", "131200.178000", "131202.177000", "131204.176000", "131206.177000", "131208.177000", "131210.177000", "131212.177000", "131214.177000", "131216.178000", "131218.177000", "131220.177000", "131222.176000", "131224.678000", "131226.177000", "131228.177000", "131230.178000", "131232.178000", "131234.177000", "131236.177000", "131238.178000", "131240.176000", "131242.178000", "131244.177000", "131246.177000", "131248.177000", "131250.177000", "131252.177000", "131254.177000", "131256.176000", "131258.178000", "131300.177000", "131302.177000", "131304.678000", "131306.177000", "131308.178000", "131310.177000", "131312.177000", "131314.676000", "131316.177000", "131318.178000", "131320.177000", "131322.178000", "131324.177000", "131326.178000", "131328.677000", "131330.177000", "131332.176000", "131334.185000", "131336.177000", "131338.178000", "131340.177000", "131342.177000", "131344.178000", "131346.178000", "131348.178000", "131350.177000", "131352.177000", "131354.177000", "131356.115000"],
      "InstanceNumber": [1, 2, 3, 4, 5, 6, 7, 8, 9, 10, 11, 12, 13, 14, 15, 16, 17, 18, 19, 20, 21, 22, 23, 24, 25, 26, 27, 28, 29, 30, 31, 32, 33, 34, 35, 36, 37, 38, 39, 40, 41, 42, 43, 44, 45, 46, 47, 48, 49, 50, 51, 52, 53, 54, 55, 56, 57, 58, 59, 60, 61, 62, 63, 64, 65, 66, 67, 68, 69, 70, 71, 72, 73, 74, 75, 76, 77, 78, 79, 80, 81, 82, 83, 84, 85, 86, 87, 88, 89, 90, 91, 92, 93, 94, 95, 96, 97, 98, 99, 100, 101, 102, 103, 104, 105, 106, 107, 108, 109, 110, 111, 112, 113, 114, 115, 116, 117, 118, 119, 120, 121, 122, 123, 124, 125, 126, 127, 128, 129, 130, 131, 132, 133, 134, 135, 136, 137, 138, 139, 140, 141, 142, 143, 144, 145, 146, 147, 148, 149, 150, 151, 152, 153, 154, 155, 156, 157, 158, 159, 160, 161, 162, 163, 164, 165, 166, 167, 168, 169, 170, 171, 172, 173, 174, 175, 176, 177, 178, 179, 180, 181, 182, 183, 184, 185, 186, 187, 188, 189, 190, 191, 192, 193, 194, 195, 196, 197, 198, 199, 200, 201, 202, 203, 204, 205, 206, 207, 208, 209, 210, 211, 212, 213, 214, 215, 216, 217, 218, 219, 220, 221, 222, 223, 224, 225, 226, 227, 228, 229, 230, 231, 232],
      "LargestImagePixelValue": [2989, 2971, 2941, 3004, 2992, 2932, 2957, 2930, 3000, 3008, 2971, 2954, 2960, 2928, 2965, 2948, 2958, 2982, 2966, 3025, 2973, 3010, 2974, 2967, 3067, 3030, 2993, 3015, 2959, 3020, 3023, 3075, 3015, 2956, 2954, 2941, 2939, 2966, 2945, 2959, 2979, 2940, 2977, 2890, 3052, 2908, 3114, 2898, 3051, 3056, 3048, 3015, 3069, 3071, 3043, 3024, 2997, 3117, 3005, 3079, 3032, 3068, 3050, 3022, 3089, 3028, 3056, 3081, 3018, 2998, 3047, 2922, 2991, 2878, 2922, 2846, 2912, 2879, 2912, 2851, 2923, 3002, 2999, 3005, 3029, 2974, 3001, 2987, 3008, 3032, 3041, 3030, 3047, 3061, 3019, 3043, 2999, 2962, 2980, 2952, 3044, 2977, 3049, 2994, 3079, 2989, 2958, 2996, 2994, 2976, 3007, 3022, 2979, 3040, 2945, 2998, 3023, 2981, 2982, 3056, 2984, 3022, 3039, 2962, 2946, 3052, 3046, 2962, 2925, 2997, 2975, 3017, 2931, 2935, 2943, 2937, 2978, 3075, 2962, 2930, 3004, 2995, 2982, 3030, 2982, 2986, 3007, 3019, 3038, 3019, 3027, 3019, 2891, 2973, 2885, 3024, 2914, 2895, 2980, 2894, 3000, 3046, 3052, 3052, 3033, 3048, 3021, 3068, 2998, 3036, 2977, 2966, 2964, 2956, 2993, 3019, 3031, 3052, 3096, 2983, 3036, 3081, 3045, 3044, 3037, 3035, 2885, 3070, 2867, 3134, 2940, 3129, 3041, 3076, 3062, 3049, 3097, 3018, 3133, 3071, 3065, 3033, 3074, 3039, 3094, 3055, 3069, 3013, 3041, 3051, 3037, 3032, 3092, 3060, 3096, 3078, 3032, 3028, 3008, 3067, 3133, 3014, 3076, 3055, 3101, 3061, 3022, 3056, 3030, 3051, 3005, 3055],
      "WindowCenter": [762.0, 761.0, 761.0, 761.0, 761.0, 761.0, 760.0, 761.0, 761.0, 761.0, 761.0, 761.0, 760.0, 759.0, 759.0, 759.0, 760.0, 760.0, 761.0, 761.0, 761.0, 761.0, 761.0, 761.0, 762.0, 762.0, 761.0, 761.0, 761.0, 761.0, 760.0, 760.0, 760.0, 760.0, 760.0, 760.0, 759.0, 759.0, 759.0, 759.0, 759.0, 760.0, 762.0, 761.0, 763.0, 761.0, 763.0, 761.0, 761.0, 761.0, 761.0, 761.0, 761.0, 761.0, 760.0, 760.0, 761.0, 763.0, 763.0, 763.0, 762.0, 762.0, 762.0, 762.0, 762.0, 761.0, 761.0, 760.0, 760.0, 759.0, 759.0, 758.0, 756.0, 758.0, 757.0, 758.0, 760.0, 758.0, 759.0, 758.0, 760.0, 761.0, 763.0, 762.0, 762.0, 761.0, 760.0, 760.0, 760.0, 760.0, 761.0, 761.0, 761.0, 760.0, 760.0, 760.0, 760.0, 759.0, 760.0, 759.0, 759.0, 758.0, 759.0, 759.0, 760.0, 760.0, 760.0, 760.0, 759.0, 759.0, 760.0, 760.0, 760.0, 762.0, 761.0, 762.0, 761.0, 760.0, 761.0, 761.0, 761.0, 761.0, 762.0, 760.0, 758.0, 758.0, 758.0, 757.0, 758.0, 758.0, 759.0, 760.0, 760.0, 760.0, 760.0, 760.0, 761.0, 761.0, 760.0, 761.0, 761.0, 761.0, 760.0, 761.0, 760.0, 760.0, 760.0, 760.0, 760.0, 759.0, 759.0, 760.0, 755.0, 758.0, 759.0, 761.0, 757.0, 756.0, 756.0, 757.0, 759.0, 758.0, 760.0, 761.0, 761.0, 760.0, 759.0, 759.0, 758.0, 760.0, 760.0, 759.0, 759.0, 758.0, 757.0, 758.0, 758.0, 758.0, 759.0, 759.0, 759.0, 759.0, 758.0, 757.0, 754.0, 756.0, 754.0, 761.0, 756.0, 760.0, 758.0, 762.0, 759.0, 759.0, 759.0, 759.0, 761.0, 760.0, 761.0, 761.0, 761.0, 762.0, 761.0, 761.0, 763.0, 761.0, 760.0, 759.0, 758.0, 758.0, 759.0, 759.0, 760.0, 759.0, 759.0, 759.0, 758.0, 759.0, 759.0, 758.0, 758.0, 757.0, 758.0, 758.0, 759.0, 760.0, 762.0, 762.0, 761.0, 761.0, 760.0, 761.0],
      "WindowWidth": [1669.0, 1667.0, 1665.0, 1668.0, 1667.0, 1665.0, 1665.0, 1665.0, 1667.0, 1666.0, 1666.0, 1665.0, 1664.0, 1661.0, 1661.0, 1661.0, 1662.0, 1664.0, 1665.0, 1666.0, 1667.0, 1667.0, 1667.0, 1665.0, 1668.0, 1668.0, 1667.0, 1666.0, 1665.0, 1666.0, 1663.0, 1664.0, 1662.0, 1662.0, 1662.0, 1663.0, 1661.0, 1661.0, 1661.0, 1661.0, 1661.0, 1662.0, 1668.0, 1665.0, 1671.0, 1665.0, 1671.0, 1665.0, 1667.0, 1667.0, 1666.0, 1666.0, 1665.0, 1664.0, 1662.0, 1661.0, 1665.0, 1672.0, 1671.0, 1670.0, 1670.0, 1670.0, 1668.0, 1667.0, 1669.0, 1666.0, 1665.0, 1663.0, 1661.0, 1660.0, 1658.0, 1656.0, 1653.0, 1657.0, 1656.0, 1657.0, 1663.0, 1658.0, 1659.0, 1657.0, 1663.0, 1664.0, 1670.0, 1670.0, 1669.0, 1665.0, 1663.0, 1662.0, 1663.0, 1664.0, 1665.0, 1665.0, 1667.0, 1664.0, 1663.0, 1664.0, 1662.0, 1660.0, 1662.0, 1661.0, 1661.0, 1658.0, 1660.0, 1662.0, 1663.0, 1664.0, 1663.0, 1663.0, 1660.0, 1659.0, 1661.0, 1664.0, 1663.0, 1667.0, 1666.0, 1668.0, 1666.0, 1662.0, 1664.0, 1666.0, 1664.0, 1666.0, 1667.0, 1662.0, 1656.0, 1657.0, 1656.0, 1654.0, 1656.0, 1658.0, 1658.0, 1662.0, 1661.0, 1662.0, 1663.0, 1663.0, 1664.0, 1665.0, 1663.0, 1664.0, 1666.0, 1666.0, 1663.0, 1666.0, 1662.0, 1662.0, 1663.0, 1662.0, 1662.0, 1661.0, 1659.0, 1661.0, 1649.0, 1657.0, 1660.0, 1665.0, 1655.0, 1651.0, 1652.0, 1655.0, 1658.0, 1657.0, 1662.0, 1666.0, 1663.0, 1663.0, 1658.0, 1658.0, 1657.0, 1661.0, 1661.0, 1660.0, 1660.0, 1657.0, 1655.0, 1656.0, 1656.0, 1656.0, 1660.0, 1658.0, 1659.0, 1660.0, 1656.0, 1654.0, 1644.0, 1652.0, 1647.0, 1665.0, 1652.0, 1661.0, 1657.0, 1667.0, 1659.0, 1661.0, 1659.0, 1659.0, 1664.0, 1662.0, 1666.0, 1665.0, 1666.0, 1667.0, 1664.0, 1664.0, 1670.0, 1664.0, 1662.0, 1659.0, 1655.0, 1656.0, 1659.0, 1660.0, 1664.0, 1659.0, 1658.0, 1661.0, 1656.0, 1660.0, 1659.0, 1657.0, 1656.0, 1654.0, 1658.0, 1657.0, 1659.0, 1661.0, 1667.0, 1669.0, 1665.0, 1664.0, 1662.0, 1664.0]
    },
    "slices": {}
  }
}