{
  "AcquisitionMatrixPE": 100,
  "AcquisitionNumber": 1,
  "AcquisitionTime": "14:30:41.917500",
  "BandwidthPerPixelPhaseEncode": 18.519,
  "BaseResolution": 100,
  "BodyPartExamined": "BRAIN",
  "ConsistencyInfo": "N4_VE11C_LATEST_20160120",
  "ConversionSoftware": "dcm2niix",
  "ConversionSoftwareVersion": "v1.0.20180622 GCC4.9.2",
  "DerivedVendorReportedEchoSpacing": 0.000539986,
  "DeviceSerialNumber": "166078",
  "DwellTime": 2.1e-06,
  "EchoTime": 0.034,
  "EchoTrainLength": 100,
  "EffectiveEchoSpacing": 0.000539986,
  "FlipAngle": 90,
  "ImageOrientationPatientDICOM": [0.999173, -0.000998243, -0.0406414, -0.00523173, 0.988228, -0.152896],
  "ImageType": [
    "ORIGINAL",
    "PRIMARY",
    "M",
    "ND",
    "MOSAIC"
],
  "InPlanePhaseEncodingDirectionDICOM": "COL",
  "InstitutionAddress": "Street_StreetNo_Bei_Jing_District_CN_ZIP",
  "InstitutionName": "BeiJing_Normal_University",
  "InstitutionalDepartmentName": "Department",
  "MRAcquisitionType": "2D",
  "MagneticFieldStrength": 3,
  "Manufacturer": "Siemens",
  "ManufacturersModelName": "Prisma",
  "Modality": "MR",
  "MultibandAccelerationFactor": 3,
  "PartialFourier": 1,
  "PatientPosition": "HFS",
  "PercentPhaseFOV": 100,
  "PhaseEncodingDirection": "j-",
  "PhaseEncodingSteps": 100,
  "PhaseResolution": 1,
  "PixelBandwidth": 2380,
  "ProcedureStepDescription": "BNU_P2018_64CH_Liu.Jia",
  "ProtocolName": "bold_100x100_s3_2x2x2_232",
  "PulseSequenceDetails": "%SiemensSeq%_ep2d_bold",
  "ReceiveCoilActiveElements": "HC1-7;NC1",
  "ReceiveCoilName": "HeadNeck_64",
  "ReconMatrixPE": 100,
  "RepetitionTime": 2,
  "SAR": 0.0682365,
  "ScanOptions": "FS",
  "ScanningSequence": "EP",
  "SequenceName": "_epfid2d1_100",
  "SequenceVariant": "SK",
  "SeriesDescription": "bold_100x100_s3_2x2x2_232",
  "SeriesNumber": 8,
  "ShimSetting": [-5454, -11503, -1258, 279, -18, -381, -141, 40],
  "SliceThickness": 2,
  "SliceTiming": [1.485, 0, 0.99, 0.0825, 1.0725, 0.165, 1.155, 0.2475, 1.2375, 0.33, 1.32, 0.4125, 1.4025, 0.5775, 1.5675, 0.66, 1.65, 0.7425, 1.7325, 0.825, 1.815, 0.9075, 1.8975, 0.495, 1.485, 0, 0.99, 0.0825, 1.0725, 0.165, 1.155, 0.2475, 1.2375, 0.33, 1.32, 0.4125, 1.4025, 0.5775, 1.5675, 0.66, 1.65, 0.7425, 1.7325, 0.825, 1.815, 0.9075, 1.8975, 0.495, 1.485, 0, 0.99, 0.0825, 1.0725, 0.165, 1.155, 0.2475, 1.2375, 0.33, 1.32, 0.4125, 1.4025, 0.5775, 1.5675, 0.66, 1.65, 0.7425, 1.7325, 0.825, 1.815, 0.9075, 1.8975, 0.495],
  "SoftwareVersions": "syngo_MR_E11",
  "SpacingBetweenSlices": 2,
  "StationName": "AWP166078",
  "TaskName": "motor",
  "TotalReadoutTime": 0.0534586,
  "TxRefAmp": 217.03,
  "dcmmeta_affine": [
    [-1.9983465671539307, -0.010463466867804527, -0.08063119649887085, 105.33358764648438],
    [0.001996485283598304, 1.976456880569458, -0.30596423149108887, -78.05084991455078],
    [-0.08128276467323303, 0.3057917654514313, 1.9748125076293945, -72.25251770019531],
    [0.0, 0.0, 0.0, 1.0]
],
  "dcmmeta_reorient_transform": [
    [0.0, -1.0, 0.0, 99.0],
    [1.0, 0.0, 0.0, 0.0],
    [0.0, 0.0, 1.0, 0.0],
    [0.0, 0.0, 0.0, 1.0]
],
  "dcmmeta_shape": [100, 100, 72, 232],
  "dcmmeta_slice_dim": 2,
  "dcmmeta_version": 0.6,
  "global": {
    "const": {
      "AcquisitionMatrix": [100, 0, 0, 100],
      "AngioFlag": "N",
      "BitsAllocated": 16,
      "BitsStored": 12,
      "BodyPartExamined": "BRAIN",
      "Columns": 900,
      "EchoNumbers": 1,
      "EchoTime": 34.0,
      "EchoTrainLength": 100,
      "FlipAngle": 90.0,
      "HighBit": 11,
      "ImageOrientationPatient": [0.99917329909144, -0.0009982426413, -0.0406413815508, -0.0052317332159, 0.98822845431628, -0.152895883029],
      "ImagePositionPatient": [-899.45095991288, -907.40255717616, 112.85067908246],
      "ImageType": [
        "ORIGINAL",
        "PRIMARY",
        "M",
        "ND",
        "MOSAIC"
],
      "ImagedNucleus": "1H",
      "ImagingFrequency": 123.257816,
      "InPlanePhaseEncodingDirection": "COL",
      "MRAcquisitionType": "2D",
      "MagneticFieldStrength": 3.0,
      "Manufacturer": "SIEMENS",
      "ManufacturerModelName": "Prisma",
      "Modality": "MR",
      "NumberOfAverages": 1.0,
      "NumberOfPhaseEncodingSteps": 100,
      "PercentPhaseFieldOfView": 100.0,
      "PercentSampling": 100.0,
      "PerformedProcedureStepStartTime": "135801.758000",
      "PhotometricInterpretation": "MONOCHROME2",
      "PixelBandwidth": 2380.0,
      "PixelRepresentation": 0,
      "PixelSpacing": [2.0, 2.0],
      "ProtocolName": "bold_100x100_s3_2x2x2_232",
      "RepetitionTime": 2000.0,
      "Rows": 900,
      "SAR": 0.06823652102505,
      "SamplesPerPixel": 1,
      "ScanOptions": "FS",
      "ScanningSequence": "EP",
      "SequenceName": "*epfid2d1_100",
      "SequenceVariant": "SK",
      "SeriesDescription": "bold_100x100_s3_2x2x2_232",
      "SeriesNumber": 8,
      "SeriesTime": "143044.240000",
      "SliceLocation": -63.648791715665,
      "SliceThickness": 2.0,
      "SmallestImagePixelValue": 0,
      "SoftwareVersions": "syngo MR E11",
      "SpacingBetweenSlices": 1.9999999961699,
      "SpecificCharacterSet": "ISO_IR 100",
      "StudyID": "1",
      "StudyTime": "135801.666000",
      "TransmitCoilName": "Body",
      "VariableFlipAngleFlag": "N",
      "WindowCenterWidthExplanation": "Algo1",
      "dBdt": 0.0},
    "slices": {}
  },
  "time": {
    "samples": {
      "AcquisitionNumber": [1, 2, 3, 4, 5, 6, 7, 8, 9, 10, 11, 12, 13, 14, 15, 16, 17, 18, 19, 20, 21, 22, 23, 24, 25, 26, 27, 28, 29, 30, 31, 32, 33, 34, 35, 36, 37, 38, 39, 40, 41, 42, 43, 44, 45, 46, 47, 48, 49, 50, 51, 52, 53, 54, 55, 56, 57, 58, 59, 60, 61, 62, 63, 64, 65, 66, 67, 68, 69, 70, 71, 72, 73, 74, 75, 76, 77, 78, 79, 80, 81, 82, 83, 84, 85, 86, 87, 88, 89, 90, 91, 92, 93, 94, 95, 96, 97, 98, 99, 100, 101, 102, 103, 104, 105, 106, 107, 108, 109, 110, 111, 112, 113, 114, 115, 116, 117, 118, 119, 120, 121, 122, 123, 124, 125, 126, 127, 128, 129, 130, 131, 132, 133, 134, 135, 136, 137, 138, 139, 140, 141, 142, 143, 144, 145, 146, 147, 148, 149, 150, 151, 152, 153, 154, 155, 156, 157, 158, 159, 160, 161, 162, 163, 164, 165, 166, 167, 168, 169, 170, 171, 172, 173, 174, 175, 176, 177, 178, 179, 180, 181, 182, 183, 184, 185, 186, 187, 188, 189, 190, 191, 192, 193, 194, 195, 196, 197, 198, 199, 200, 201, 202, 203, 204, 205, 206, 207, 208, 209, 210, 211, 212, 213, 214, 215, 216, 217, 218, 219, 220, 221, 222, 223, 224, 225, 226, 227, 228, 229, 230, 231, 232],
      "AcquisitionTime": ["143041.917500", "143043.917500", "143045.917500", "143047.917500", "143049.917500", "143051.917500", "143053.917500", "143055.917500", "143057.917500", "143059.917500", "143101.917500", "143103.917500", "143105.917500", "143107.917500", "143109.917500", "143111.917500", "143113.917500", "143115.917500", "143117.917500", "143119.917500", "143121.917500", "143123.917500", "143125.917500", "143127.917500", "143129.917500", "143131.917500", "143133.917500", "143135.917500", "143137.917500", "143139.917500", "143141.917500", "143143.917500", "143145.917500", "143147.917500", "143149.917500", "143151.917500", "143153.917500", "143155.917500", "143157.917500", "143159.917500", "143201.917500", "143203.917500", "143205.917500", "143207.917500", "143209.917500", "143211.917500", "143213.917500", "143215.917500", "143217.917500", "143219.917500", "143221.917500", "143223.917500", "143225.917500", "143227.917500", "143229.917500", "143231.917500", "143233.917500", "143235.917500", "143237.917500", "143239.917500", "143241.917500", "143243.917500", "143245.917500", "143247.917500", "143249.917500", "143251.917500", "143253.917500", "143255.917500", "143257.917500", "143259.917500", "143301.917500", "143303.917500", "143305.917500", "143307.917500", "143309.917500", "143311.917500", "143313.917500", "143315.917500", "143317.917500", "143319.917500", "143321.917500", "143323.917500", "143325.917500", "143327.917500", "143329.917500", "143331.917500", "143333.917500", "143335.917500", "143337.917500", "143339.917500", "143341.917500", "143343.917500", "143345.917500", "143347.917500", "143349.917500", "143351.917500", "143353.917500", "143355.917500", "143357.917500", "143359.917500", "143401.917500", "143403.917500", "143405.917500", "143407.917500", "143409.917500", "143411.917500", "143413.917500", "143415.917500", "143417.917500", "143419.917500", "143421.917500", "143423.917500", "143425.917500", "143427.917500", "143429.917500", "143431.917500", "143433.917500", "143435.917500", "143437.917500", "143439.917500", "143441.917500", "143443.917500", "143445.917500", "143447.917500", "143449.917500", "143451.917500", "143453.917500", "143455.917500", "143457.917500", "143459.917500", "143501.917500", "143503.917500", "143505.917500", "143507.917500", "143509.917500", "143511.917500", "143513.917500", "143515.917500", "143517.917500", "143519.917500", "143521.917500", "143523.917500", "143525.917500", "143527.917500", "143529.917500", "143531.917500", "143533.917500", "143535.917500", "143537.917500", "143539.917500", "143541.917500", "143543.917500", "143545.917500", "143547.917500", "143549.917500", "143551.917500", "143553.917500", "143555.917500", "143557.917500", "143559.917500", "143601.917500", "143603.917500", "143605.917500", "143607.917500", "143609.917500", "143611.917500", "143613.917500", "143615.917500", "143617.917500", "143619.917500", "143621.917500", "143623.917500", "143625.917500", "143627.917500", "143629.917500", "143631.917500", "143633.917500", "143635.917500", "143637.917500", "143639.917500", "143641.917500", "143643.917500", "143645.917500", "143647.917500", "143649.917500", "143651.917500", "143653.917500", "143655.917500", "143657.917500", "143659.917500", "143701.917500", "143703.917500", "143705.917500", "143707.917500", "143709.917500", "143711.917500", "143713.917500", "143715.917500", "143717.917500", "143719.917500", "143721.917500", "143723.917500", "143725.917500", "143727.917500", "143729.917500", "143731.917500", "143733.917500", "143735.917500", "143737.917500", "143739.917500", "143741.917500", "143743.917500", "143745.917500", "143747.917500", "143749.917500", "143751.917500", "143753.917500", "143755.917500", "143757.917500", "143759.917500", "143801.917500", "143803.917500", "143805.917500", "143807.917500", "143809.917500", "143811.917500", "143813.917500", "143815.917500", "143817.917500", "143819.917500", "143821.917500", "143823.917500"],
      "ContentTime": ["143044.244000", "143045.739000", "143047.739000", "143049.739000", "143051.740000", "143053.739000", "143055.739000", "143057.739000", "143059.739000", "143101.739000", "143103.738000", "143105.739000", "143107.739000", "143110.240000", "143111.739000", "143113.739000", "143115.739000", "143117.739000", "143119.740000", "143121.738000", "143123.739000", "143125.740000", "143127.739000", "143129.739000", "143131.739000", "143133.739000", "143135.739000", "143137.738000", "143139.738000", "143141.739000", "143143.739000", "143145.739000", "143147.740000", "143149.739000", "143151.740000", "143153.740000", "143155.739000", "143157.739000", "143159.739000", "143201.739000", "143203.739000", "143205.740000", "143207.739000", "143209.740000", "143211.739000", "143213.738000", "143215.740000", "143217.740000", "143219.739000", "143221.739000", "143223.740000", "143225.739000", "143227.740000", "143229.739000", "143231.739000", "143233.739000", "143235.739000", "143237.739000", "143239.739000", "143241.739000", "143243.739000", "143245.739000", "143247.738000", "143249.738000", "143251.739000", "143253.739000", "143255.740000", "143257.739000", "143259.739000", "143301.739000", "143303.740000", "143305.738000", "143307.740000", "143309.739000", "143311.739000", "143313.740000", "143315.739000", "143317.740000", "143319.739000", "143321.739000", "143323.738000", "143326.239000", "143327.739000", "143329.739000", "143331.740000", "143333.740000", "143335.739000", "143337.739000", "143339.740000", "143341.738000", "143343.739000", "143345.739000", "143347.740000", "143349.739000", "143351.739000", "143353.740000", "143355.739000", "143357.738000", "143359.739000", "143401.740000", "143403.739000", "143405.739000", "143407.739000", "143409.740000", "143411.739000", "143413.739000", "143415.738000", "143417.740000", "143419.739000", "143421.739000", "143423.739000", "143425.739000", "143427.739000", "143429.739000", "143431.739000", "143433.738000", "143435.739000", "143437.739000", "143439.740000", "143441.739000", "143443.739000", "143445.739000", "143447.740000", "143450.239000", "143451.738000", "143453.739000", "143455.739000", "143457.739000", "143459.739000", "143501.739000", "143503.739000", "143505.739000", "143507.738000", "143509.740000", "143511.739000", "143513.739000", "143515.739000", "143517.739000", "143519.739000", "143521.739000", "143523.740000", "143525.738000", "143527.740000", "143529.739000", "143531.739000", "143533.739000", "143535.739000", "143537.739000", "143539.739000", "143541.740000", "143543.739000", "143545.739000", "143547.739000", "143549.739000", "143551.739000", "143553.739000", "143555.739000", "143557.739000", "143559.740000", "143601.739000", "143603.740000", "143605.739000", "143607.739000", "143609.740000", "143611.739000", "143613.740000", "143615.739000", "143617.739000", "143619.739000", "143621.739000", "143623.739000", "143625.739000", "143627.739000", "143629.739000", "143631.740000", "143633.739000", "143635.738000", "143637.739000", "143639.740000", "143641.739000", "143643.739000", "143645.739000", "143647.739000", "143649.739000", "143651.739000", "143653.738000", "143655.740000", "143657.740000", "143659.739000", "143701.739000", "143703.739000", "143705.739000", "143707.740000", "143709.740000", "143711.738000", "143713.739000", "143715.739000", "143717.740000", "143719.739000", "143721.739000", "143723.740000", "143725.740000", "143727.738000", "143729.739000", "143731.739000", "143733.739000", "143735.739000", "143737.739000", "143739.740000", "143741.739000", "143743.740000", "143745.739000", "143747.739000", "143749.739000", "143751.739000", "143753.739000", "143755.739000", "143757.739000", "143759.740000", "143801.739000", "143803.749000", "143805.740000", "143807.739000", "143809.739000", "143811.739000", "143813.739000", "143815.739000", "143817.739000", "143819.740000", "143821.739000", "143823.740000", "143825.593000"],
      "InstanceCreationTime": ["143044.244000", "143045.739000", "143047.739000", "143049.739000", "143051.740000", "143053.739000", "143055.739000", "143057.739000", "143059.739000", "143101.739000", "143103.738000", "143105.739000", "143107.739000", "143110.240000", "143111.739000", "143113.739000", "143115.739000", "143117.739000", "143119.740000", "143121.738000", "143123.739000", "143125.740000", "143127.739000", "143129.739000", "143131.739000", "143133.739000", "143135.739000", "143137.738000", "143139.738000", "143141.739000", "143143.739000", "143145.739000", "143147.740000", "143149.739000", "143151.740000", "143153.740000", "143155.739000", "143157.739000", "143159.739000", "143201.739000", "143203.739000", "143205.740000", "143207.739000", "143209.740000", "143211.739000", "143213.738000", "143215.740000", "143217.740000", "143219.739000", "143221.739000", "143223.740000", "143225.739000", "143227.740000", "143229.739000", "143231.739000", "143233.739000", "143235.739000", "143237.739000", "143239.739000", "143241.739000", "143243.739000", "143245.739000", "143247.738000", "143249.738000", "143251.739000", "143253.739000", "143255.740000", "143257.739000", "143259.739000", "143301.739000", "143303.740000", "143305.738000", "143307.740000", "143309.739000", "143311.739000", "143313.740000", "143315.739000", "143317.740000", "143319.739000", "143321.739000", "143323.738000", "143326.239000", "143327.739000", "143329.739000", "143331.740000", "143333.740000", "143335.739000", "143337.739000", "143339.740000", "143341.738000", "143343.739000", "143345.739000", "143347.740000", "143349.739000", "143351.739000", "143353.740000", "143355.739000", "143357.738000", "143359.739000", "143401.740000", "143403.739000", "143405.739000", "143407.739000", "143409.740000", "143411.739000", "143413.739000", "143415.738000", "143417.740000", "143419.739000", "143421.739000", "143423.739000", "143425.739000", "143427.739000", "143429.739000", "143431.739000", "143433.738000", "143435.739000", "143437.739000", "143439.740000", "143441.739000", "143443.739000", "143445.739000", "143447.740000", "143450.239000", "143451.738000", "143453.739000", "143455.739000", "143457.739000", "143459.739000", "143501.739000", "143503.739000", "143505.739000", "143507.738000", "143509.740000", "143511.739000", "143513.739000", "143515.739000", "143517.739000", "143519.739000", "143521.739000", "143523.740000", "143525.738000", "143527.740000", "143529.739000", "143531.739000", "143533.739000", "143535.739000", "143537.739000", "143539.739000", "143541.740000", "143543.739000", "143545.739000", "143547.739000", "143549.739000", "143551.739000", "143553.739000", "143555.739000", "143557.739000", "143559.740000", "143601.739000", "143603.740000", "143605.739000", "143607.739000", "143609.740000", "143611.739000", "143613.740000", "143615.739000", "143617.739000", "143619.739000", "143621.739000", "143623.739000", "143625.739000", "143627.739000", "143629.739000", "143631.740000", "143633.739000", "143635.738000", "143637.739000", "143639.740000", "143641.739000", "143643.739000", "143645.739000", "143647.739000", "143649.739000", "143651.739000", "143653.738000", "143655.740000", "143657.740000", "143659.739000", "143701.739000", "143703.739000", "143705.739000", "143707.740000", "143709.740000", "143711.738000", "143713.739000", "143715.739000", "143717.740000", "143719.739000", "143721.739000", "143723.740000", "143725.740000", "143727.738000", "143729.739000", "143731.739000", "143733.739000", "143735.739000", "143737.739000", "143739.740000", "143741.739000", "143743.740000", "143745.739000", "143747.739000", "143749.739000", "143751.739000", "143753.739000", "143755.739000", "143757.739000", "143759.740000", "143801.739000", "143803.749000", "143805.740000", "143807.739000", "143809.739000", "143811.739000", "143813.739000", "143815.739000", "143817.739000", "143819.740000", "143821.739000", "143823.740000", "143825.593000"],
      "InstanceNumber": [1, 2, 3, 4, 5, 6, 7, 8, 9, 10, 11, 12, 13, 14, 15, 16, 17, 18, 19, 20, 21, 22, 23, 24, 25, 26, 27, 28, 29, 30, 31, 32, 33, 34, 35, 36, 37, 38, 39, 40, 41, 42, 43, 44, 45, 46, 47, 48, 49, 50, 51, 52, 53, 54, 55, 56, 57, 58, 59, 60, 61, 62, 63, 64, 65, 66, 67, 68, 69, 70, 71, 72, 73, 74, 75, 76, 77, 78, 79, 80, 81, 82, 83, 84, 85, 86, 87, 88, 89, 90, 91, 92, 93, 94, 95, 96, 97, 98, 99, 100, 101, 102, 103, 104, 105, 106, 107, 108, 109, 110, 111, 112, 113, 114, 115, 116, 117, 118, 119, 120, 121, 122, 123, 124, 125, 126, 127, 128, 129, 130, 131, 132, 133, 134, 135, 136, 137, 138, 139, 140, 141, 142, 143, 144, 145, 146, 147, 148, 149, 150, 151, 152, 153, 154, 155, 156, 157, 158, 159, 160, 161, 162, 163, 164, 165, 166, 167, 168, 169, 170, 171, 172, 173, 174, 175, 176, 177, 178, 179, 180, 181, 182, 183, 184, 185, 186, 187, 188, 189, 190, 191, 192, 193, 194, 195, 196, 197, 198, 199, 200, 201, 202, 203, 204, 205, 206, 207, 208, 209, 210, 211, 212, 213, 214, 215, 216, 217, 218, 219, 220, 221, 222, 223, 224, 225, 226, 227, 228, 229, 230, 231, 232],
      "LargestImagePixelValue": [3747, 3677, 3617, 3608, 3581, 3611, 3594, 3577, 3601, 3566, 3533, 3547, 3530, 3562, 3534, 3456, 3543, 3515, 3517, 3478, 3418, 3392, 3419, 3417, 3687, 3525, 3578, 3515, 3489, 3499, 3496, 3408, 3472, 3560, 3524, 3527, 3563, 3595, 3604, 3584, 3614, 3608, 3585, 3447, 3593, 3555, 3592, 3615, 3571, 3535, 3606, 3621, 3598, 3584, 3572, 3514, 3537, 3505, 3428, 3324, 3321, 3385, 3461, 3462, 3447, 3432, 3541, 3481, 3449, 3411, 3339, 3367, 3364, 3420, 3429, 3427, 3421, 3401, 3428, 3362, 3378, 3425, 3358, 3543, 3297, 3293, 3274, 3341, 3388, 3298, 3321, 3290, 3267, 3281, 3292, 3334, 3272, 3328, 3303, 3305, 3273, 3352, 3283, 3297, 3305, 3304, 3244, 3385, 3364, 3350, 3387, 3346, 3335, 3306, 3339, 3309, 3362, 3304, 3304, 3323, 3338, 3298, 3373, 3236, 3396, 3347, 3289, 3289, 3313, 3324, 3314, 3305, 3319, 3341, 3385, 3316, 3304, 3309, 3304, 3325, 3346, 3323, 3333, 3408, 3392, 3533, 3297, 3399, 3474, 3365, 3356, 3458, 3268, 3286, 3313, 3304, 3317, 3315, 3329, 3312, 3385, 3331, 3231, 3371, 3276, 3258, 3362, 3274, 3271, 3349, 3344, 3312, 3326, 3358, 3380, 3281, 3263, 3316, 3315, 3321, 3320, 3286, 3294, 3314, 3317, 3339, 3318, 3313, 3300, 3321, 3369, 3328, 3344, 3346, 3320, 3339, 3377, 3342, 3260, 3268, 3240, 3291, 3298, 3241, 3227, 3237, 3339, 3304, 3409, 3390, 3292, 3595, 3146, 3424, 3332, 3164, 3325, 3261, 3291, 3266, 3274, 3346, 3292, 3314, 3277, 3327, 3301, 3329, 3335, 3357, 3326, 3338],
      "WindowCenter": [786.0, 783.0, 783.0, 783.0, 783.0, 783.0, 782.0, 782.0, 781.0, 781.0, 782.0, 782.0, 783.0, 783.0, 783.0, 783.0, 783.0, 778.0, 785.0, 777.0, 780.0, 777.0, 779.0, 780.0, 782.0, 781.0, 782.0, 783.0, 782.0, 783.0, 782.0, 781.0, 781.0, 783.0, 782.0, 783.0, 783.0, 784.0, 784.0, 783.0, 782.0, 782.0, 782.0, 775.0, 784.0, 783.0, 782.0, 782.0, 781.0, 782.0, 781.0, 781.0, 781.0, 781.0, 783.0, 784.0, 776.0, 776.0, 782.0, 780.0, 780.0, 780.0, 780.0, 780.0, 781.0, 780.0, 780.0, 774.0, 782.0, 780.0, 779.0, 776.0, 783.0, 783.0, 782.0, 782.0, 782.0, 783.0, 784.0, 784.0, 784.0, 783.0, 765.0, 787.0, 786.0, 782.0, 778.0, 784.0, 782.0, 782.0, 782.0, 782.0, 782.0, 782.0, 783.0, 784.0, 783.0, 783.0, 784.0, 785.0, 784.0, 784.0, 782.0, 782.0, 782.0, 781.0, 777.0, 780.0, 780.0, 780.0, 780.0, 779.0, 781.0, 781.0, 782.0, 782.0, 783.0, 783.0, 782.0, 782.0, 782.0, 781.0, 782.0, 768.0, 782.0, 780.0, 780.0, 780.0, 781.0, 781.0, 781.0, 781.0, 781.0, 781.0, 777.0, 783.0, 783.0, 782.0, 781.0, 780.0, 780.0, 780.0, 781.0, 782.0, 783.0, 784.0, 781.0, 779.0, 778.0, 779.0, 777.0, 778.0, 777.0, 780.0, 779.0, 781.0, 782.0, 782.0, 782.0, 782.0, 782.0, 781.0, 778.0, 784.0, 782.0, 778.0, 780.0, 783.0, 780.0, 781.0, 781.0, 782.0, 781.0, 783.0, 782.0, 782.0, 782.0, 782.0, 781.0, 780.0, 781.0, 782.0, 782.0, 781.0, 780.0, 780.0, 780.0, 780.0, 779.0, 781.0, 783.0, 784.0, 782.0, 781.0, 779.0, 778.0, 779.0, 779.0, 776.0, 778.0, 779.0, 781.0, 782.0, 778.0, 775.0, 778.0, 779.0, 779.0, 779.0, 781.0, 778.0, 784.0, 773.0, 774.0, 783.0, 773.0, 781.0, 780.0, 781.0, 782.0, 782.0, 782.0, 780.0, 783.0, 782.0, 783.0, 782.0, 781.0, 781.0, 780.0, 780.0, 780.0],
      "WindowWidth": [1705.0, 1698.0, 1695.0, 1695.0, 1695.0, 1695.0, 1694.0, 1692.0, 1691.0, 1691.0, 1692.0, 1693.0, 1695.0, 1696.0, 1696.0, 1694.0, 1696.0, 1683.0, 1701.0, 1682.0, 1688.0, 1680.0, 1687.0, 1688.0, 1695.0, 1692.0, 1694.0, 1698.0, 1693.0, 1697.0, 1694.0, 1693.0, 1691.0, 1697.0, 1695.0, 1697.0, 1697.0, 1699.0, 1699.0, 1698.0, 1695.0, 1693.0, 1695.0, 1675.0, 1699.0, 1694.0, 1694.0, 1692.0, 1691.0, 1691.0, 1689.0, 1689.0, 1689.0, 1691.0, 1696.0, 1697.0, 1678.0, 1677.0, 1693.0, 1687.0, 1687.0, 1688.0, 1688.0, 1688.0, 1690.0, 1688.0, 1689.0, 1672.0, 1693.0, 1689.0, 1684.0, 1678.0, 1695.0, 1695.0, 1694.0, 1693.0, 1693.0, 1695.0, 1698.0, 1698.0, 1700.0, 1697.0, 1650.0, 1710.0, 1704.0, 1694.0, 1684.0, 1698.0, 1693.0, 1694.0, 1693.0, 1692.0, 1693.0, 1695.0, 1696.0, 1698.0, 1697.0, 1696.0, 1699.0, 1702.0, 1699.0, 1697.0, 1693.0, 1692.0, 1692.0, 1690.0, 1679.0, 1687.0, 1688.0, 1688.0, 1687.0, 1684.0, 1689.0, 1689.0, 1691.0, 1693.0, 1696.0, 1694.0, 1693.0, 1692.0, 1692.0, 1690.0, 1693.0, 1656.0, 1692.0, 1688.0, 1688.0, 1687.0, 1689.0, 1688.0, 1689.0, 1689.0, 1688.0, 1689.0, 1679.0, 1694.0, 1693.0, 1690.0, 1688.0, 1688.0, 1686.0, 1686.0, 1689.0, 1690.0, 1695.0, 1699.0, 1688.0, 1684.0, 1682.0, 1685.0, 1678.0, 1682.0, 1679.0, 1686.0, 1685.0, 1689.0, 1691.0, 1693.0, 1692.0, 1692.0, 1693.0, 1689.0, 1682.0, 1696.0, 1692.0, 1683.0, 1687.0, 1694.0, 1686.0, 1689.0, 1689.0, 1692.0, 1691.0, 1694.0, 1693.0, 1692.0, 1691.0, 1691.0, 1689.0, 1688.0, 1690.0, 1691.0, 1690.0, 1689.0, 1687.0, 1686.0, 1687.0, 1685.0, 1685.0, 1689.0, 1693.0, 1696.0, 1692.0, 1689.0, 1683.0, 1681.0, 1682.0, 1683.0, 1675.0, 1681.0, 1683.0, 1689.0, 1691.0, 1681.0, 1674.0, 1682.0, 1686.0, 1685.0, 1684.0, 1689.0, 1682.0, 1699.0, 1668.0, 1671.0, 1695.0, 1669.0, 1691.0, 1688.0, 1690.0, 1692.0, 1691.0, 1690.0, 1686.0, 1693.0, 1692.0, 1694.0, 1692.0, 1690.0, 1687.0, 1687.0, 1685.0, 1686.0]
    },
    "slices": {}
  }
}