{
  "AcquisitionMatrixPE": 100,
  "AcquisitionNumber": 1,
  "AcquisitionTime": "14:43:37.432500",
  "BandwidthPerPixelPhaseEncode": 18.519,
  "BaseResolution": 100,
  "BodyPartExamined": "BRAIN",
  "ConsistencyInfo": "N4_VE11C_LATEST_20160120",
  "ConversionSoftware": "dcm2niix",
  "ConversionSoftwareVersion": "v1.0.20180622 GCC4.9.2",
  "DerivedVendorReportedEchoSpacing": 0.000539986,
  "DeviceSerialNumber": "166078",
  "DwellTime": 2.1e-06,
  "EchoTime": 0.034,
  "EchoTrainLength": 100,
  "EffectiveEchoSpacing": 0.000539986,
  "FlipAngle": 90,
  "ImageOrientationPatientDICOM": [0.999173, -0.000998243, -0.0406414, -0.00523173, 0.988228, -0.152896],
  "ImageType": [
    "ORIGINAL",
    "PRIMARY",
    "M",
    "ND",
    "MOSAIC"
],
  "InPlanePhaseEncodingDirectionDICOM": "COL",
  "InstitutionAddress": "Street_StreetNo_Bei_Jing_District_CN_ZIP",
  "InstitutionName": "BeiJing_Normal_University",
  "InstitutionalDepartmentName": "Department",
  "MRAcquisitionType": "2D",
  "MagneticFieldStrength": 3,
  "Manufacturer": "Siemens",
  "ManufacturersModelName": "Prisma",
  "Modality": "MR",
  "MultibandAccelerationFactor": 3,
  "PartialFourier": 1,
  "PatientPosition": "HFS",
  "PercentPhaseFOV": 100,
  "PhaseEncodingDirection": "j-",
  "PhaseEncodingSteps": 100,
  "PhaseResolution": 1,
  "PixelBandwidth": 2380,
  "ProcedureStepDescription": "BNU_P2018_64CH_Liu.Jia",
  "ProtocolName": "bold_100x100_s3_2x2x2_232",
  "PulseSequenceDetails": "%SiemensSeq%_ep2d_bold",
  "ReceiveCoilActiveElements": "HC1-7;NC1",
  "ReceiveCoilName": "HeadNeck_64",
  "ReconMatrixPE": 100,
  "RepetitionTime": 2,
  "SAR": 0.0682365,
  "ScanOptions": "FS",
  "ScanningSequence": "EP",
  "SequenceName": "_epfid2d1_100",
  "SequenceVariant": "SK",
  "SeriesDescription": "bold_100x100_s3_2x2x2_232",
  "SeriesNumber": 9,
  "ShimSetting": [-5454, -11503, -1258, 279, -18, -381, -141, 40],
  "SliceThickness": 2,
  "SliceTiming": [1.485, 0, 0.99, 0.0825, 1.0725, 0.165, 1.155, 0.2475, 1.2375, 0.33, 1.32, 0.4125, 1.4025, 0.5775, 1.5675, 0.66, 1.65, 0.7425, 1.7325, 0.825, 1.815, 0.9075, 1.8975, 0.495, 1.485, 0, 0.99, 0.0825, 1.0725, 0.165, 1.155, 0.2475, 1.2375, 0.33, 1.32, 0.4125, 1.4025, 0.5775, 1.5675, 0.66, 1.65, 0.7425, 1.7325, 0.825, 1.815, 0.9075, 1.8975, 0.495, 1.485, 0, 0.99, 0.0825, 1.0725, 0.165, 1.155, 0.2475, 1.2375, 0.33, 1.32, 0.4125, 1.4025, 0.5775, 1.5675, 0.66, 1.65, 0.7425, 1.7325, 0.825, 1.815, 0.9075, 1.8975, 0.495],
  "SoftwareVersions": "syngo_MR_E11",
  "SpacingBetweenSlices": 2,
  "StationName": "AWP166078",
  "TaskName": "motor",
  "TotalReadoutTime": 0.0534586,
  "TxRefAmp": 217.03,
  "dcmmeta_affine": [
    [-1.9983465671539307, -0.010463466867804527, -0.08063119649887085, 105.33358764648438],
    [0.001996485283598304, 1.976456880569458, -0.30596423149108887, -78.05084991455078],
    [-0.08128276467323303, 0.3057917654514313, 1.9748125076293945, -72.25251770019531],
    [0.0, 0.0, 0.0, 1.0]
],
  "dcmmeta_reorient_transform": [
    [0.0, -1.0, 0.0, 99.0],
    [1.0, 0.0, 0.0, 0.0],
    [0.0, 0.0, 1.0, 0.0],
    [0.0, 0.0, 0.0, 1.0]
],
  "dcmmeta_shape": [100, 100, 72, 232],
  "dcmmeta_slice_dim": 2,
  "dcmmeta_version": 0.6,
  "global": {
    "const": {
      "AcquisitionMatrix": [100, 0, 0, 100],
      "AngioFlag": "N",
      "BitsAllocated": 16,
      "BitsStored": 12,
      "BodyPartExamined": "BRAIN",
      "Columns": 900,
      "EchoNumbers": 1,
      "EchoTime": 34.0,
      "EchoTrainLength": 100,
      "FlipAngle": 90.0,
      "HighBit": 11,
      "ImageOrientationPatient": [0.99917329909144, -0.0009982426413, -0.0406413815508, -0.0052317332159, 0.98822845431628, -0.152895883029],
      "ImagePositionPatient": [-899.45095991288, -907.40255717616, 112.85067908246],
      "ImageType": [
        "ORIGINAL",
        "PRIMARY",
        "M",
        "ND",
        "MOSAIC"
],
      "ImagedNucleus": "1H",
      "ImagingFrequency": 123.257821,
      "InPlanePhaseEncodingDirection": "COL",
      "MRAcquisitionType": "2D",
      "MagneticFieldStrength": 3.0,
      "Manufacturer": "SIEMENS",
      "ManufacturerModelName": "Prisma",
      "Modality": "MR",
      "NumberOfAverages": 1.0,
      "NumberOfPhaseEncodingSteps": 100,
      "PercentPhaseFieldOfView": 100.0,
      "PercentSampling": 100.0,
      "PerformedProcedureStepStartTime": "135801.758000",
      "PhotometricInterpretation": "MONOCHROME2",
      "PixelBandwidth": 2380.0,
      "PixelRepresentation": 0,
      "PixelSpacing": [2.0, 2.0],
      "ProtocolName": "bold_100x100_s3_2x2x2_232",
      "RepetitionTime": 2000.0,
      "Rows": 900,
      "SAR": 0.06823652102505,
      "SamplesPerPixel": 1,
      "ScanOptions": "FS",
      "ScanningSequence": "EP",
      "SequenceName": "*epfid2d1_100",
      "SequenceVariant": "SK",
      "SeriesDescription": "bold_100x100_s3_2x2x2_232",
      "SeriesNumber": 9,
      "SeriesTime": "144339.784000",
      "SliceLocation": -63.648791715665,
      "SliceThickness": 2.0,
      "SmallestImagePixelValue": 0,
      "SoftwareVersions": "syngo MR E11",
      "SpacingBetweenSlices": 1.9999999961699,
      "SpecificCharacterSet": "ISO_IR 100",
      "StudyID": "1",
      "StudyTime": "135801.666000",
      "TransmitCoilName": "Body",
      "VariableFlipAngleFlag": "N",
      "WindowCenterWidthExplanation": "Algo1",
      "dBdt": 0.0},
    "slices": {}
  },
  "time": {
    "samples": {
      "AcquisitionNumber": [1, 2, 3, 4, 5, 6, 7, 8, 9, 10, 11, 12, 13, 14, 15, 16, 17, 18, 19, 20, 21, 22, 23, 24, 25, 26, 27, 28, 29, 30, 31, 32, 33, 34, 35, 36, 37, 38, 39, 40, 41, 42, 43, 44, 45, 46, 47, 48, 49, 50, 51, 52, 53, 54, 55, 56, 57, 58, 59, 60, 61, 62, 63, 64, 65, 66, 67, 68, 69, 70, 71, 72, 73, 74, 75, 76, 77, 78, 79, 80, 81, 82, 83, 84, 85, 86, 87, 88, 89, 90, 91, 92, 93, 94, 95, 96, 97, 98, 99, 100, 101, 102, 103, 104, 105, 106, 107, 108, 109, 110, 111, 112, 113, 114, 115, 116, 117, 118, 119, 120, 121, 122, 123, 124, 125, 126, 127, 128, 129, 130, 131, 132, 133, 134, 135, 136, 137, 138, 139, 140, 141, 142, 143, 144, 145, 146, 147, 148, 149, 150, 151, 152, 153, 154, 155, 156, 157, 158, 159, 160, 161, 162, 163, 164, 165, 166, 167, 168, 169, 170, 171, 172, 173, 174, 175, 176, 177, 178, 179, 180, 181, 182, 183, 184, 185, 186, 187, 188, 189, 190, 191, 192, 193, 194, 195, 196, 197, 198, 199, 200, 201, 202, 203, 204, 205, 206, 207, 208, 209, 210, 211, 212, 213, 214, 215, 216, 217, 218, 219, 220, 221, 222, 223, 224, 225, 226, 227, 228, 229, 230, 231, 232],
      "AcquisitionTime": ["144337.432500", "144339.432500", "144341.432500", "144343.432500", "144345.432500", "144347.432500", "144349.432500", "144351.432500", "144353.432500", "144355.432500", "144357.432500", "144359.432500", "144401.432500", "144403.432500", "144405.432500", "144407.432500", "144409.432500", "144411.432500", "144413.432500", "144415.432500", "144417.432500", "144419.432500", "144421.432500", "144423.432500", "144425.432500", "144427.432500", "144429.432500", "144431.432500", "144433.432500", "144435.432500", "144437.432500", "144439.432500", "144441.432500", "144443.432500", "144445.432500", "144447.432500", "144449.432500", "144451.432500", "144453.432500", "144455.432500", "144457.432500", "144459.432500", "144501.432500", "144503.432500", "144505.432500", "144507.432500", "144509.432500", "144511.432500", "144513.432500", "144515.432500", "144517.432500", "144519.432500", "144521.432500", "144523.432500", "144525.432500", "144527.432500", "144529.432500", "144531.432500", "144533.432500", "144535.432500", "144537.432500", "144539.432500", "144541.432500", "144543.432500", "144545.432500", "144547.432500", "144549.432500", "144551.432500", "144553.432500", "144555.432500", "144557.432500", "144559.432500", "144601.432500", "144603.432500", "144605.432500", "144607.432500", "144609.432500", "144611.432500", "144613.432500", "144615.432500", "144617.432500", "144619.432500", "144621.432500", "144623.432500", "144625.432500", "144627.432500", "144629.432500", "144631.432500", "144633.432500", "144635.432500", "144637.432500", "144639.432500", "144641.432500", "144643.432500", "144645.432500", "144647.432500", "144649.432500", "144651.432500", "144653.432500", "144655.432500", "144657.432500", "144659.432500", "144701.432500", "144703.432500", "144705.432500", "144707.432500", "144709.432500", "144711.432500", "144713.432500", "144715.432500", "144717.432500", "144719.432500", "144721.432500", "144723.432500", "144725.432500", "144727.432500", "144729.432500", "144731.432500", "144733.432500", "144735.432500", "144737.432500", "144739.432500", "144741.432500", "144743.432500", "144745.432500", "144747.432500", "144749.432500", "144751.432500", "144753.432500", "144755.432500", "144757.432500", "144759.432500", "144801.432500", "144803.432500", "144805.432500", "144807.432500", "144809.432500", "144811.432500", "144813.432500", "144815.432500", "144817.432500", "144819.432500", "144821.432500", "144823.432500", "144825.432500", "144827.432500", "144829.432500", "144831.432500", "144833.432500", "144835.432500", "144837.432500", "144839.432500", "144841.432500", "144843.432500", "144845.432500", "144847.432500", "144849.432500", "144851.432500", "144853.432500", "144855.432500", "144857.432500", "144859.432500", "144901.432500", "144903.432500", "144905.432500", "144907.432500", "144909.432500", "144911.432500", "144913.432500", "144915.432500", "144917.432500", "144919.432500", "144921.432500", "144923.432500", "144925.432500", "144927.432500", "144929.432500", "144931.432500", "144933.432500", "144935.432500", "144937.432500", "144939.432500", "144941.432500", "144943.432500", "144945.432500", "144947.432500", "144949.432500", "144951.432500", "144953.432500", "144955.432500", "144957.432500", "144959.432500", "145001.432500", "145003.432500", "145005.432500", "145007.432500", "145009.432500", "145011.432500", "145013.432500", "145015.432500", "145017.432500", "145019.432500", "145021.432500", "145023.432500", "145025.432500", "145027.432500", "145029.432500", "145031.432500", "145033.432500", "145035.432500", "145037.432500", "145039.432500", "145041.432500", "145043.432500", "145045.432500", "145047.432500", "145049.432500", "145051.432500", "145053.432500", "145055.432500", "145057.432500", "145059.432500", "145101.432500", "145103.432500", "145105.432500", "145107.432500", "145109.432500", "145111.432500", "145113.432500", "145115.432500", "145117.432500", "145119.432500"],
      "ContentTime": ["144339.787000", "144341.282000", "144343.281000", "144345.281000", "144347.281000", "144349.281000", "144351.281000", "144353.781000", "144355.283000", "144357.283000", "144359.282000", "144401.281000", "144403.282000", "144405.282000", "144407.281000", "144409.282000", "144411.282000", "144413.282000", "144415.282000", "144417.282000", "144419.281000", "144421.281000", "144423.281000", "144425.281000", "144427.281000", "144429.282000", "144431.282000", "144433.282000", "144435.281000", "144437.281000", "144439.281000", "144441.282000", "144443.281000", "144445.281000", "144447.282000", "144449.282000", "144451.283000", "144453.281000", "144455.281000", "144457.281000", "144459.281000", "144501.281000", "144503.281000", "144505.282000", "144507.282000", "144509.282000", "144511.281000", "144513.281000", "144515.281000", "144517.781000", "144519.281000", "144521.281000", "144523.282000", "144525.282000", "144527.282000", "144529.281000", "144531.281000", "144533.281000", "144535.281000", "144537.281000", "144539.282000", "144541.282000", "144543.282000", "144545.281000", "144547.281000", "144549.281000", "144551.281000", "144553.281000", "144555.281000", "144557.283000", "144559.283000", "144601.282000", "144603.282000", "144605.281000", "144607.281000", "144609.281000", "144611.281000", "144613.281000", "144615.283000", "144617.282000", "144619.282000", "144621.281000", "144623.281000", "144625.281000", "144627.281000", "144629.281000", "144631.281000", "144633.282000", "144635.282000", "144637.283000", "144639.281000", "144641.281000", "144643.282000", "144645.281000", "144647.281000", "144649.282000", "144651.282000", "144653.282000", "144655.282000", "144657.281000", "144659.281000", "144701.281000", "144703.281000", "144705.281000", "144707.282000", "144709.282000", "144711.282000", "144713.281000", "144715.282000", "144717.282000", "144719.281000", "144721.781000", "144723.281000", "144725.282000", "144727.282000", "144729.282000", "144731.281000", "144733.281000", "144735.282000", "144737.281000", "144739.281000", "144741.281000", "144743.282000", "144745.282000", "144747.782000", "144749.782000", "144751.281000", "144753.282000", "144755.281000", "144757.281000", "144759.282000", "144801.282000", "144803.282000", "144805.281000", "144807.281000", "144809.282000", "144811.281000", "144813.281000", "144815.281000", "144817.282000", "144819.283000", "144821.283000", "144823.281000", "144825.282000", "144827.281000", "144829.281000", "144831.281000", "144833.281000", "144835.282000", "144837.283000", "144839.282000", "144841.281000", "144843.281000", "144845.281000", "144847.281000", "144849.281000", "144851.281000", "144853.283000", "144855.282000", "144857.282000", "144859.281000", "144901.282000", "144903.281000", "144905.782000", "144907.282000", "144909.282000", "144911.282000", "144913.282000", "144915.282000", "144917.282000", "144919.281000", "144921.781000", "144923.281000", "144925.281000", "144927.282000", "144929.282000", "144931.282000", "144933.281000", "144935.281000", "144937.281000", "144939.281000", "144941.281000", "144943.281000", "144945.282000", "144947.282000", "144949.282000", "144951.281000", "144953.281000", "144955.281000", "144957.281000", "144959.281000", "145001.281000", "145003.282000", "145005.282000", "145007.281000", "145009.281000", "145011.781000", "145013.281000", "145015.281000", "145017.281000", "145019.283000", "145021.282000", "145023.282000", "145025.281000", "145027.281000", "145029.281000", "145031.281000", "145033.281000", "145035.281000", "145037.283000", "145039.283000", "145041.282000", "145043.281000", "145045.281000", "145047.282000", "145049.281000", "145051.281000", "145053.281000", "145055.282000", "145057.282000", "145059.282000", "145101.282000", "145103.281000", "145105.281000", "145107.281000", "145109.282000", "145111.282000", "145113.282000", "145115.282000", "145117.281000", "145119.282000", "145121.189000"],
      "InstanceCreationTime": ["144339.787000", "144341.282000", "144343.281000", "144345.281000", "144347.281000", "144349.281000", "144351.281000", "144353.781000", "144355.283000", "144357.283000", "144359.282000", "144401.281000", "144403.282000", "144405.282000", "144407.281000", "144409.282000", "144411.282000", "144413.282000", "144415.282000", "144417.282000", "144419.281000", "144421.281000", "144423.281000", "144425.281000", "144427.281000", "144429.282000", "144431.282000", "144433.282000", "144435.281000", "144437.281000", "144439.281000", "144441.282000", "144443.281000", "144445.281000", "144447.282000", "144449.282000", "144451.283000", "144453.281000", "144455.281000", "144457.281000", "144459.281000", "144501.281000", "144503.281000", "144505.282000", "144507.282000", "144509.282000", "144511.281000", "144513.281000", "144515.281000", "144517.781000", "144519.281000", "144521.281000", "144523.282000", "144525.282000", "144527.282000", "144529.281000", "144531.281000", "144533.281000", "144535.281000", "144537.281000", "144539.282000", "144541.282000", "144543.282000", "144545.281000", "144547.281000", "144549.281000", "144551.281000", "144553.281000", "144555.281000", "144557.283000", "144559.283000", "144601.282000", "144603.282000", "144605.281000", "144607.281000", "144609.281000", "144611.281000", "144613.281000", "144615.283000", "144617.282000", "144619.282000", "144621.281000", "144623.281000", "144625.281000", "144627.281000", "144629.281000", "144631.281000", "144633.282000", "144635.282000", "144637.283000", "144639.281000", "144641.281000", "144643.282000", "144645.281000", "144647.281000", "144649.282000", "144651.282000", "144653.282000", "144655.282000", "144657.281000", "144659.281000", "144701.281000", "144703.281000", "144705.281000", "144707.282000", "144709.282000", "144711.282000", "144713.281000", "144715.282000", "144717.282000", "144719.281000", "144721.781000", "144723.281000", "144725.282000", "144727.282000", "144729.282000", "144731.281000", "144733.281000", "144735.282000", "144737.281000", "144739.281000", "144741.281000", "144743.282000", "144745.282000", "144747.782000", "144749.782000", "144751.281000", "144753.282000", "144755.281000", "144757.281000", "144759.282000", "144801.282000", "144803.282000", "144805.281000", "144807.281000", "144809.282000", "144811.281000", "144813.281000", "144815.281000", "144817.282000", "144819.283000", "144821.283000", "144823.281000", "144825.282000", "144827.281000", "144829.281000", "144831.281000", "144833.281000", "144835.282000", "144837.283000", "144839.282000", "144841.281000", "144843.281000", "144845.281000", "144847.281000", "144849.281000", "144851.281000", "144853.283000", "144855.282000", "144857.282000", "144859.281000", "144901.282000", "144903.281000", "144905.782000", "144907.282000", "144909.282000", "144911.282000", "144913.282000", "144915.282000", "144917.282000", "144919.281000", "144921.781000", "144923.281000", "144925.281000", "144927.282000", "144929.282000", "144931.282000", "144933.281000", "144935.281000", "144937.281000", "144939.281000", "144941.281000", "144943.281000", "144945.282000", "144947.282000", "144949.282000", "144951.281000", "144953.281000", "144955.281000", "144957.281000", "144959.281000", "145001.281000", "145003.282000", "145005.282000", "145007.281000", "145009.281000", "145011.781000", "145013.281000", "145015.281000", "145017.281000", "145019.283000", "145021.282000", "145023.282000", "145025.281000", "145027.281000", "145029.281000", "145031.281000", "145033.281000", "145035.281000", "145037.283000", "145039.283000", "145041.282000", "145043.281000", "145045.281000", "145047.282000", "145049.281000", "145051.281000", "145053.281000", "145055.282000", "145057.282000", "145059.282000", "145101.282000", "145103.281000", "145105.281000", "145107.281000", "145109.282000", "145111.282000", "145113.282000", "145115.282000", "145117.281000", "145119.282000", "145121.189000"],
      "InstanceNumber": [1, 2, 3, 4, 5, 6, 7, 8, 9, 10, 11, 12, 13, 14, 15, 16, 17, 18, 19, 20, 21, 22, 23, 24, 25, 26, 27, 28, 29, 30, 31, 32, 33, 34, 35, 36, 37, 38, 39, 40, 41, 42, 43, 44, 45, 46, 47, 48, 49, 50, 51, 52, 53, 54, 55, 56, 57, 58, 59, 60, 61, 62, 63, 64, 65, 66, 67, 68, 69, 70, 71, 72, 73, 74, 75, 76, 77, 78, 79, 80, 81, 82, 83, 84, 85, 86, 87, 88, 89, 90, 91, 92, 93, 94, 95, 96, 97, 98, 99, 100, 101, 102, 103, 104, 105, 106, 107, 108, 109, 110, 111, 112, 113, 114, 115, 116, 117, 118, 119, 120, 121, 122, 123, 124, 125, 126, 127, 128, 129, 130, 131, 132, 133, 134, 135, 136, 137, 138, 139, 140, 141, 142, 143, 144, 145, 146, 147, 148, 149, 150, 151, 152, 153, 154, 155, 156, 157, 158, 159, 160, 161, 162, 163, 164, 165, 166, 167, 168, 169, 170, 171, 172, 173, 174, 175, 176, 177, 178, 179, 180, 181, 182, 183, 184, 185, 186, 187, 188, 189, 190, 191, 192, 193, 194, 195, 196, 197, 198, 199, 200, 201, 202, 203, 204, 205, 206, 207, 208, 209, 210, 211, 212, 213, 214, 215, 216, 217, 218, 219, 220, 221, 222, 223, 224, 225, 226, 227, 228, 229, 230, 231, 232],
      "LargestImagePixelValue": [3344, 3249, 3201, 3180, 3188, 3195, 3180, 3210, 3177, 3176, 3190, 3179, 3178, 3137, 3151, 3153, 3148, 3097, 3237, 3257, 3139, 3142, 3153, 3167, 3098, 3184, 3181, 3128, 3115, 3132, 3155, 3172, 3173, 3188, 3151, 3171, 3179, 3115, 3096, 3149, 3158, 3175, 3170, 3188, 3158, 3174, 3175, 3170, 3146, 3325, 3416, 3392, 3291, 3229, 3242, 3341, 3366, 3333, 3288, 3270, 3310, 3205, 3189, 3206, 3205, 3224, 3231, 3231, 3212, 3212, 3209, 3202, 3196, 3217, 3201, 3149, 3182, 3181, 3190, 3201, 3185, 3205, 3248, 3237, 3213, 3217, 3211, 3204, 3234, 3235, 3358, 3267, 3248, 3125, 3156, 3409, 3196, 3683, 3437, 3314, 3446, 3239, 3611, 3221, 3198, 3211, 3223, 3221, 3215, 3225, 3230, 3199, 3204, 3219, 3217, 3192, 3217, 3225, 3193, 3201, 3177, 3207, 3212, 3207, 3228, 3208, 3220, 3226, 3217, 3446, 3154, 3173, 3246, 3193, 3403, 3147, 3236, 3155, 3343, 3371, 3416, 3437, 3478, 3466, 3292, 3225, 3211, 3241, 3229, 3238, 3195, 3351, 3269, 3305, 3249, 3199, 3233, 3226, 3262, 3186, 3265, 3148, 3187, 3139, 3186, 3163, 3190, 3134, 3136, 3132, 3175, 3183, 3199, 3167, 3207, 3159, 3164, 3244, 3237, 3219, 3190, 3151, 3381, 3205, 3220, 3173, 3191, 3226, 3199, 3199, 3236, 3176, 3205, 3176, 3234, 3225, 3214, 3252, 3196, 3160, 3142, 3169, 3143, 3236, 3246, 3235, 3263, 3114, 3229, 3185, 3225, 3258, 3388, 3259, 3259, 3189, 3234, 3204, 3181, 3253, 3231, 3260, 3270, 3165, 3132, 3144, 3178, 3165, 3153, 3156, 3178, 3159],
      "WindowCenter": [780.0, 777.0, 775.0, 774.0, 774.0, 775.0, 774.0, 775.0, 775.0, 775.0, 776.0, 777.0, 776.0, 776.0, 775.0, 773.0, 771.0, 772.0, 773.0, 773.0, 771.0, 773.0, 774.0, 774.0, 773.0, 774.0, 774.0, 773.0, 774.0, 775.0, 776.0, 777.0, 777.0, 777.0, 775.0, 775.0, 774.0, 772.0, 771.0, 773.0, 773.0, 773.0, 774.0, 774.0, 773.0, 774.0, 775.0, 775.0, 775.0, 764.0, 772.0, 775.0, 773.0, 768.0, 775.0, 777.0, 774.0, 776.0, 776.0, 778.0, 777.0, 777.0, 776.0, 776.0, 775.0, 774.0, 773.0, 773.0, 774.0, 774.0, 774.0, 774.0, 773.0, 774.0, 774.0, 774.0, 773.0, 773.0, 773.0, 773.0, 773.0, 774.0, 776.0, 777.0, 776.0, 775.0, 775.0, 775.0, 774.0, 774.0, 775.0, 776.0, 771.0, 768.0, 771.0, 775.0, 773.0, 780.0, 774.0, 774.0, 778.0, 772.0, 781.0, 775.0, 776.0, 775.0, 775.0, 777.0, 778.0, 779.0, 777.0, 775.0, 773.0, 773.0, 774.0, 774.0, 774.0, 774.0, 774.0, 774.0, 775.0, 775.0, 775.0, 775.0, 774.0, 775.0, 776.0, 777.0, 775.0, 771.0, 771.0, 775.0, 776.0, 775.0, 775.0, 771.0, 775.0, 771.0, 779.0, 780.0, 781.0, 780.0, 780.0, 781.0, 778.0, 776.0, 777.0, 777.0, 777.0, 778.0, 777.0, 778.0, 777.0, 776.0, 775.0, 774.0, 775.0, 775.0, 774.0, 772.0, 776.0, 775.0, 773.0, 772.0, 772.0, 772.0, 773.0, 772.0, 773.0, 773.0, 773.0, 774.0, 774.0, 773.0, 772.0, 772.0, 773.0, 776.0, 771.0, 774.0, 774.0, 773.0, 776.0, 776.0, 776.0, 776.0, 777.0, 777.0, 777.0, 776.0, 776.0, 776.0, 776.0, 775.0, 777.0, 777.0, 776.0, 776.0, 776.0, 774.0, 774.0, 773.0, 773.0, 774.0, 776.0, 775.0, 775.0, 774.0, 776.0, 774.0, 772.0, 775.0, 778.0, 775.0, 775.0, 776.0, 776.0, 776.0, 775.0, 777.0, 777.0, 777.0, 776.0, 775.0, 775.0, 775.0, 775.0, 775.0, 775.0, 775.0, 775.0, 775.0],
      "WindowWidth": [1686.0, 1677.0, 1671.0, 1670.0, 1670.0, 1670.0, 1670.0, 1671.0, 1670.0, 1671.0, 1674.0, 1676.0, 1674.0, 1673.0, 1670.0, 1665.0, 1660.0, 1662.0, 1665.0, 1665.0, 1660.0, 1666.0, 1668.0, 1669.0, 1665.0, 1669.0, 1667.0, 1667.0, 1669.0, 1671.0, 1673.0, 1678.0, 1677.0, 1675.0, 1672.0, 1671.0, 1667.0, 1662.0, 1661.0, 1665.0, 1665.0, 1666.0, 1667.0, 1667.0, 1666.0, 1668.0, 1670.0, 1669.0, 1669.0, 1644.0, 1666.0, 1675.0, 1667.0, 1657.0, 1673.0, 1675.0, 1669.0, 1672.0, 1675.0, 1678.0, 1676.0, 1676.0, 1674.0, 1673.0, 1670.0, 1668.0, 1666.0, 1665.0, 1668.0, 1668.0, 1669.0, 1667.0, 1666.0, 1668.0, 1669.0, 1667.0, 1666.0, 1666.0, 1666.0, 1666.0, 1667.0, 1669.0, 1673.0, 1677.0, 1674.0, 1670.0, 1670.0, 1670.0, 1668.0, 1669.0, 1672.0, 1673.0, 1661.0, 1652.0, 1660.0, 1671.0, 1665.0, 1685.0, 1670.0, 1669.0, 1679.0, 1664.0, 1687.0, 1672.0, 1672.0, 1671.0, 1672.0, 1676.0, 1678.0, 1682.0, 1677.0, 1671.0, 1666.0, 1666.0, 1667.0, 1666.0, 1667.0, 1668.0, 1666.0, 1667.0, 1669.0, 1669.0, 1670.0, 1669.0, 1668.0, 1669.0, 1674.0, 1676.0, 1671.0, 1660.0, 1660.0, 1669.0, 1672.0, 1670.0, 1669.0, 1659.0, 1671.0, 1662.0, 1683.0, 1683.0, 1686.0, 1685.0, 1685.0, 1686.0, 1679.0, 1673.0, 1676.0, 1675.0, 1676.0, 1678.0, 1676.0, 1679.0, 1675.0, 1674.0, 1671.0, 1669.0, 1670.0, 1671.0, 1668.0, 1661.0, 1672.0, 1669.0, 1666.0, 1663.0, 1663.0, 1663.0, 1665.0, 1663.0, 1665.0, 1664.0, 1665.0, 1667.0, 1667.0, 1665.0, 1663.0, 1663.0, 1664.0, 1673.0, 1660.0, 1668.0, 1669.0, 1665.0, 1674.0, 1672.0, 1673.0, 1673.0, 1676.0, 1677.0, 1675.0, 1674.0, 1674.0, 1672.0, 1672.0, 1672.0, 1676.0, 1677.0, 1674.0, 1673.0, 1672.0, 1668.0, 1667.0, 1666.0, 1664.0, 1668.0, 1671.0, 1671.0, 1670.0, 1667.0, 1672.0, 1669.0, 1663.0, 1670.0, 1678.0, 1671.0, 1671.0, 1672.0, 1673.0, 1673.0, 1670.0, 1675.0, 1675.0, 1675.0, 1674.0, 1671.0, 1670.0, 1669.0, 1671.0, 1670.0, 1670.0, 1670.0, 1670.0, 1669.0]
    },
    "slices": {}
  }
}