{
  "AcquisitionMatrixPE": 100,
  "AcquisitionNumber": 1,
  "AcquisitionTime": "11:35:24.607500",
  "BandwidthPerPixelPhaseEncode": 18.519,
  "BaseResolution": 100,
  "BodyPartExamined": "BRAIN",
  "ConsistencyInfo": "N4_VE11C_LATEST_20160120",
  "ConversionSoftware": "dcm2niix",
  "ConversionSoftwareVersion": "v1.0.20180622 GCC4.9.2",
  "DerivedVendorReportedEchoSpacing": 0.000539986,
  "DeviceSerialNumber": "166078",
  "DwellTime": 2.1e-06,
  "EchoTime": 0.034,
  "EchoTrainLength": 100,
  "EffectiveEchoSpacing": 0.000539986,
  "FlipAngle": 90,
  "ImageOrientationPatientDICOM": [1, 0, 0, 0, 0.977416, -0.211325],
  "ImageType": [
    "ORIGINAL",
    "PRIMARY",
    "M",
    "ND",
    "MOSAIC"
],
  "InPlanePhaseEncodingDirectionDICOM": "COL",
  "InstitutionAddress": "Street_StreetNo_Bei_Jing_District_CN_ZIP",
  "InstitutionName": "BeiJing_Normal_University",
  "InstitutionalDepartmentName": "Department",
  "MRAcquisitionType": "2D",
  "MagneticFieldStrength": 3,
  "Manufacturer": "Siemens",
  "ManufacturersModelName": "Prisma",
  "Modality": "MR",
  "MultibandAccelerationFactor": 3,
  "PartialFourier": 1,
  "PatientPosition": "HFS",
  "PercentPhaseFOV": 100,
  "PhaseEncodingDirection": "j-",
  "PhaseEncodingSteps": 100,
  "PhaseResolution": 1,
  "PixelBandwidth": 2380,
  "ProcedureStepDescription": "BNU_P2018_64CH_Liu.Jia",
  "ProtocolName": "bold_100x100_s3_2x2x2_232",
  "PulseSequenceDetails": "%SiemensSeq%_ep2d_bold",
  "ReceiveCoilActiveElements": "HC1-7;NC1",
  "ReceiveCoilName": "HeadNeck_64",
  "ReconMatrixPE": 100,
  "RepetitionTime": 2,
  "SAR": 0.0552517,
  "ScanOptions": "FS",
  "ScanningSequence": "EP",
  "SequenceName": "_epfid2d1_100",
  "SequenceVariant": "SK",
  "SeriesDescription": "bold_100x100_s3_2x2x2_232",
  "SeriesNumber": 3,
  "ShimSetting": [-5451, -11525, -1283, 498, -3, -270, -35, -10],
  "SliceThickness": 2,
  "SliceTiming": [1.485, 0, 0.99, 0.0825, 1.0725, 0.165, 1.155, 0.2475, 1.2375, 0.33, 1.32, 0.4125, 1.4025, 0.5775, 1.5675, 0.66, 1.65, 0.7425, 1.7325, 0.825, 1.815, 0.9075, 1.8975, 0.495, 1.485, 0, 0.99, 0.0825, 1.0725, 0.165, 1.155, 0.2475, 1.2375, 0.33, 1.32, 0.4125, 1.4025, 0.5775, 1.5675, 0.66, 1.65, 0.7425, 1.7325, 0.825, 1.815, 0.9075, 1.8975, 0.495, 1.485, 0, 0.99, 0.0825, 1.0725, 0.165, 1.155, 0.2475, 1.2375, 0.33, 1.32, 0.4125, 1.4025, 0.5775, 1.5675, 0.66, 1.65, 0.7425, 1.7325, 0.825, 1.815, 0.9075, 1.8975, 0.495],
  "SoftwareVersions": "syngo_MR_E11",
  "SpacingBetweenSlices": 2,
  "StationName": "AWP166078",
  "TaskName": "motor",
  "TotalReadoutTime": 0.0534586,
  "TxRefAmp": 212.816,
  "dcmmeta_affine": [
    [-2.0, 0.0, 0.0, 101.34939575195312],
    [0.0, 1.954831838607788, -0.4226495921611786, -78.18510437011719],
    [0.0, 0.4226495623588562, 1.954831838607788, -90.72322845458984],
    [0.0, 0.0, 0.0, 1.0]
],
  "dcmmeta_reorient_transform": [
    [0.0, -1.0, 0.0, 99.0],
    [1.0, 0.0, 0.0, 0.0],
    [0.0, 0.0, 1.0, 0.0],
    [0.0, 0.0, 0.0, 1.0]
],
  "dcmmeta_shape": [100, 100, 72, 232],
  "dcmmeta_slice_dim": 2,
  "dcmmeta_version": 0.6,
  "global": {
    "const": {
      "AcquisitionMatrix": [100, 0, 0, 100],
      "AngioFlag": "N",
      "BitsAllocated": 16,
      "BitsStored": 12,
      "BodyPartExamined": "BRAIN",
      "Columns": 900,
      "EchoNumbers": 1,
      "EchoTime": 34.0,
      "EchoTrainLength": 100,
      "FlipAngle": 90.0,
      "HighBit": 11,
      "ImageOrientationPatient": [1.0, 0.0, 0.0, 0.0, 0.97741589648343, -0.2113247862923],
      "ImagePositionPatient": [-901.34939754009, -897.27595707312, 120.17891044627],
      "ImageType": [
        "ORIGINAL",
        "PRIMARY",
        "M",
        "ND",
        "MOSAIC"
],
      "ImagedNucleus": "1H",
      "ImagingFrequency": 123.25779,
      "InPlanePhaseEncodingDirection": "COL",
      "MRAcquisitionType": "2D",
      "MagneticFieldStrength": 3.0,
      "Manufacturer": "SIEMENS",
      "ManufacturerModelName": "Prisma",
      "Modality": "MR",
      "NumberOfAverages": 1.0,
      "NumberOfPhaseEncodingSteps": 100,
      "PercentPhaseFieldOfView": 100.0,
      "PercentSampling": 100.0,
      "PerformedProcedureStepStartTime": "113230.891000",
      "PhotometricInterpretation": "MONOCHROME2",
      "PixelBandwidth": 2380.0,
      "PixelRepresentation": 0,
      "PixelSpacing": [2.0, 2.0],
      "ProtocolName": "bold_100x100_s3_2x2x2_232",
      "RepetitionTime": 2000.0,
      "Rows": 900,
      "SAR": 0.05525168080893,
      "SamplesPerPixel": 1,
      "ScanOptions": "FS",
      "ScanningSequence": "EP",
      "SequenceName": "*epfid2d1_100",
      "SequenceVariant": "SK",
      "SeriesDescription": "bold_100x100_s3_2x2x2_232",
      "SeriesNumber": 3,
      "SeriesTime": "113526.895000",
      "SliceLocation": -72.151872381451,
      "SliceThickness": 2.0,
      "SmallestImagePixelValue": 0,
      "SoftwareVersions": "syngo MR E11",
      "SpacingBetweenSlices": 2.000000043957,
      "SpecificCharacterSet": "ISO_IR 100",
      "StudyID": "1",
      "StudyTime": "113230.841000",
      "TransmitCoilName": "Body",
      "VariableFlipAngleFlag": "N",
      "WindowCenterWidthExplanation": "Algo1",
      "dBdt": 0.0},
    "slices": {}
  },
  "time": {
    "samples": {
      "AcquisitionNumber": [1, 2, 3, 4, 5, 6, 7, 8, 9, 10, 11, 12, 13, 14, 15, 16, 17, 18, 19, 20, 21, 22, 23, 24, 25, 26, 27, 28, 29, 30, 31, 32, 33, 34, 35, 36, 37, 38, 39, 40, 41, 42, 43, 44, 45, 46, 47, 48, 49, 50, 51, 52, 53, 54, 55, 56, 57, 58, 59, 60, 61, 62, 63, 64, 65, 66, 67, 68, 69, 70, 71, 72, 73, 74, 75, 76, 77, 78, 79, 80, 81, 82, 83, 84, 85, 86, 87, 88, 89, 90, 91, 92, 93, 94, 95, 96, 97, 98, 99, 100, 101, 102, 103, 104, 105, 106, 107, 108, 109, 110, 111, 112, 113, 114, 115, 116, 117, 118, 119, 120, 121, 122, 123, 124, 125, 126, 127, 128, 129, 130, 131, 132, 133, 134, 135, 136, 137, 138, 139, 140, 141, 142, 143, 144, 145, 146, 147, 148, 149, 150, 151, 152, 153, 154, 155, 156, 157, 158, 159, 160, 161, 162, 163, 164, 165, 166, 167, 168, 169, 170, 171, 172, 173, 174, 175, 176, 177, 178, 179, 180, 181, 182, 183, 184, 185, 186, 187, 188, 189, 190, 191, 192, 193, 194, 195, 196, 197, 198, 199, 200, 201, 202, 203, 204, 205, 206, 207, 208, 209, 210, 211, 212, 213, 214, 215, 216, 217, 218, 219, 220, 221, 222, 223, 224, 225, 226, 227, 228, 229, 230, 231, 232],
      "AcquisitionTime": ["113524.607500", "113526.607500", "113528.607500", "113530.607500", "113532.607500", "113534.607500", "113536.607500", "113538.607500", "113540.607500", "113542.607500", "113544.607500", "113546.607500", "113548.607500", "113550.607500", "113552.607500", "113554.607500", "113556.607500", "113558.607500", "113600.607500", "113602.607500", "113604.607500", "113606.607500", "113608.607500", "113610.607500", "113612.607500", "113614.607500", "113616.607500", "113618.607500", "113620.607500", "113622.607500", "113624.607500", "113626.607500", "113628.607500", "113630.607500", "113632.607500", "113634.607500", "113636.607500", "113638.607500", "113640.607500", "113642.607500", "113644.607500", "113646.607500", "113648.607500", "113650.607500", "113652.607500", "113654.607500", "113656.607500", "113658.607500", "113700.607500", "113702.607500", "113704.607500", "113706.607500", "113708.607500", "113710.607500", "113712.607500", "113714.607500", "113716.607500", "113718.607500", "113720.607500", "113722.607500", "113724.607500", "113726.607500", "113728.607500", "113730.607500", "113732.607500", "113734.607500", "113736.607500", "113738.607500", "113740.607500", "113742.607500", "113744.607500", "113746.607500", "113748.607500", "113750.607500", "113752.607500", "113754.607500", "113756.607500", "113758.607500", "113800.607500", "113802.607500", "113804.607500", "113806.607500", "113808.607500", "113810.607500", "113812.607500", "113814.607500", "113816.607500", "113818.607500", "113820.607500", "113822.607500", "113824.607500", "113826.607500", "113828.607500", "113830.607500", "113832.607500", "113834.607500", "113836.607500", "113838.607500", "113840.607500", "113842.607500", "113844.607500", "113846.607500", "113848.607500", "113850.607500", "113852.607500", "113854.607500", "113856.607500", "113858.607500", "113900.607500", "113902.607500", "113904.607500", "113906.607500", "113908.607500", "113910.607500", "113912.607500", "113914.607500", "113916.607500", "113918.607500", "113920.607500", "113922.607500", "113924.607500", "113926.607500", "113928.607500", "113930.607500", "113932.607500", "113934.607500", "113936.607500", "113938.607500", "113940.607500", "113942.607500", "113944.607500", "113946.607500", "113948.607500", "113950.607500", "113952.607500", "113954.607500", "113956.607500", "113958.607500", "114000.607500", "114002.607500", "114004.607500", "114006.607500", "114008.607500", "114010.607500", "114012.607500", "114014.607500", "114016.607500", "114018.607500", "114020.607500", "114022.607500", "114024.607500", "114026.607500", "114028.607500", "114030.607500", "114032.607500", "114034.607500", "114036.607500", "114038.607500", "114040.607500", "114042.607500", "114044.607500", "114046.607500", "114048.607500", "114050.607500", "114052.607500", "114054.607500", "114056.607500", "114058.607500", "114100.607500", "114102.607500", "114104.607500", "114106.607500", "114108.607500", "114110.607500", "114112.607500", "114114.607500", "114116.607500", "114118.607500", "114120.607500", "114122.607500", "114124.607500", "114126.607500", "114128.607500", "114130.607500", "114132.607500", "114134.607500", "114136.607500", "114138.607500", "114140.607500", "114142.607500", "114144.607500", "114146.607500", "114148.607500", "114150.607500", "114152.607500", "114154.607500", "114156.607500", "114158.607500", "114200.607500", "114202.607500", "114204.607500", "114206.607500", "114208.607500", "114210.607500", "114212.607500", "114214.607500", "114216.607500", "114218.607500", "114220.607500", "114222.607500", "114224.607500", "114226.607500", "114228.607500", "114230.607500", "114232.607500", "114234.607500", "114236.607500", "114238.607500", "114240.607500", "114242.607500", "114244.607500", "114246.607500", "114248.607500", "114250.607500", "114252.607500", "114254.607500", "114256.607500", "114258.607500", "114300.607500", "114302.607500", "114304.607500", "114306.607500"],
      "ContentTime": ["113526.898000", "113528.394000", "113530.394000", "113532.395000", "113534.394000", "113536.395000", "113538.395000", "113540.395000", "113542.394000", "113544.394000", "113546.394000", "113548.394000", "113550.394000", "113552.394000", "113554.394000", "113556.394000", "113558.395000", "113600.394000", "113602.394000", "113604.394000", "113606.395000", "113608.395000", "113610.395000", "113612.395000", "113614.395000", "113616.395000", "113618.395000", "113620.394000", "113622.395000", "113624.394000", "113626.394000", "113628.394000", "113630.395000", "113632.396000", "113634.394000", "113636.394000", "113638.394000", "113640.394000", "113642.394000", "113644.394000", "113646.394000", "113648.394000", "113650.394000", "113652.394000", "113654.394000", "113656.395000", "113658.394000", "113700.394000", "113702.395000", "113704.394000", "113706.394000", "113708.394000", "113710.394000", "113712.394000", "113714.394000", "113716.395000", "113718.394000", "113720.394000", "113722.394000", "113724.394000", "113726.394000", "113728.394000", "113730.394000", "113732.394000", "113734.394000", "113736.394000", "113738.394000", "113740.394000", "113742.395000", "113744.395000", "113746.394000", "113748.394000", "113750.394000", "113752.395000", "113754.394000", "113756.394000", "113758.394000", "113800.394000", "113802.394000", "113804.395000", "113806.394000", "113808.394000", "113810.394000", "113812.394000", "113814.394000", "113816.395000", "113818.395000", "113820.394000", "113822.395000", "113824.395000", "113826.394000", "113828.395000", "113830.395000", "113832.394000", "113834.394000", "113836.395000", "113838.394000", "113840.394000", "113842.394000", "113844.395000", "113846.394000", "113848.394000", "113850.394000", "113852.395000", "113854.395000", "113856.394000", "113858.394000", "113900.395000", "113902.395000", "113904.394000", "113906.394000", "113908.394000", "113910.394000", "113912.394000", "113914.394000", "113916.395000", "113918.394000", "113920.394000", "113922.394000", "113924.394000", "113926.394000", "113928.394000", "113930.394000", "113932.394000", "113934.394000", "113936.394000", "113938.395000", "113940.394000", "113942.395000", "113944.394000", "113946.394000", "113948.395000", "113950.395000", "113952.395000", "113954.394000", "113956.394000", "113958.394000", "114000.394000", "114002.396000", "114004.394000", "114006.394000", "114008.395000", "114010.394000", "114012.414000", "114014.394000", "114016.394000", "114018.394000", "114020.394000", "114022.394000", "114024.394000", "114026.394000", "114028.395000", "114030.394000", "114032.395000", "114034.395000", "114036.394000", "114038.395000", "114040.394000", "114042.394000", "114044.394000", "114046.395000", "114048.394000", "114050.394000", "114052.394000", "114054.394000", "114056.394000", "114058.395000", "114100.394000", "114102.394000", "114104.394000", "114106.395000", "114108.394000", "114110.394000", "114112.395000", "114114.395000", "114116.395000", "114118.395000", "114120.394000", "114122.394000", "114124.394000", "114126.395000", "114128.394000", "114130.394000", "114132.394000", "114134.395000", "114136.394000", "114138.394000", "114140.395000", "114142.394000", "114144.395000", "114146.394000", "114148.394000", "114150.395000", "114152.394000", "114154.394000", "114156.394000", "114158.394000", "114200.394000", "114202.394000", "114204.395000", "114206.394000", "114208.395000", "114210.395000", "114212.394000", "114214.394000", "114216.394000", "114218.395000", "114220.394000", "114222.395000", "114224.394000", "114226.394000", "114228.394000", "114230.395000", "114232.395000", "114234.394000", "114236.394000", "114238.394000", "114240.394000", "114242.394000", "114244.394000", "114246.395000", "114248.394000", "114250.394000", "114252.394000", "114254.394000", "114256.395000", "114258.395000", "114300.394000", "114302.394000", "114304.395000", "114306.394000", "114308.018000"],
      "InstanceCreationTime": ["113526.898000", "113528.394000", "113530.394000", "113532.395000", "113534.394000", "113536.395000", "113538.395000", "113540.395000", "113542.394000", "113544.394000", "113546.394000", "113548.394000", "113550.394000", "113552.394000", "113554.394000", "113556.394000", "113558.395000", "113600.394000", "113602.394000", "113604.394000", "113606.395000", "113608.395000", "113610.395000", "113612.395000", "113614.395000", "113616.395000", "113618.395000", "113620.394000", "113622.395000", "113624.394000", "113626.394000", "113628.394000", "113630.395000", "113632.396000", "113634.394000", "113636.394000", "113638.394000", "113640.394000", "113642.394000", "113644.394000", "113646.394000", "113648.394000", "113650.394000", "113652.394000", "113654.394000", "113656.395000", "113658.394000", "113700.394000", "113702.395000", "113704.394000", "113706.394000", "113708.394000", "113710.394000", "113712.394000", "113714.394000", "113716.395000", "113718.394000", "113720.394000", "113722.394000", "113724.394000", "113726.394000", "113728.394000", "113730.394000", "113732.394000", "113734.394000", "113736.394000", "113738.394000", "113740.394000", "113742.395000", "113744.395000", "113746.394000", "113748.394000", "113750.394000", "113752.395000", "113754.394000", "113756.394000", "113758.394000", "113800.394000", "113802.394000", "113804.395000", "113806.394000", "113808.394000", "113810.394000", "113812.394000", "113814.394000", "113816.395000", "113818.395000", "113820.394000", "113822.395000", "113824.395000", "113826.394000", "113828.395000", "113830.395000", "113832.394000", "113834.394000", "113836.395000", "113838.394000", "113840.394000", "113842.394000", "113844.395000", "113846.394000", "113848.394000", "113850.394000", "113852.395000", "113854.395000", "113856.394000", "113858.394000", "113900.395000", "113902.395000", "113904.394000", "113906.394000", "113908.394000", "113910.394000", "113912.394000", "113914.394000", "113916.395000", "113918.394000", "113920.394000", "113922.394000", "113924.394000", "113926.394000", "113928.394000", "113930.394000", "113932.394000", "113934.394000", "113936.394000", "113938.395000", "113940.394000", "113942.395000", "113944.394000", "113946.394000", "113948.395000", "113950.395000", "113952.395000", "113954.394000", "113956.394000", "113958.394000", "114000.394000", "114002.396000", "114004.394000", "114006.394000", "114008.395000", "114010.394000", "114012.414000", "114014.394000", "114016.394000", "114018.394000", "114020.394000", "114022.394000", "114024.394000", "114026.394000", "114028.395000", "114030.394000", "114032.395000", "114034.395000", "114036.394000", "114038.395000", "114040.394000", "114042.394000", "114044.394000", "114046.395000", "114048.394000", "114050.394000", "114052.394000", "114054.394000", "114056.394000", "114058.395000", "114100.394000", "114102.394000", "114104.394000", "114106.395000", "114108.394000", "114110.394000", "114112.395000", "114114.395000", "114116.395000", "114118.395000", "114120.394000", "114122.394000", "114124.394000", "114126.395000", "114128.394000", "114130.394000", "114132.394000", "114134.395000", "114136.394000", "114138.394000", "114140.395000", "114142.394000", "114144.395000", "114146.394000", "114148.394000", "114150.395000", "114152.394000", "114154.394000", "114156.394000", "114158.394000", "114200.394000", "114202.394000", "114204.395000", "114206.394000", "114208.395000", "114210.395000", "114212.394000", "114214.394000", "114216.394000", "114218.395000", "114220.394000", "114222.395000", "114224.394000", "114226.394000", "114228.394000", "114230.395000", "114232.395000", "114234.394000", "114236.394000", "114238.394000", "114240.394000", "114242.394000", "114244.394000", "114246.395000", "114248.394000", "114250.394000", "114252.394000", "114254.394000", "114256.395000", "114258.395000", "114300.394000", "114302.394000", "114304.395000", "114306.394000", "114308.018000"],
      "InstanceNumber": [1, 2, 3, 4, 5, 6, 7, 8, 9, 10, 11, 12, 13, 14, 15, 16, 17, 18, 19, 20, 21, 22, 23, 24, 25, 26, 27, 28, 29, 30, 31, 32, 33, 34, 35, 36, 37, 38, 39, 40, 41, 42, 43, 44, 45, 46, 47, 48, 49, 50, 51, 52, 53, 54, 55, 56, 57, 58, 59, 60, 61, 62, 63, 64, 65, 66, 67, 68, 69, 70, 71, 72, 73, 74, 75, 76, 77, 78, 79, 80, 81, 82, 83, 84, 85, 86, 87, 88, 89, 90, 91, 92, 93, 94, 95, 96, 97, 98, 99, 100, 101, 102, 103, 104, 105, 106, 107, 108, 109, 110, 111, 112, 113, 114, 115, 116, 117, 118, 119, 120, 121, 122, 123, 124, 125, 126, 127, 128, 129, 130, 131, 132, 133, 134, 135, 136, 137, 138, 139, 140, 141, 142, 143, 144, 145, 146, 147, 148, 149, 150, 151, 152, 153, 154, 155, 156, 157, 158, 159, 160, 161, 162, 163, 164, 165, 166, 167, 168, 169, 170, 171, 172, 173, 174, 175, 176, 177, 178, 179, 180, 181, 182, 183, 184, 185, 186, 187, 188, 189, 190, 191, 192, 193, 194, 195, 196, 197, 198, 199, 200, 201, 202, 203, 204, 205, 206, 207, 208, 209, 210, 211, 212, 213, 214, 215, 216, 217, 218, 219, 220, 221, 222, 223, 224, 225, 226, 227, 228, 229, 230, 231, 232],
      "LargestImagePixelValue": [3071, 3011, 2991, 2965, 2992, 2982, 2990, 3013, 3009, 2989, 2990, 2966, 2952, 2943, 2954, 2938, 2942, 2950, 2986, 2978, 2961, 2970, 2942, 2954, 3015, 3017, 2995, 3012, 3013, 2999, 2988, 2923, 2976, 2936, 2916, 2926, 2973, 2938, 3006, 3022, 3024, 2944, 2888, 2934, 2972, 2953, 2921, 2938, 2970, 2927, 2964, 2924, 2918, 2918, 2912, 2916, 2949, 2870, 2841, 2886, 2863, 2913, 2917, 2919, 2926, 2925, 2902, 2949, 2891, 2923, 2890, 2879, 2866, 2900, 2896, 2914, 2888, 2897, 2901, 2885, 2874, 2872, 2879, 2868, 2890, 2902, 2921, 2920, 2902, 2894, 2892, 2926, 2899, 2918, 2956, 2959, 2971, 2963, 2993, 2968, 3008, 2987, 3005, 3014, 2975, 2981, 2941, 3022, 2893, 2932, 2875, 2937, 2944, 2908, 2919, 2934, 2894, 2914, 2941, 2903, 2925, 2895, 2960, 3006, 2955, 2939, 2932, 2931, 2956, 2942, 2939, 2952, 2923, 2962, 2939, 2978, 2973, 2930, 2930, 2920, 2972, 2951, 2932, 2962, 2976, 2943, 2941, 2934, 2971, 2945, 2987, 2950, 2973, 2973, 2990, 2968, 2966, 3029, 2985, 3013, 2998, 2973, 2977, 2952, 2994, 2971, 2973, 2961, 2944, 2903, 2903, 2903, 2893, 2884, 2898, 2857, 2922, 2888, 2888, 2902, 2924, 2871, 2919, 2937, 2930, 2930, 2854, 2909, 2913, 2998, 2870, 2893, 2958, 2900, 2936, 2922, 2986, 2941, 2949, 2940, 2900, 2858, 2877, 2903, 2884, 2878, 2861, 2891, 2920, 2863, 2901, 2904, 2910, 2896, 2891, 2886, 2894, 2867, 2937, 2902, 2944, 2926, 2897, 2962, 2926, 2934, 2876, 2899, 2939, 2934, 2972, 2930],
      "WindowCenter": [747.0, 745.0, 745.0, 744.0, 745.0, 744.0, 744.0, 745.0, 744.0, 744.0, 745.0, 745.0, 745.0, 745.0, 745.0, 744.0, 744.0, 744.0, 746.0, 746.0, 746.0, 746.0, 745.0, 744.0, 746.0, 746.0, 747.0, 747.0, 747.0, 746.0, 745.0, 744.0, 744.0, 744.0, 744.0, 745.0, 747.0, 747.0, 747.0, 747.0, 748.0, 747.0, 745.0, 745.0, 747.0, 744.0, 745.0, 744.0, 745.0, 745.0, 745.0, 745.0, 744.0, 744.0, 745.0, 746.0, 746.0, 745.0, 745.0, 745.0, 745.0, 746.0, 745.0, 745.0, 744.0, 744.0, 744.0, 745.0, 745.0, 744.0, 744.0, 743.0, 743.0, 744.0, 743.0, 743.0, 742.0, 743.0, 742.0, 742.0, 743.0, 743.0, 743.0, 743.0, 745.0, 745.0, 745.0, 745.0, 744.0, 745.0, 744.0, 744.0, 744.0, 744.0, 744.0, 743.0, 744.0, 744.0, 745.0, 744.0, 744.0, 744.0, 745.0, 745.0, 744.0, 743.0, 741.0, 742.0, 744.0, 743.0, 743.0, 742.0, 741.0, 740.0, 742.0, 742.0, 741.0, 741.0, 741.0, 741.0, 741.0, 741.0, 742.0, 743.0, 742.0, 743.0, 743.0, 743.0, 743.0, 742.0, 742.0, 743.0, 743.0, 743.0, 743.0, 744.0, 744.0, 743.0, 744.0, 744.0, 742.0, 742.0, 743.0, 744.0, 744.0, 743.0, 742.0, 742.0, 742.0, 741.0, 741.0, 741.0, 742.0, 742.0, 743.0, 743.0, 744.0, 745.0, 743.0, 743.0, 742.0, 742.0, 742.0, 743.0, 744.0, 743.0, 742.0, 743.0, 743.0, 743.0, 743.0, 741.0, 740.0, 739.0, 738.0, 737.0, 737.0, 737.0, 738.0, 740.0, 741.0, 741.0, 741.0, 742.0, 742.0, 742.0, 741.0, 741.0, 743.0, 742.0, 741.0, 741.0, 743.0, 741.0, 742.0, 741.0, 741.0, 741.0, 741.0, 741.0, 741.0, 741.0, 741.0, 741.0, 740.0, 741.0, 741.0, 742.0, 741.0, 740.0, 740.0, 740.0, 741.0, 741.0, 740.0, 739.0, 740.0, 740.0, 741.0, 740.0, 739.0, 740.0, 740.0, 742.0, 741.0, 742.0, 742.0, 742.0, 741.0, 741.0, 741.0, 740.0],
      "WindowWidth": [1611.0, 1606.0, 1605.0, 1603.0, 1605.0, 1603.0, 1603.0, 1605.0, 1603.0, 1603.0, 1605.0, 1606.0, 1606.0, 1607.0, 1607.0, 1604.0, 1603.0, 1605.0, 1608.0, 1610.0, 1610.0, 1608.0, 1607.0, 1604.0, 1608.0, 1609.0, 1611.0, 1613.0, 1611.0, 1610.0, 1607.0, 1604.0, 1604.0, 1604.0, 1605.0, 1606.0, 1611.0, 1611.0, 1612.0, 1613.0, 1615.0, 1611.0, 1606.0, 1606.0, 1612.0, 1603.0, 1608.0, 1605.0, 1606.0, 1606.0, 1608.0, 1606.0, 1605.0, 1605.0, 1606.0, 1608.0, 1610.0, 1606.0, 1608.0, 1606.0, 1606.0, 1608.0, 1606.0, 1605.0, 1605.0, 1605.0, 1605.0, 1605.0, 1606.0, 1604.0, 1603.0, 1601.0, 1601.0, 1603.0, 1600.0, 1600.0, 1599.0, 1600.0, 1599.0, 1599.0, 1600.0, 1601.0, 1602.0, 1602.0, 1606.0, 1606.0, 1606.0, 1606.0, 1604.0, 1606.0, 1604.0, 1604.0, 1603.0, 1602.0, 1602.0, 1601.0, 1602.0, 1602.0, 1604.0, 1603.0, 1603.0, 1604.0, 1605.0, 1606.0, 1604.0, 1601.0, 1595.0, 1598.0, 1602.0, 1600.0, 1599.0, 1597.0, 1595.0, 1594.0, 1597.0, 1597.0, 1596.0, 1596.0, 1596.0, 1595.0, 1595.0, 1596.0, 1599.0, 1599.0, 1598.0, 1600.0, 1601.0, 1600.0, 1600.0, 1599.0, 1599.0, 1599.0, 1599.0, 1600.0, 1601.0, 1602.0, 1604.0, 1602.0, 1604.0, 1602.0, 1599.0, 1598.0, 1599.0, 1602.0, 1603.0, 1600.0, 1599.0, 1598.0, 1597.0, 1595.0, 1595.0, 1596.0, 1597.0, 1598.0, 1600.0, 1601.0, 1603.0, 1605.0, 1601.0, 1601.0, 1598.0, 1597.0, 1598.0, 1600.0, 1603.0, 1600.0, 1599.0, 1599.0, 1600.0, 1601.0, 1600.0, 1595.0, 1592.0, 1589.0, 1588.0, 1585.0, 1585.0, 1583.0, 1587.0, 1591.0, 1595.0, 1595.0, 1596.0, 1597.0, 1597.0, 1597.0, 1595.0, 1595.0, 1600.0, 1597.0, 1595.0, 1596.0, 1599.0, 1595.0, 1596.0, 1595.0, 1596.0, 1595.0, 1595.0, 1595.0, 1595.0, 1594.0, 1594.0, 1595.0, 1594.0, 1594.0, 1595.0, 1597.0, 1596.0, 1592.0, 1592.0, 1593.0, 1595.0, 1594.0, 1592.0, 1591.0, 1591.0, 1592.0, 1595.0, 1591.0, 1591.0, 1592.0, 1593.0, 1598.0, 1596.0, 1597.0, 1596.0, 1597.0, 1596.0, 1595.0, 1595.0, 1593.0]
    },
    "slices": {}
  }
}