{
  "AcquisitionMatrixPE": 100,
  "AcquisitionNumber": 1,
  "AcquisitionTime": "11:44:11.315000",
  "BandwidthPerPixelPhaseEncode": 18.519,
  "BaseResolution": 100,
  "BodyPartExamined": "BRAIN",
  "ConsistencyInfo": "N4_VE11C_LATEST_20160120",
  "ConversionSoftware": "dcm2niix",
  "ConversionSoftwareVersion": "v1.0.20180622 GCC4.9.2",
  "DerivedVendorReportedEchoSpacing": 0.000539986,
  "DeviceSerialNumber": "166078",
  "DwellTime": 2.1e-06,
  "EchoTime": 0.034,
  "EchoTrainLength": 100,
  "EffectiveEchoSpacing": 0.000539986,
  "FlipAngle": 90,
  "ImageOrientationPatientDICOM": [1, 0, 0, 0, 0.977416, -0.211325],
  "ImageType": [
    "ORIGINAL",
    "PRIMARY",
    "M",
    "ND",
    "MOSAIC"
],
  "InPlanePhaseEncodingDirectionDICOM": "COL",
  "InstitutionAddress": "Street_StreetNo_Bei_Jing_District_CN_ZIP",
  "InstitutionName": "BeiJing_Normal_University",
  "InstitutionalDepartmentName": "Department",
  "MRAcquisitionType": "2D",
  "MagneticFieldStrength": 3,
  "Manufacturer": "Siemens",
  "ManufacturersModelName": "Prisma",
  "Modality": "MR",
  "MultibandAccelerationFactor": 3,
  "PartialFourier": 1,
  "PatientPosition": "HFS",
  "PercentPhaseFOV": 100,
  "PhaseEncodingDirection": "j-",
  "PhaseEncodingSteps": 100,
  "PhaseResolution": 1,
  "PixelBandwidth": 2380,
  "ProcedureStepDescription": "BNU_P2018_64CH_Liu.Jia",
  "ProtocolName": "bold_100x100_s3_2x2x2_232",
  "PulseSequenceDetails": "%SiemensSeq%_ep2d_bold",
  "ReceiveCoilActiveElements": "HC1-7;NC1",
  "ReceiveCoilName": "HeadNeck_64",
  "ReconMatrixPE": 100,
  "RepetitionTime": 2,
  "SAR": 0.0552517,
  "ScanOptions": "FS",
  "ScanningSequence": "EP",
  "SequenceName": "_epfid2d1_100",
  "SequenceVariant": "SK",
  "SeriesDescription": "bold_100x100_s3_2x2x2_232",
  "SeriesNumber": 4,
  "ShimSetting": [-5451, -11525, -1283, 498, -3, -270, -35, -10],
  "SliceThickness": 2,
  "SliceTiming": [1.485, 0, 0.99, 0.0825, 1.0725, 0.165, 1.155, 0.2475, 1.2375, 0.33, 1.32, 0.4125, 1.4025, 0.5775, 1.5675, 0.66, 1.65, 0.7425, 1.7325, 0.825, 1.815, 0.9075, 1.8975, 0.495, 1.485, 0, 0.99, 0.0825, 1.0725, 0.165, 1.155, 0.2475, 1.2375, 0.33, 1.32, 0.4125, 1.4025, 0.5775, 1.5675, 0.66, 1.65, 0.7425, 1.7325, 0.825, 1.815, 0.9075, 1.8975, 0.495, 1.485, 0, 0.99, 0.0825, 1.0725, 0.165, 1.155, 0.2475, 1.2375, 0.33, 1.32, 0.4125, 1.4025, 0.5775, 1.5675, 0.66, 1.65, 0.7425, 1.7325, 0.825, 1.815, 0.9075, 1.8975, 0.495],
  "SoftwareVersions": "syngo_MR_E11",
  "SpacingBetweenSlices": 2,
  "StationName": "AWP166078",
  "TaskName": "motor",
  "TotalReadoutTime": 0.0534586,
  "TxRefAmp": 212.816,
  "dcmmeta_affine": [
    [-2.0, 0.0, 0.0, 101.34939575195312],
    [0.0, 1.954831838607788, -0.4226495921611786, -78.18510437011719],
    [0.0, 0.4226495623588562, 1.954831838607788, -90.72322845458984],
    [0.0, 0.0, 0.0, 1.0]
],
  "dcmmeta_reorient_transform": [
    [0.0, -1.0, 0.0, 99.0],
    [1.0, 0.0, 0.0, 0.0],
    [0.0, 0.0, 1.0, 0.0],
    [0.0, 0.0, 0.0, 1.0]
],
  "dcmmeta_shape": [100, 100, 72, 232],
  "dcmmeta_slice_dim": 2,
  "dcmmeta_version": 0.6,
  "global": {
    "const": {
      "AcquisitionMatrix": [100, 0, 0, 100],
      "AngioFlag": "N",
      "BitsAllocated": 16,
      "BitsStored": 12,
      "BodyPartExamined": "BRAIN",
      "Columns": 900,
      "EchoNumbers": 1,
      "EchoTime": 34.0,
      "EchoTrainLength": 100,
      "FlipAngle": 90.0,
      "HighBit": 11,
      "ImageOrientationPatient": [1.0, 0.0, 0.0, 0.0, 0.97741589648343, -0.2113247862923],
      "ImagePositionPatient": [-901.34939754009, -897.27595707312, 120.17891044627],
      "ImageType": [
        "ORIGINAL",
        "PRIMARY",
        "M",
        "ND",
        "MOSAIC"
],
      "ImagedNucleus": "1H",
      "ImagingFrequency": 123.257803,
      "InPlanePhaseEncodingDirection": "COL",
      "MRAcquisitionType": "2D",
      "MagneticFieldStrength": 3.0,
      "Manufacturer": "SIEMENS",
      "ManufacturerModelName": "Prisma",
      "Modality": "MR",
      "NumberOfAverages": 1.0,
      "NumberOfPhaseEncodingSteps": 100,
      "PercentPhaseFieldOfView": 100.0,
      "PercentSampling": 100.0,
      "PerformedProcedureStepStartTime": "113230.891000",
      "PhotometricInterpretation": "MONOCHROME2",
      "PixelBandwidth": 2380.0,
      "PixelRepresentation": 0,
      "PixelSpacing": [2.0, 2.0],
      "ProtocolName": "bold_100x100_s3_2x2x2_232",
      "RepetitionTime": 2000.0,
      "Rows": 900,
      "SAR": 0.05525168080893,
      "SamplesPerPixel": 1,
      "ScanOptions": "FS",
      "ScanningSequence": "EP",
      "SequenceName": "*epfid2d1_100",
      "SequenceVariant": "SK",
      "SeriesDescription": "bold_100x100_s3_2x2x2_232",
      "SeriesNumber": 4,
      "SeriesTime": "114414.166000",
      "SliceLocation": -72.151872381451,
      "SliceThickness": 2.0,
      "SmallestImagePixelValue": 0,
      "SoftwareVersions": "syngo MR E11",
      "SpacingBetweenSlices": 2.000000043957,
      "SpecificCharacterSet": "ISO_IR 100",
      "StudyID": "1",
      "StudyTime": "113230.841000",
      "TransmitCoilName": "Body",
      "VariableFlipAngleFlag": "N",
      "WindowCenterWidthExplanation": "Algo1",
      "dBdt": 0.0},
    "slices": {}
  },
  "time": {
    "samples": {
      "AcquisitionNumber": [1, 2, 3, 4, 5, 6, 7, 8, 9, 10, 11, 12, 13, 14, 15, 16, 17, 18, 19, 20, 21, 22, 23, 24, 25, 26, 27, 28, 29, 30, 31, 32, 33, 34, 35, 36, 37, 38, 39, 40, 41, 42, 43, 44, 45, 46, 47, 48, 49, 50, 51, 52, 53, 54, 55, 56, 57, 58, 59, 60, 61, 62, 63, 64, 65, 66, 67, 68, 69, 70, 71, 72, 73, 74, 75, 76, 77, 78, 79, 80, 81, 82, 83, 84, 85, 86, 87, 88, 89, 90, 91, 92, 93, 94, 95, 96, 97, 98, 99, 100, 101, 102, 103, 104, 105, 106, 107, 108, 109, 110, 111, 112, 113, 114, 115, 116, 117, 118, 119, 120, 121, 122, 123, 124, 125, 126, 127, 128, 129, 130, 131, 132, 133, 134, 135, 136, 137, 138, 139, 140, 141, 142, 143, 144, 145, 146, 147, 148, 149, 150, 151, 152, 153, 154, 155, 156, 157, 158, 159, 160, 161, 162, 163, 164, 165, 166, 167, 168, 169, 170, 171, 172, 173, 174, 175, 176, 177, 178, 179, 180, 181, 182, 183, 184, 185, 186, 187, 188, 189, 190, 191, 192, 193, 194, 195, 196, 197, 198, 199, 200, 201, 202, 203, 204, 205, 206, 207, 208, 209, 210, 211, 212, 213, 214, 215, 216, 217, 218, 219, 220, 221, 222, 223, 224, 225, 226, 227, 228, 229, 230, 231, 232],
      "AcquisitionTime": ["114411.315000", "114413.315000", "114415.315000", "114417.315000", "114419.315000", "114421.315000", "114423.315000", "114425.315000", "114427.315000", "114429.315000", "114431.315000", "114433.315000", "114435.315000", "114437.315000", "114439.315000", "114441.315000", "114443.315000", "114445.315000", "114447.315000", "114449.315000", "114451.315000", "114453.315000", "114455.315000", "114457.315000", "114459.315000", "114501.315000", "114503.315000", "114505.315000", "114507.315000", "114509.315000", "114511.315000", "114513.315000", "114515.315000", "114517.315000", "114519.315000", "114521.315000", "114523.315000", "114525.315000", "114527.315000", "114529.315000", "114531.315000", "114533.315000", "114535.315000", "114537.315000", "114539.315000", "114541.315000", "114543.315000", "114545.315000", "114547.315000", "114549.315000", "114551.315000", "114553.315000", "114555.315000", "114557.315000", "114559.315000", "114601.315000", "114603.315000", "114605.315000", "114607.315000", "114609.315000", "114611.315000", "114613.315000", "114615.315000", "114617.315000", "114619.315000", "114621.315000", "114623.315000", "114625.315000", "114627.315000", "114629.315000", "114631.315000", "114633.315000", "114635.315000", "114637.315000", "114639.315000", "114641.315000", "114643.315000", "114645.315000", "114647.315000", "114649.315000", "114651.315000", "114653.315000", "114655.315000", "114657.315000", "114659.315000", "114701.315000", "114703.315000", "114705.315000", "114707.315000", "114709.315000", "114711.315000", "114713.315000", "114715.315000", "114717.315000", "114719.315000", "114721.315000", "114723.315000", "114725.315000", "114727.315000", "114729.315000", "114731.315000", "114733.315000", "114735.315000", "114737.315000", "114739.315000", "114741.315000", "114743.315000", "114745.315000", "114747.315000", "114749.315000", "114751.315000", "114753.315000", "114755.315000", "114757.315000", "114759.315000", "114801.315000", "114803.315000", "114805.315000", "114807.315000", "114809.315000", "114811.315000", "114813.315000", "114815.315000", "114817.315000", "114819.315000", "114821.315000", "114823.315000", "114825.315000", "114827.315000", "114829.315000", "114831.315000", "114833.315000", "114835.315000", "114837.315000", "114839.315000", "114841.315000", "114843.315000", "114845.315000", "114847.315000", "114849.315000", "114851.315000", "114853.315000", "114855.315000", "114857.315000", "114859.315000", "114901.315000", "114903.315000", "114905.315000", "114907.315000", "114909.315000", "114911.315000", "114913.315000", "114915.315000", "114917.315000", "114919.315000", "114921.315000", "114923.315000", "114925.315000", "114927.315000", "114929.315000", "114931.315000", "114933.315000", "114935.315000", "114937.315000", "114939.315000", "114941.315000", "114943.315000", "114945.315000", "114947.315000", "114949.315000", "114951.315000", "114953.315000", "114955.315000", "114957.315000", "114959.315000", "115001.315000", "115003.315000", "115005.315000", "115007.315000", "115009.315000", "115011.315000", "115013.315000", "115015.315000", "115017.315000", "115019.315000", "115021.315000", "115023.315000", "115025.315000", "115027.315000", "115029.315000", "115031.315000", "115033.315000", "115035.315000", "115037.315000", "115039.315000", "115041.315000", "115043.315000", "115045.315000", "115047.315000", "115049.315000", "115051.315000", "115053.315000", "115055.315000", "115057.315000", "115059.315000", "115101.315000", "115103.315000", "115105.315000", "115107.315000", "115109.315000", "115111.315000", "115113.315000", "115115.315000", "115117.315000", "115119.315000", "115121.315000", "115123.315000", "115125.315000", "115127.315000", "115129.315000", "115131.315000", "115133.315000", "115135.315000", "115137.315000", "115139.315000", "115141.315000", "115143.315000", "115145.315000", "115147.315000", "115149.315000", "115151.315000", "115153.315000"],
      "ContentTime": ["114414.169000", "114415.665000", "114417.665000", "114419.665000", "114421.664000", "114423.664000", "114425.665000", "114427.666000", "114429.665000", "114431.665000", "114433.666000", "114435.666000", "114437.664000", "114439.664000", "114441.665000", "114443.665000", "114445.665000", "114447.666000", "114449.666000", "114451.665000", "114453.666000", "114455.664000", "114457.665000", "114459.665000", "114501.665000", "114503.665000", "114505.666000", "114507.665000", "114509.665000", "114511.665000", "114513.664000", "114515.664000", "114517.665000", "114519.665000", "114521.665000", "114523.665000", "114525.665000", "114527.665000", "114529.665000", "114531.664000", "114533.664000", "114535.665000", "114537.665000", "114539.665000", "114541.665000", "114543.665000", "114545.665000", "114547.664000", "114549.664000", "114551.664000", "114553.665000", "114555.666000", "114557.665000", "114559.665000", "114601.665000", "114603.665000", "114605.665000", "114607.664000", "114609.665000", "114611.665000", "114613.665000", "114615.666000", "114617.666000", "114619.666000", "114621.665000", "114623.664000", "114625.664000", "114627.665000", "114629.665000", "114631.665000", "114633.665000", "114635.665000", "114637.665000", "114639.665000", "114641.664000", "114643.665000", "114645.666000", "114647.665000", "114649.665000", "114651.665000", "114653.665000", "114655.665000", "114657.664000", "114659.664000", "114701.665000", "114703.665000", "114705.666000", "114707.665000", "114709.666000", "114711.685000", "114713.665000", "114715.665000", "114717.664000", "114719.665000", "114721.665000", "114723.666000", "114725.666000", "114727.666000", "114729.666000", "114731.666000", "114733.664000", "114735.664000", "114737.665000", "114739.665000", "114741.666000", "114743.665000", "114745.665000", "114747.665000", "114749.665000", "114751.665000", "114753.664000", "114755.665000", "114757.665000", "114759.665000", "114801.665000", "114803.665000", "114805.665000", "114807.665000", "114809.665000", "114811.665000", "114813.665000", "114815.666000", "114817.665000", "114819.666000", "114821.665000", "114823.666000", "114825.664000", "114827.664000", "114829.665000", "114831.665000", "114833.665000", "114835.666000", "114837.665000", "114839.665000", "114841.665000", "114843.665000", "114845.664000", "114847.665000", "114849.665000", "114851.665000", "114853.665000", "114855.665000", "114857.666000", "114859.665000", "114901.664000", "114903.665000", "114905.665000", "114907.666000", "114909.665000", "114911.665000", "114913.665000", "114915.666000", "114917.664000", "114919.664000", "114921.665000", "114923.666000", "114925.665000", "114927.665000", "114929.665000", "114931.665000", "114933.666000", "114935.664000", "114937.664000", "114939.665000", "114941.665000", "114943.666000", "114945.665000", "114947.665000", "114949.666000", "114951.665000", "114953.664000", "114955.664000", "114957.665000", "114959.665000", "115001.665000", "115003.665000", "115005.665000", "115007.665000", "115009.665000", "115011.664000", "115013.664000", "115015.665000", "115017.666000", "115019.665000", "115021.666000", "115023.665000", "115025.665000", "115027.665000", "115029.664000", "115031.666000", "115033.665000", "115035.665000", "115037.666000", "115039.665000", "115041.665000", "115043.666000", "115045.664000", "115047.664000", "115049.683000", "115051.665000", "115053.665000", "115055.666000", "115057.665000", "115059.665000", "115101.665000", "115103.665000", "115105.665000", "115107.665000", "115109.666000", "115111.665000", "115113.665000", "115115.665000", "115117.665000", "115119.666000", "115121.664000", "115123.664000", "115125.665000", "115127.665000", "115129.665000", "115131.665000", "115133.666000", "115135.665000", "115137.664000", "115139.664000", "115141.665000", "115143.666000", "115145.666000", "115147.665000", "115149.665000", "115151.665000", "115153.666000", "115155.433000"],
      "InstanceCreationTime": ["114414.169000", "114415.665000", "114417.665000", "114419.665000", "114421.664000", "114423.664000", "114425.665000", "114427.666000", "114429.665000", "114431.665000", "114433.666000", "114435.666000", "114437.664000", "114439.664000", "114441.665000", "114443.665000", "114445.665000", "114447.666000", "114449.666000", "114451.665000", "114453.666000", "114455.664000", "114457.665000", "114459.665000", "114501.665000", "114503.665000", "114505.666000", "114507.665000", "114509.665000", "114511.665000", "114513.664000", "114515.664000", "114517.665000", "114519.665000", "114521.665000", "114523.665000", "114525.665000", "114527.665000", "114529.665000", "114531.664000", "114533.664000", "114535.665000", "114537.665000", "114539.665000", "114541.665000", "114543.665000", "114545.665000", "114547.664000", "114549.664000", "114551.664000", "114553.665000", "114555.666000", "114557.665000", "114559.665000", "114601.665000", "114603.665000", "114605.665000", "114607.664000", "114609.665000", "114611.665000", "114613.665000", "114615.666000", "114617.666000", "114619.666000", "114621.665000", "114623.664000", "114625.664000", "114627.665000", "114629.665000", "114631.665000", "114633.665000", "114635.665000", "114637.665000", "114639.665000", "114641.664000", "114643.665000", "114645.666000", "114647.665000", "114649.665000", "114651.665000", "114653.665000", "114655.665000", "114657.664000", "114659.664000", "114701.665000", "114703.665000", "114705.666000", "114707.665000", "114709.666000", "114711.685000", "114713.665000", "114715.665000", "114717.664000", "114719.665000", "114721.665000", "114723.666000", "114725.666000", "114727.666000", "114729.666000", "114731.666000", "114733.664000", "114735.664000", "114737.665000", "114739.665000", "114741.666000", "114743.665000", "114745.665000", "114747.665000", "114749.665000", "114751.665000", "114753.664000", "114755.665000", "114757.665000", "114759.665000", "114801.665000", "114803.665000", "114805.665000", "114807.665000", "114809.665000", "114811.665000", "114813.665000", "114815.666000", "114817.665000", "114819.666000", "114821.665000", "114823.666000", "114825.664000", "114827.664000", "114829.665000", "114831.665000", "114833.665000", "114835.666000", "114837.665000", "114839.665000", "114841.665000", "114843.665000", "114845.664000", "114847.665000", "114849.665000", "114851.665000", "114853.665000", "114855.665000", "114857.666000", "114859.665000", "114901.664000", "114903.665000", "114905.665000", "114907.666000", "114909.665000", "114911.665000", "114913.665000", "114915.666000", "114917.664000", "114919.664000", "114921.665000", "114923.666000", "114925.665000", "114927.665000", "114929.665000", "114931.665000", "114933.666000", "114935.664000", "114937.664000", "114939.665000", "114941.665000", "114943.666000", "114945.665000", "114947.665000", "114949.666000", "114951.665000", "114953.664000", "114955.664000", "114957.665000", "114959.665000", "115001.665000", "115003.665000", "115005.665000", "115007.665000", "115009.665000", "115011.664000", "115013.664000", "115015.665000", "115017.666000", "115019.665000", "115021.666000", "115023.665000", "115025.665000", "115027.665000", "115029.664000", "115031.666000", "115033.665000", "115035.665000", "115037.666000", "115039.665000", "115041.665000", "115043.666000", "115045.664000", "115047.664000", "115049.683000", "115051.665000", "115053.665000", "115055.666000", "115057.665000", "115059.665000", "115101.665000", "115103.665000", "115105.665000", "115107.665000", "115109.666000", "115111.665000", "115113.665000", "115115.665000", "115117.665000", "115119.666000", "115121.664000", "115123.664000", "115125.665000", "115127.665000", "115129.665000", "115131.665000", "115133.666000", "115135.665000", "115137.664000", "115139.664000", "115141.665000", "115143.666000", "115145.666000", "115147.665000", "115149.665000", "115151.665000", "115153.666000", "115155.433000"],
      "InstanceNumber": [1, 2, 3, 4, 5, 6, 7, 8, 9, 10, 11, 12, 13, 14, 15, 16, 17, 18, 19, 20, 21, 22, 23, 24, 25, 26, 27, 28, 29, 30, 31, 32, 33, 34, 35, 36, 37, 38, 39, 40, 41, 42, 43, 44, 45, 46, 47, 48, 49, 50, 51, 52, 53, 54, 55, 56, 57, 58, 59, 60, 61, 62, 63, 64, 65, 66, 67, 68, 69, 70, 71, 72, 73, 74, 75, 76, 77, 78, 79, 80, 81, 82, 83, 84, 85, 86, 87, 88, 89, 90, 91, 92, 93, 94, 95, 96, 97, 98, 99, 100, 101, 102, 103, 104, 105, 106, 107, 108, 109, 110, 111, 112, 113, 114, 115, 116, 117, 118, 119, 120, 121, 122, 123, 124, 125, 126, 127, 128, 129, 130, 131, 132, 133, 134, 135, 136, 137, 138, 139, 140, 141, 142, 143, 144, 145, 146, 147, 148, 149, 150, 151, 152, 153, 154, 155, 156, 157, 158, 159, 160, 161, 162, 163, 164, 165, 166, 167, 168, 169, 170, 171, 172, 173, 174, 175, 176, 177, 178, 179, 180, 181, 182, 183, 184, 185, 186, 187, 188, 189, 190, 191, 192, 193, 194, 195, 196, 197, 198, 199, 200, 201, 202, 203, 204, 205, 206, 207, 208, 209, 210, 211, 212, 213, 214, 215, 216, 217, 218, 219, 220, 221, 222, 223, 224, 225, 226, 227, 228, 229, 230, 231, 232],
      "LargestImagePixelValue": [2993, 2935, 2916, 2916, 2900, 2919, 2885, 2896, 2929, 2886, 2915, 2918, 2911, 2904, 2916, 2942, 2916, 2913, 2885, 2910, 2879, 2916, 2893, 2951, 2904, 2956, 2935, 2940, 2946, 2924, 2951, 2971, 2962, 2969, 2960, 2987, 2968, 2949, 2923, 2919, 2943, 2913, 2971, 2897, 2956, 2918, 2942, 2985, 2906, 2981, 2949, 2969, 2974, 2962, 2959, 2958, 2986, 2959, 2969, 2912, 2927, 2927, 2918, 2933, 2903, 2958, 2963, 2947, 2944, 2937, 2955, 2961, 2949, 2981, 2935, 2950, 2938, 2956, 3003, 2960, 2951, 2972, 2988, 2991, 2955, 2955, 2972, 2983, 2938, 2913, 2962, 2950, 2956, 2960, 2962, 2967, 2923, 2935, 2973, 3052, 2986, 2984, 2973, 2989, 2974, 3005, 2974, 2903, 2889, 2898, 2890, 2911, 2924, 2942, 2906, 2926, 2908, 2923, 2904, 2950, 2963, 2941, 2956, 2962, 2960, 2944, 2945, 2918, 2934, 2928, 2952, 2941, 2929, 2934, 2945, 2942, 2953, 2945, 2935, 2952, 2936, 2946, 2934, 2949, 2936, 2966, 2941, 2932, 2955, 2933, 2938, 2924, 2927, 2917, 2928, 2927, 2916, 2917, 2922, 2889, 2911, 2922, 2913, 2936, 2920, 2968, 2925, 2925, 2909, 2905, 2902, 2890, 2922, 2887, 2914, 3003, 2923, 2938, 2928, 2952, 2915, 2927, 2912, 2923, 2904, 2914, 2974, 2942, 2892, 2935, 2922, 2924, 2860, 2867, 2933, 2860, 2829, 2847, 2851, 2802, 2867, 2899, 2931, 2892, 2934, 2919, 2946, 2925, 2911, 2930, 2886, 2906, 2897, 2898, 2863, 2911, 2904, 2927, 2903, 2914, 2907, 2903, 2939, 2882, 2931, 2912, 2949, 2914, 2912, 2926, 2927, 2941],
      "WindowCenter": [744.0, 741.0, 740.0, 740.0, 740.0, 740.0, 739.0, 740.0, 741.0, 741.0, 741.0, 741.0, 740.0, 740.0, 740.0, 741.0, 742.0, 742.0, 742.0, 742.0, 742.0, 742.0, 742.0, 742.0, 742.0, 743.0, 743.0, 743.0, 743.0, 743.0, 743.0, 743.0, 742.0, 742.0, 743.0, 743.0, 743.0, 743.0, 742.0, 742.0, 742.0, 741.0, 741.0, 743.0, 743.0, 742.0, 741.0, 742.0, 741.0, 742.0, 742.0, 743.0, 744.0, 744.0, 743.0, 744.0, 745.0, 746.0, 745.0, 744.0, 743.0, 743.0, 743.0, 742.0, 740.0, 741.0, 742.0, 742.0, 742.0, 742.0, 743.0, 743.0, 743.0, 743.0, 742.0, 744.0, 743.0, 743.0, 743.0, 743.0, 743.0, 744.0, 743.0, 743.0, 743.0, 743.0, 743.0, 744.0, 743.0, 743.0, 744.0, 743.0, 743.0, 743.0, 743.0, 743.0, 742.0, 742.0, 743.0, 745.0, 745.0, 743.0, 742.0, 742.0, 742.0, 743.0, 744.0, 742.0, 742.0, 742.0, 741.0, 741.0, 741.0, 741.0, 741.0, 741.0, 742.0, 742.0, 741.0, 741.0, 741.0, 742.0, 743.0, 743.0, 743.0, 742.0, 742.0, 742.0, 741.0, 741.0, 742.0, 742.0, 742.0, 742.0, 742.0, 742.0, 743.0, 741.0, 742.0, 744.0, 744.0, 744.0, 744.0, 742.0, 742.0, 741.0, 741.0, 742.0, 743.0, 742.0, 742.0, 741.0, 742.0, 742.0, 742.0, 742.0, 742.0, 743.0, 743.0, 743.0, 743.0, 744.0, 742.0, 742.0, 744.0, 744.0, 743.0, 742.0, 742.0, 742.0, 742.0, 743.0, 744.0, 744.0, 744.0, 743.0, 742.0, 742.0, 742.0, 743.0, 742.0, 742.0, 742.0, 742.0, 742.0, 740.0, 743.0, 743.0, 742.0, 742.0, 740.0, 742.0, 740.0, 739.0, 741.0, 741.0, 740.0, 741.0, 741.0, 740.0, 740.0, 741.0, 742.0, 741.0, 742.0, 742.0, 742.0, 741.0, 741.0, 742.0, 742.0, 743.0, 742.0, 743.0, 742.0, 743.0, 741.0, 742.0, 741.0, 742.0, 742.0, 742.0, 742.0, 741.0, 742.0, 743.0, 743.0, 742.0, 743.0, 742.0, 741.0, 740.0],
      "WindowWidth": [1602.0, 1594.0, 1592.0, 1591.0, 1592.0, 1593.0, 1591.0, 1593.0, 1595.0, 1596.0, 1596.0, 1594.0, 1594.0, 1593.0, 1593.0, 1596.0, 1597.0, 1598.0, 1598.0, 1598.0, 1597.0, 1597.0, 1597.0, 1599.0, 1599.0, 1600.0, 1599.0, 1600.0, 1600.0, 1601.0, 1601.0, 1600.0, 1598.0, 1598.0, 1600.0, 1601.0, 1601.0, 1600.0, 1598.0, 1597.0, 1597.0, 1596.0, 1597.0, 1600.0, 1601.0, 1599.0, 1596.0, 1599.0, 1597.0, 1598.0, 1598.0, 1602.0, 1604.0, 1604.0, 1602.0, 1604.0, 1606.0, 1608.0, 1605.0, 1603.0, 1601.0, 1602.0, 1601.0, 1597.0, 1593.0, 1596.0, 1598.0, 1598.0, 1599.0, 1599.0, 1600.0, 1601.0, 1602.0, 1601.0, 1600.0, 1603.0, 1601.0, 1602.0, 1602.0, 1601.0, 1602.0, 1603.0, 1601.0, 1601.0, 1602.0, 1602.0, 1602.0, 1603.0, 1602.0, 1601.0, 1602.0, 1602.0, 1602.0, 1601.0, 1599.0, 1600.0, 1598.0, 1598.0, 1601.0, 1605.0, 1605.0, 1600.0, 1597.0, 1597.0, 1599.0, 1600.0, 1603.0, 1599.0, 1598.0, 1598.0, 1596.0, 1595.0, 1595.0, 1597.0, 1595.0, 1595.0, 1598.0, 1598.0, 1596.0, 1596.0, 1595.0, 1598.0, 1600.0, 1600.0, 1600.0, 1599.0, 1599.0, 1598.0, 1597.0, 1596.0, 1598.0, 1597.0, 1597.0, 1599.0, 1599.0, 1599.0, 1600.0, 1597.0, 1600.0, 1603.0, 1603.0, 1604.0, 1603.0, 1599.0, 1597.0, 1596.0, 1596.0, 1598.0, 1600.0, 1598.0, 1598.0, 1596.0, 1598.0, 1599.0, 1599.0, 1599.0, 1600.0, 1600.0, 1600.0, 1600.0, 1601.0, 1603.0, 1598.0, 1600.0, 1602.0, 1604.0, 1600.0, 1598.0, 1598.0, 1599.0, 1599.0, 1601.0, 1602.0, 1604.0, 1604.0, 1602.0, 1599.0, 1597.0, 1599.0, 1600.0, 1600.0, 1598.0, 1599.0, 1598.0, 1599.0, 1594.0, 1601.0, 1600.0, 1598.0, 1599.0, 1592.0, 1598.0, 1592.0, 1592.0, 1596.0, 1596.0, 1594.0, 1595.0, 1596.0, 1593.0, 1594.0, 1597.0, 1598.0, 1597.0, 1599.0, 1598.0, 1597.0, 1596.0, 1596.0, 1599.0, 1598.0, 1600.0, 1599.0, 1601.0, 1599.0, 1600.0, 1596.0, 1598.0, 1596.0, 1599.0, 1599.0, 1598.0, 1598.0, 1596.0, 1598.0, 1600.0, 1601.0, 1599.0, 1600.0, 1598.0, 1594.0, 1592.0]
    },
    "slices": {}
  }
}