{
  "AcquisitionMatrixPE": 100,
  "AcquisitionNumber": 1,
  "AcquisitionTime": "13:00:14.827500",
  "BandwidthPerPixelPhaseEncode": 18.519,
  "BaseResolution": 100,
  "BodyPartExamined": "BRAIN",
  "ConsistencyInfo": "N4_VE11C_LATEST_20160120",
  "ConversionSoftware": "dcm2niix",
  "ConversionSoftwareVersion": "v1.0.20180622 GCC4.9.2",
  "DerivedVendorReportedEchoSpacing": 0.000539986,
  "DeviceSerialNumber": "166078",
  "DwellTime": 2.1e-06,
  "EchoTime": 0.034,
  "EchoTrainLength": 100,
  "EffectiveEchoSpacing": 0.000539986,
  "FlipAngle": 90,
  "ImageOrientationPatientDICOM": [0.999999, -0.000252597, -0.0013121, -1.90629e-08, 0.981966, -0.189056],
  "ImageType": [
    "ORIGINAL",
    "PRIMARY",
    "M",
    "ND",
    "MOSAIC"
],
  "InPlanePhaseEncodingDirectionDICOM": "COL",
  "InstitutionAddress": "Street_StreetNo_Bei_Jing_District_CN_ZIP",
  "InstitutionName": "BeiJing_Normal_University",
  "InstitutionalDepartmentName": "Department",
  "MRAcquisitionType": "2D",
  "MagneticFieldStrength": 3,
  "Manufacturer": "Siemens",
  "ManufacturersModelName": "Prisma",
  "Modality": "MR",
  "MultibandAccelerationFactor": 3,
  "PartialFourier": 1,
  "PatientPosition": "HFS",
  "PercentPhaseFOV": 100,
  "PhaseEncodingDirection": "j-",
  "PhaseEncodingSteps": 100,
  "PhaseResolution": 1,
  "PixelBandwidth": 2380,
  "ProcedureStepDescription": "BNU_P2018_64CH_Liu.Jia",
  "ProtocolName": "bold_100x100_s3_2x2x2_232",
  "PulseSequenceDetails": "%SiemensSeq%_ep2d_bold",
  "ReceiveCoilActiveElements": "HC1-7;NC1",
  "ReceiveCoilName": "HeadNeck_64",
  "ReconMatrixPE": 100,
  "RepetitionTime": 2,
  "SAR": 0.0709538,
  "ScanOptions": "FS",
  "ScanningSequence": "EP",
  "SequenceName": "_epfid2d1_100",
  "SequenceVariant": "SK",
  "SeriesDescription": "bold_100x100_s3_2x2x2_232",
  "SeriesNumber": 4,
  "ShimSetting": [-5467, -11509, -1286, 358, -43, -220, -174, 81],
  "SliceThickness": 2,
  "SliceTiming": [1.485, 0, 0.99, 0.0825, 1.0725, 0.165, 1.155, 0.2475, 1.2375, 0.33, 1.32, 0.4125, 1.4025, 0.5775, 1.5675, 0.66, 1.65, 0.7425, 1.7325, 0.825, 1.815, 0.9075, 1.8975, 0.495, 1.485, 0, 0.99, 0.0825, 1.0725, 0.165, 1.155, 0.2475, 1.2375, 0.33, 1.32, 0.4125, 1.4025, 0.5775, 1.5675, 0.66, 1.65, 0.7425, 1.7325, 0.825, 1.815, 0.9075, 1.8975, 0.495, 1.485, 0, 0.99, 0.0825, 1.0725, 0.165, 1.155, 0.2475, 1.2375, 0.33, 1.32, 0.4125, 1.4025, 0.5775, 1.5675, 0.66, 1.65, 0.7425, 1.7325, 0.825, 1.815, 0.9075, 1.8975, 0.495],
  "SoftwareVersions": "syngo_MR_E11",
  "SpacingBetweenSlices": 2,
  "StationName": "AWP166078",
  "TaskName": "motor",
  "TotalReadoutTime": 0.0534586,
  "TxRefAmp": 215.891,
  "dcmmeta_affine": [
    [-1.9999982118606567, -3.812573368122685e-08, -0.0026723803021013737, 105.41484832763672],
    [0.0005051930784247816, 1.9639325141906738, -0.3781123757362366, -74.07463073730469],
    [-0.0026241946034133434, 0.3781127333641052, 1.9639307260513306, -93.8393325805664],
    [0.0, 0.0, 0.0, 1.0]
],
  "dcmmeta_reorient_transform": [
    [0.0, -1.0, 0.0, 99.0],
    [1.0, 0.0, 0.0, 0.0],
    [0.0, 0.0, 1.0, 0.0],
    [0.0, 0.0, 0.0, 1.0]
],
  "dcmmeta_shape": [100, 100, 72, 232],
  "dcmmeta_slice_dim": 2,
  "dcmmeta_version": 0.6,
  "global": {
    "const": {
      "AcquisitionMatrix": [100, 0, 0, 100],
      "AngioFlag": "N",
      "BitsAllocated": 16,
      "BitsStored": 12,
      "BodyPartExamined": "BRAIN",
      "Columns": 900,
      "EchoNumbers": 1,
      "EchoTime": 34.0,
      "EchoTrainLength": 100,
      "FlipAngle": 90.0,
      "HighBit": 11,
      "ImageOrientationPatient": [0.99999910729746, -0.0002525965455, -0.0013120972792, -1.9062867e-08, 0.9819662371286, -0.1890563649801],
      "ImagePositionPatient": [-905.41411547681, -905.72559561662, 95.888599981181],
      "ImageType": [
        "ORIGINAL",
        "PRIMARY",
        "M",
        "ND",
        "MOSAIC"
],
      "ImagedNucleus": "1H",
      "ImagingFrequency": 123.257833,
      "InPlanePhaseEncodingDirection": "COL",
      "MRAcquisitionType": "2D",
      "MagneticFieldStrength": 3.0,
      "Manufacturer": "SIEMENS",
      "ManufacturerModelName": "Prisma",
      "Modality": "MR",
      "NumberOfAverages": 1.0,
      "NumberOfPhaseEncodingSteps": 100,
      "PercentPhaseFieldOfView": 100.0,
      "PercentSampling": 100.0,
      "PerformedProcedureStepStartTime": "124837.542000",
      "PhotometricInterpretation": "MONOCHROME2",
      "PixelBandwidth": 2380.0,
      "PixelRepresentation": 0,
      "PixelSpacing": [2.0, 2.0],
      "ProtocolName": "bold_100x100_s3_2x2x2_232",
      "RepetitionTime": 2000.0,
      "Rows": 900,
      "SAR": 0.070953753422,
      "SamplesPerPixel": 1,
      "ScanOptions": "FS",
      "ScanningSequence": "EP",
      "SequenceName": "*epfid2d1_100",
      "SequenceVariant": "SK",
      "SeriesDescription": "bold_100x100_s3_2x2x2_232",
      "SeriesNumber": 4,
      "SeriesTime": "130017.482000",
      "SliceLocation": -78.283557768377,
      "SliceThickness": 2.0,
      "SmallestImagePixelValue": 0,
      "SoftwareVersions": "syngo MR E11",
      "SpacingBetweenSlices": 1.9999999705857,
      "SpecificCharacterSet": "ISO_IR 100",
      "StudyID": "1",
      "StudyTime": "124837.470000",
      "TransmitCoilName": "Body",
      "VariableFlipAngleFlag": "N",
      "WindowCenterWidthExplanation": "Algo1",
      "dBdt": 0.0},
    "slices": {}
  },
  "time": {
    "samples": {
      "AcquisitionNumber": [1, 2, 3, 4, 5, 6, 7, 8, 9, 10, 11, 12, 13, 14, 15, 16, 17, 18, 19, 20, 21, 22, 23, 24, 25, 26, 27, 28, 29, 30, 31, 32, 33, 34, 35, 36, 37, 38, 39, 40, 41, 42, 43, 44, 45, 46, 47, 48, 49, 50, 51, 52, 53, 54, 55, 56, 57, 58, 59, 60, 61, 62, 63, 64, 65, 66, 67, 68, 69, 70, 71, 72, 73, 74, 75, 76, 77, 78, 79, 80, 81, 82, 83, 84, 85, 86, 87, 88, 89, 90, 91, 92, 93, 94, 95, 96, 97, 98, 99, 100, 101, 102, 103, 104, 105, 106, 107, 108, 109, 110, 111, 112, 113, 114, 115, 116, 117, 118, 119, 120, 121, 122, 123, 124, 125, 126, 127, 128, 129, 130, 131, 132, 133, 134, 135, 136, 137, 138, 139, 140, 141, 142, 143, 144, 145, 146, 147, 148, 149, 150, 151, 152, 153, 154, 155, 156, 157, 158, 159, 160, 161, 162, 163, 164, 165, 166, 167, 168, 169, 170, 171, 172, 173, 174, 175, 176, 177, 178, 179, 180, 181, 182, 183, 184, 185, 186, 187, 188, 189, 190, 191, 192, 193, 194, 195, 196, 197, 198, 199, 200, 201, 202, 203, 204, 205, 206, 207, 208, 209, 210, 211, 212, 213, 214, 215, 216, 217, 218, 219, 220, 221, 222, 223, 224, 225, 226, 227, 228, 229, 230, 231, 232],
      "AcquisitionTime": ["130014.827500", "130016.827500", "130018.827500", "130020.827500", "130022.827500", "130024.827500", "130026.827500", "130028.827500", "130030.827500", "130032.827500", "130034.827500", "130036.827500", "130038.827500", "130040.827500", "130042.827500", "130044.827500", "130046.827500", "130048.827500", "130050.827500", "130052.827500", "130054.827500", "130056.827500", "130058.827500", "130100.827500", "130102.827500", "130104.827500", "130106.827500", "130108.827500", "130110.827500", "130112.827500", "130114.827500", "130116.827500", "130118.827500", "130120.827500", "130122.827500", "130124.827500", "130126.827500", "130128.827500", "130130.827500", "130132.827500", "130134.827500", "130136.827500", "130138.827500", "130140.827500", "130142.827500", "130144.827500", "130146.827500", "130148.827500", "130150.827500", "130152.827500", "130154.827500", "130156.827500", "130158.827500", "130200.827500", "130202.827500", "130204.827500", "130206.827500", "130208.827500", "130210.827500", "130212.827500", "130214.827500", "130216.827500", "130218.827500", "130220.827500", "130222.827500", "130224.827500", "130226.827500", "130228.827500", "130230.827500", "130232.827500", "130234.827500", "130236.827500", "130238.827500", "130240.827500", "130242.827500", "130244.827500", "130246.827500", "130248.827500", "130250.827500", "130252.827500", "130254.827500", "130256.827500", "130258.827500", "130300.827500", "130302.827500", "130304.827500", "130306.827500", "130308.827500", "130310.827500", "130312.827500", "130314.827500", "130316.827500", "130318.827500", "130320.827500", "130322.827500", "130324.827500", "130326.827500", "130328.827500", "130330.827500", "130332.827500", "130334.827500", "130336.827500", "130338.827500", "130340.827500", "130342.827500", "130344.827500", "130346.827500", "130348.827500", "130350.827500", "130352.827500", "130354.827500", "130356.827500", "130358.827500", "130400.827500", "130402.827500", "130404.827500", "130406.827500", "130408.827500", "130410.827500", "130412.827500", "130414.827500", "130416.827500", "130418.827500", "130420.827500", "130422.827500", "130424.827500", "130426.827500", "130428.827500", "130430.827500", "130432.827500", "130434.827500", "130436.827500", "130438.827500", "130440.827500", "130442.827500", "130444.827500", "130446.827500", "130448.827500", "130450.827500", "130452.827500", "130454.827500", "130456.827500", "130458.827500", "130500.827500", "130502.827500", "130504.827500", "130506.827500", "130508.827500", "130510.827500", "130512.827500", "130514.827500", "130516.827500", "130518.827500", "130520.827500", "130522.827500", "130524.827500", "130526.827500", "130528.827500", "130530.827500", "130532.827500", "130534.827500", "130536.827500", "130538.827500", "130540.827500", "130542.827500", "130544.827500", "130546.827500", "130548.827500", "130550.827500", "130552.827500", "130554.827500", "130556.827500", "130558.827500", "130600.827500", "130602.827500", "130604.827500", "130606.827500", "130608.827500", "130610.827500", "130612.827500", "130614.827500", "130616.827500", "130618.827500", "130620.827500", "130622.827500", "130624.827500", "130626.827500", "130628.827500", "130630.827500", "130632.827500", "130634.827500", "130636.827500", "130638.827500", "130640.827500", "130642.827500", "130644.827500", "130646.827500", "130648.827500", "130650.827500", "130652.827500", "130654.827500", "130656.827500", "130658.827500", "130700.827500", "130702.827500", "130704.827500", "130706.827500", "130708.827500", "130710.827500", "130712.827500", "130714.827500", "130716.827500", "130718.827500", "130720.827500", "130722.827500", "130724.827500", "130726.827500", "130728.827500", "130730.827500", "130732.827500", "130734.827500", "130736.827500", "130738.827500", "130740.827500", "130742.827500", "130744.827500", "130746.827500", "130748.827500", "130750.827500", "130752.827500", "130754.827500", "130756.827500"],
      "ContentTime": ["130017.486000", "130018.981000", "130020.980000", "130022.980000", "130024.982000", "130026.981000", "130028.981000", "130030.981000", "130032.981000", "130034.982000", "130036.980000", "130038.981000", "130040.980000", "130042.982000", "130044.981000", "130046.982000", "130048.982000", "130050.981000", "130052.981000", "130054.980000", "130056.980000", "130058.981000", "130100.981000", "130102.981000", "130104.981000", "130106.981000", "130108.981000", "130110.981000", "130112.981000", "130114.981000", "130116.981000", "130118.981000", "130120.981000", "130122.981000", "130124.981000", "130126.981000", "130128.981000", "130130.980000", "130132.980000", "130134.981000", "130136.981000", "130138.982000", "130140.981000", "130142.981000", "130144.981000", "130146.981000", "130148.980000", "130150.980000", "130152.981000", "130154.981000", "130156.981000", "130158.982000", "130200.981000", "130202.981000", "130204.980000", "130206.980000", "130208.980000", "130210.981000", "130212.981000", "130214.981000", "130216.981000", "130218.981000", "130220.981000", "130222.980000", "130224.980000", "130226.981000", "130228.981000", "130230.981000", "130232.981000", "130234.981000", "130236.981000", "130238.981000", "130240.981000", "130242.981000", "130244.981000", "130246.981000", "130248.981000", "130250.982000", "130252.982000", "130254.981000", "130256.980000", "130258.980000", "130300.980000", "130302.981000", "130304.981000", "130306.982000", "130308.981000", "130310.981000", "130312.981000", "130314.980000", "130316.980000", "130318.980000", "130320.981000", "130322.982000", "130324.981000", "130326.981000", "130328.981000", "130330.981000", "130332.980000", "130334.980000", "130336.981000", "130338.981000", "130340.981000", "130342.982000", "130344.981000", "130346.981000", "130348.981000", "130350.980000", "130352.980000", "130354.981000", "130356.981000", "130358.982000", "130400.982000", "130402.981000", "130404.981000", "130406.980000", "130408.981000", "130410.980000", "130412.981000", "130414.981000", "130416.981000", "130418.981000", "130420.981000", "130422.982000", "130424.980000", "130426.980000", "130428.980000", "130430.981000", "130432.981000", "130434.981000", "130436.981000", "130438.981000", "130440.981000", "130442.980000", "130444.980000", "130446.981000", "130448.981000", "130450.981000", "130452.982000", "130454.981000", "130456.981000", "130458.981000", "130500.981000", "130502.980000", "130504.981000", "130506.981000", "130508.981000", "130510.981000", "130512.981000", "130514.981000", "130516.980000", "130518.981000", "130520.980000", "130522.982000", "130524.981000", "130526.982000", "130528.981000", "130530.981000", "130532.981000", "130534.980000", "130536.981000", "130538.980000", "130540.982000", "130542.981000", "130544.981000", "130546.981000", "130548.981000", "130550.981000", "130552.980000", "130554.980000", "130556.981000", "130558.981000", "130600.982000", "130602.982000", "130604.981000", "130607.002000", "130608.981000", "130610.980000", "130612.980000", "130614.981000", "130616.981000", "130618.981000", "130620.981000", "130622.982000", "130624.981000", "130626.981000", "130628.980000", "130630.981000", "130632.981000", "130634.981000", "130636.981000", "130638.982000", "130640.982000", "130642.982000", "130644.981000", "130646.980000", "130648.980000", "130650.981000", "130652.982000", "130654.981000", "130656.982000", "130658.981000", "130700.982000", "130702.980000", "130704.980000", "130706.982000", "130708.981000", "130710.981000", "130712.981000", "130714.990000", "130716.981000", "130718.982000", "130720.980000", "130722.981000", "130724.982000", "130726.982000", "130728.981000", "130730.981000", "130732.981000", "130734.981000", "130736.981000", "130738.980000", "130740.981000", "130742.982000", "130744.982000", "130746.981000", "130748.981000", "130750.982000", "130752.982000", "130754.980000", "130756.981000", "130758.740000"],
      "InstanceCreationTime": ["130017.486000", "130018.981000", "130020.980000", "130022.980000", "130024.982000", "130026.981000", "130028.981000", "130030.981000", "130032.981000", "130034.982000", "130036.980000", "130038.981000", "130040.980000", "130042.982000", "130044.981000", "130046.982000", "130048.982000", "130050.981000", "130052.981000", "130054.980000", "130056.980000", "130058.981000", "130100.981000", "130102.981000", "130104.981000", "130106.981000", "130108.981000", "130110.981000", "130112.981000", "130114.981000", "130116.981000", "130118.981000", "130120.981000", "130122.981000", "130124.981000", "130126.981000", "130128.981000", "130130.980000", "130132.980000", "130134.981000", "130136.981000", "130138.982000", "130140.981000", "130142.981000", "130144.981000", "130146.981000", "130148.980000", "130150.980000", "130152.981000", "130154.981000", "130156.981000", "130158.982000", "130200.981000", "130202.981000", "130204.980000", "130206.980000", "130208.980000", "130210.981000", "130212.981000", "130214.981000", "130216.981000", "130218.981000", "130220.981000", "130222.980000", "130224.980000", "130226.981000", "130228.981000", "130230.981000", "130232.981000", "130234.981000", "130236.981000", "130238.981000", "130240.981000", "130242.981000", "130244.981000", "130246.981000", "130248.981000", "130250.982000", "130252.982000", "130254.981000", "130256.980000", "130258.980000", "130300.980000", "130302.981000", "130304.981000", "130306.982000", "130308.981000", "130310.981000", "130312.981000", "130314.980000", "130316.980000", "130318.980000", "130320.981000", "130322.982000", "130324.981000", "130326.981000", "130328.981000", "130330.981000", "130332.980000", "130334.980000", "130336.981000", "130338.981000", "130340.981000", "130342.982000", "130344.981000", "130346.981000", "130348.981000", "130350.980000", "130352.980000", "130354.981000", "130356.981000", "130358.982000", "130400.982000", "130402.981000", "130404.981000", "130406.980000", "130408.981000", "130410.980000", "130412.981000", "130414.981000", "130416.981000", "130418.981000", "130420.981000", "130422.982000", "130424.980000", "130426.980000", "130428.980000", "130430.981000", "130432.981000", "130434.981000", "130436.981000", "130438.981000", "130440.981000", "130442.980000", "130444.980000", "130446.981000", "130448.981000", "130450.981000", "130452.982000", "130454.981000", "130456.981000", "130458.981000", "130500.981000", "130502.980000", "130504.981000", "130506.981000", "130508.981000", "130510.981000", "130512.981000", "130514.981000", "130516.980000", "130518.981000", "130520.980000", "130522.982000", "130524.981000", "130526.982000", "130528.981000", "130530.981000", "130532.981000", "130534.980000", "130536.981000", "130538.980000", "130540.982000", "130542.981000", "130544.981000", "130546.981000", "130548.981000", "130550.981000", "130552.980000", "130554.980000", "130556.981000", "130558.981000", "130600.982000", "130602.982000", "130604.981000", "130607.002000", "130608.981000", "130610.980000", "130612.980000", "130614.981000", "130616.981000", "130618.981000", "130620.981000", "130622.982000", "130624.981000", "130626.981000", "130628.980000", "130630.981000", "130632.981000", "130634.981000", "130636.981000", "130638.982000", "130640.982000", "130642.982000", "130644.981000", "130646.980000", "130648.980000", "130650.981000", "130652.982000", "130654.981000", "130656.982000", "130658.981000", "130700.982000", "130702.980000", "130704.980000", "130706.982000", "130708.981000", "130710.981000", "130712.981000", "130714.990000", "130716.981000", "130718.982000", "130720.980000", "130722.981000", "130724.982000", "130726.982000", "130728.981000", "130730.981000", "130732.981000", "130734.981000", "130736.981000", "130738.980000", "130740.981000", "130742.982000", "130744.982000", "130746.981000", "130748.981000", "130750.982000", "130752.982000", "130754.980000", "130756.981000", "130758.740000"],
      "InstanceNumber": [1, 2, 3, 4, 5, 6, 7, 8, 9, 10, 11, 12, 13, 14, 15, 16, 17, 18, 19, 20, 21, 22, 23, 24, 25, 26, 27, 28, 29, 30, 31, 32, 33, 34, 35, 36, 37, 38, 39, 40, 41, 42, 43, 44, 45, 46, 47, 48, 49, 50, 51, 52, 53, 54, 55, 56, 57, 58, 59, 60, 61, 62, 63, 64, 65, 66, 67, 68, 69, 70, 71, 72, 73, 74, 75, 76, 77, 78, 79, 80, 81, 82, 83, 84, 85, 86, 87, 88, 89, 90, 91, 92, 93, 94, 95, 96, 97, 98, 99, 100, 101, 102, 103, 104, 105, 106, 107, 108, 109, 110, 111, 112, 113, 114, 115, 116, 117, 118, 119, 120, 121, 122, 123, 124, 125, 126, 127, 128, 129, 130, 131, 132, 133, 134, 135, 136, 137, 138, 139, 140, 141, 142, 143, 144, 145, 146, 147, 148, 149, 150, 151, 152, 153, 154, 155, 156, 157, 158, 159, 160, 161, 162, 163, 164, 165, 166, 167, 168, 169, 170, 171, 172, 173, 174, 175, 176, 177, 178, 179, 180, 181, 182, 183, 184, 185, 186, 187, 188, 189, 190, 191, 192, 193, 194, 195, 196, 197, 198, 199, 200, 201, 202, 203, 204, 205, 206, 207, 208, 209, 210, 211, 212, 213, 214, 215, 216, 217, 218, 219, 220, 221, 222, 223, 224, 225, 226, 227, 228, 229, 230, 231, 232],
      "LargestImagePixelValue": [3124, 3080, 3098, 3097, 3106, 3104, 3084, 3071, 3075, 3116, 3091, 3081, 3077, 3073, 3055, 3091, 3089, 3094, 3128, 3089, 3100, 3101, 3108, 3126, 3096, 3126, 3121, 3127, 3124, 3104, 3127, 3120, 3116, 3134, 3107, 3120, 3139, 3135, 3098, 3125, 3076, 3112, 3138, 3089, 3091, 3099, 3091, 3109, 3111, 3145, 3053, 3033, 3016, 3031, 3008, 3015, 3099, 3078, 3065, 3082, 3118, 3092, 3081, 3111, 3075, 3049, 3043, 3097, 3075, 3070, 3092, 3090, 3100, 3082, 3067, 3097, 3107, 3077, 3080, 3080, 3114, 3031, 3119, 3080, 3113, 3029, 3095, 3065, 3056, 3082, 3051, 3085, 3042, 3074, 3040, 3052, 3070, 3046, 3037, 3073, 3051, 3062, 3055, 3069, 3102, 3090, 3130, 3108, 3086, 3075, 3069, 3074, 3092, 3087, 3069, 3076, 3060, 3076, 3048, 3082, 3043, 3026, 3059, 3091, 3052, 3033, 3052, 3024, 3019, 3065, 3057, 3054, 3030, 3063, 3068, 3051, 3060, 3066, 3066, 3076, 3078, 3077, 3057, 3055, 3076, 3049, 3081, 3060, 3090, 3074, 3107, 3059, 3117, 3076, 3066, 3094, 3111, 3110, 3071, 3104, 3093, 3081, 3078, 3096, 3080, 3081, 3083, 3101, 3055, 3051, 3066, 3067, 3051, 3054, 3037, 3037, 3053, 3082, 3055, 3031, 3030, 3041, 3021, 3048, 3095, 3123, 3094, 3086, 3090, 3105, 3102, 3101, 3122, 3117, 3113, 3136, 3082, 3107, 3111, 3127, 3121, 3113, 3127, 3126, 3118, 3153, 3171, 3133, 3153, 3108, 3103, 3110, 3132, 3125, 3132, 3157, 3141, 3121, 3142, 3153, 3140, 3126, 3166, 3145, 3183, 3128, 3132, 3168, 3192, 3144, 3163, 3147],
      "WindowCenter": [759.0, 758.0, 757.0, 758.0, 758.0, 758.0, 757.0, 756.0, 756.0, 757.0, 757.0, 757.0, 757.0, 758.0, 758.0, 759.0, 759.0, 759.0, 758.0, 758.0, 758.0, 759.0, 758.0, 758.0, 758.0, 758.0, 758.0, 758.0, 759.0, 759.0, 760.0, 760.0, 760.0, 760.0, 760.0, 760.0, 760.0, 760.0, 759.0, 760.0, 759.0, 759.0, 760.0, 759.0, 759.0, 758.0, 757.0, 757.0, 757.0, 756.0, 755.0, 755.0, 754.0, 754.0, 753.0, 753.0, 754.0, 756.0, 757.0, 757.0, 757.0, 757.0, 756.0, 756.0, 754.0, 754.0, 754.0, 755.0, 755.0, 755.0, 757.0, 758.0, 758.0, 758.0, 758.0, 759.0, 760.0, 760.0, 760.0, 760.0, 760.0, 758.0, 758.0, 758.0, 758.0, 756.0, 756.0, 756.0, 756.0, 757.0, 757.0, 757.0, 758.0, 758.0, 759.0, 759.0, 758.0, 757.0, 758.0, 757.0, 757.0, 757.0, 756.0, 755.0, 758.0, 758.0, 759.0, 758.0, 758.0, 757.0, 757.0, 757.0, 757.0, 758.0, 757.0, 757.0, 757.0, 757.0, 757.0, 758.0, 759.0, 757.0, 758.0, 758.0, 757.0, 757.0, 757.0, 757.0, 758.0, 758.0, 758.0, 758.0, 758.0, 759.0, 759.0, 759.0, 759.0, 759.0, 759.0, 759.0, 759.0, 759.0, 758.0, 758.0, 758.0, 757.0, 757.0, 757.0, 758.0, 759.0, 758.0, 758.0, 758.0, 759.0, 759.0, 759.0, 759.0, 759.0, 758.0, 759.0, 760.0, 760.0, 760.0, 760.0, 759.0, 758.0, 759.0, 759.0, 759.0, 759.0, 758.0, 758.0, 757.0, 758.0, 757.0, 757.0, 756.0, 757.0, 757.0, 755.0, 756.0, 756.0, 755.0, 756.0, 756.0, 757.0, 758.0, 758.0, 758.0, 757.0, 758.0, 757.0, 757.0, 758.0, 758.0, 759.0, 758.0, 757.0, 758.0, 758.0, 758.0, 759.0, 760.0, 760.0, 759.0, 760.0, 760.0, 761.0, 762.0, 761.0, 761.0, 760.0, 761.0, 760.0, 760.0, 760.0, 759.0, 759.0, 759.0, 759.0, 759.0, 759.0, 759.0, 759.0, 760.0, 761.0, 760.0, 759.0, 759.0, 759.0, 759.0, 759.0],
      "WindowWidth": [1650.0, 1645.0, 1644.0, 1644.0, 1646.0, 1645.0, 1642.0, 1640.0, 1640.0, 1642.0, 1643.0, 1642.0, 1643.0, 1644.0, 1646.0, 1648.0, 1647.0, 1647.0, 1647.0, 1646.0, 1645.0, 1649.0, 1646.0, 1646.0, 1644.0, 1644.0, 1645.0, 1644.0, 1647.0, 1648.0, 1651.0, 1650.0, 1649.0, 1651.0, 1650.0, 1650.0, 1650.0, 1650.0, 1649.0, 1650.0, 1648.0, 1648.0, 1650.0, 1648.0, 1648.0, 1646.0, 1643.0, 1642.0, 1641.0, 1640.0, 1637.0, 1637.0, 1634.0, 1635.0, 1632.0, 1631.0, 1634.0, 1638.0, 1641.0, 1641.0, 1641.0, 1642.0, 1640.0, 1638.0, 1634.0, 1633.0, 1635.0, 1638.0, 1637.0, 1637.0, 1642.0, 1644.0, 1644.0, 1644.0, 1646.0, 1649.0, 1650.0, 1650.0, 1649.0, 1650.0, 1651.0, 1646.0, 1646.0, 1646.0, 1644.0, 1640.0, 1640.0, 1638.0, 1639.0, 1640.0, 1641.0, 1643.0, 1644.0, 1646.0, 1646.0, 1648.0, 1645.0, 1643.0, 1644.0, 1643.0, 1642.0, 1640.0, 1639.0, 1637.0, 1644.0, 1644.0, 1646.0, 1644.0, 1643.0, 1642.0, 1640.0, 1641.0, 1643.0, 1643.0, 1641.0, 1641.0, 1640.0, 1642.0, 1642.0, 1645.0, 1646.0, 1642.0, 1644.0, 1644.0, 1642.0, 1641.0, 1643.0, 1642.0, 1643.0, 1644.0, 1645.0, 1644.0, 1644.0, 1646.0, 1646.0, 1647.0, 1647.0, 1646.0, 1646.0, 1647.0, 1647.0, 1647.0, 1645.0, 1645.0, 1645.0, 1643.0, 1643.0, 1643.0, 1645.0, 1646.0, 1645.0, 1643.0, 1646.0, 1646.0, 1646.0, 1647.0, 1646.0, 1646.0, 1645.0, 1648.0, 1650.0, 1650.0, 1650.0, 1649.0, 1646.0, 1644.0, 1646.0, 1648.0, 1646.0, 1646.0, 1644.0, 1643.0, 1641.0, 1644.0, 1642.0, 1641.0, 1640.0, 1641.0, 1640.0, 1637.0, 1638.0, 1639.0, 1637.0, 1638.0, 1639.0, 1642.0, 1643.0, 1644.0, 1644.0, 1643.0, 1644.0, 1643.0, 1643.0, 1644.0, 1645.0, 1646.0, 1644.0, 1642.0, 1644.0, 1645.0, 1646.0, 1647.0, 1650.0, 1648.0, 1648.0, 1650.0, 1650.0, 1652.0, 1656.0, 1652.0, 1652.0, 1650.0, 1651.0, 1650.0, 1650.0, 1650.0, 1648.0, 1646.0, 1648.0, 1647.0, 1647.0, 1647.0, 1647.0, 1647.0, 1649.0, 1651.0, 1649.0, 1647.0, 1647.0, 1645.0, 1646.0, 1647.0]
    },
    "slices": {}
  }
}