{
  "AcquisitionMatrixPE": 100,
  "AcquisitionNumber": 1,
  "AcquisitionTime": "13:38:2.405000",
  "BandwidthPerPixelPhaseEncode": 18.519,
  "BaseResolution": 100,
  "BodyPartExamined": "BRAIN",
  "ConsistencyInfo": "N4_VE11C_LATEST_20160120",
  "ConversionSoftware": "dcm2niix",
  "ConversionSoftwareVersion": "v1.0.20180622 GCC4.9.2",
  "DerivedVendorReportedEchoSpacing": 0.000539986,
  "DeviceSerialNumber": "166078",
  "DwellTime": 2.1e-06,
  "EchoTime": 0.034,
  "EchoTrainLength": 100,
  "EffectiveEchoSpacing": 0.000539986,
  "FlipAngle": 90,
  "ImageOrientationPatientDICOM": [0.999999, -0.000252597, -0.0013121, -1.90629e-08, 0.981966, -0.189056],
  "ImageType": [
    "ORIGINAL",
    "PRIMARY",
    "M",
    "ND",
    "MOSAIC"
],
  "InPlanePhaseEncodingDirectionDICOM": "COL",
  "InstitutionAddress": "Street_StreetNo_Bei_Jing_District_CN_ZIP",
  "InstitutionName": "BeiJing_Normal_University",
  "InstitutionalDepartmentName": "Department",
  "MRAcquisitionType": "2D",
  "MagneticFieldStrength": 3,
  "Manufacturer": "Siemens",
  "ManufacturersModelName": "Prisma",
  "Modality": "MR",
  "MultibandAccelerationFactor": 3,
  "PartialFourier": 1,
  "PatientPosition": "HFS",
  "PercentPhaseFOV": 100,
  "PhaseEncodingDirection": "j-",
  "PhaseEncodingSteps": 100,
  "PhaseResolution": 1,
  "PixelBandwidth": 2380,
  "ProcedureStepDescription": "BNU_P2018_64CH_Liu.Jia",
  "ProtocolName": "bold_100x100_s3_2x2x2_232",
  "PulseSequenceDetails": "%SiemensSeq%_ep2d_bold",
  "ReceiveCoilActiveElements": "HC1-7;NC1",
  "ReceiveCoilName": "HeadNeck_64",
  "ReconMatrixPE": 100,
  "RepetitionTime": 2,
  "SAR": 0.0709538,
  "ScanOptions": "FS",
  "ScanningSequence": "EP",
  "SequenceName": "_epfid2d1_100",
  "SequenceVariant": "SK",
  "SeriesDescription": "bold_100x100_s3_2x2x2_232",
  "SeriesNumber": 10,
  "ShimSetting": [-5467, -11509, -1286, 358, -43, -220, -174, 81],
  "SliceThickness": 2,
  "SliceTiming": [1.485, 0, 0.99, 0.0825, 1.0725, 0.165, 1.155, 0.2475, 1.2375, 0.33, 1.32, 0.4125, 1.4025, 0.5775, 1.5675, 0.66, 1.65, 0.7425, 1.7325, 0.825, 1.815, 0.9075, 1.8975, 0.495, 1.485, 0, 0.99, 0.0825, 1.0725, 0.165, 1.155, 0.2475, 1.2375, 0.33, 1.32, 0.4125, 1.4025, 0.5775, 1.5675, 0.66, 1.65, 0.7425, 1.7325, 0.825, 1.815, 0.9075, 1.8975, 0.495, 1.485, 0, 0.99, 0.0825, 1.0725, 0.165, 1.155, 0.2475, 1.2375, 0.33, 1.32, 0.4125, 1.4025, 0.5775, 1.5675, 0.66, 1.65, 0.7425, 1.7325, 0.825, 1.815, 0.9075, 1.8975, 0.495],
  "SoftwareVersions": "syngo_MR_E11",
  "SpacingBetweenSlices": 2,
  "StationName": "AWP166078",
  "TaskName": "motor",
  "TotalReadoutTime": 0.0534586,
  "TxRefAmp": 215.891,
  "dcmmeta_affine": [
    [-1.9999982118606567, -3.812573368122685e-08, -0.0026723803021013737, 105.41484832763672],
    [0.0005051930784247816, 1.9639325141906738, -0.3781123757362366, -74.07463073730469],
    [-0.0026241946034133434, 0.3781127333641052, 1.9639307260513306, -93.8393325805664],
    [0.0, 0.0, 0.0, 1.0]
],
  "dcmmeta_reorient_transform": [
    [0.0, -1.0, 0.0, 99.0],
    [1.0, 0.0, 0.0, 0.0],
    [0.0, 0.0, 1.0, 0.0],
    [0.0, 0.0, 0.0, 1.0]
],
  "dcmmeta_shape": [100, 100, 72, 232],
  "dcmmeta_slice_dim": 2,
  "dcmmeta_version": 0.6,
  "global": {
    "const": {
      "AcquisitionMatrix": [100, 0, 0, 100],
      "AngioFlag": "N",
      "BitsAllocated": 16,
      "BitsStored": 12,
      "BodyPartExamined": "BRAIN",
      "Columns": 900,
      "EchoNumbers": 1,
      "EchoTime": 34.0,
      "EchoTrainLength": 100,
      "FlipAngle": 90.0,
      "HighBit": 11,
      "ImageOrientationPatient": [0.99999910729746, -0.0002525965455, -0.0013120972792, -1.9062867e-08, 0.9819662371286, -0.1890563649801],
      "ImagePositionPatient": [-905.41411547681, -905.72559561662, 95.888599981181],
      "ImageType": [
        "ORIGINAL",
        "PRIMARY",
        "M",
        "ND",
        "MOSAIC"
],
      "ImagedNucleus": "1H",
      "ImagingFrequency": 123.257842,
      "InPlanePhaseEncodingDirection": "COL",
      "MRAcquisitionType": "2D",
      "MagneticFieldStrength": 3.0,
      "Manufacturer": "SIEMENS",
      "ManufacturerModelName": "Prisma",
      "Modality": "MR",
      "NumberOfAverages": 1.0,
      "NumberOfPhaseEncodingSteps": 100,
      "PercentPhaseFieldOfView": 100.0,
      "PercentSampling": 100.0,
      "PerformedProcedureStepStartTime": "124837.542000",
      "PhotometricInterpretation": "MONOCHROME2",
      "PixelBandwidth": 2380.0,
      "PixelRepresentation": 0,
      "PixelSpacing": [2.0, 2.0],
      "ProtocolName": "bold_100x100_s3_2x2x2_232",
      "RepetitionTime": 2000.0,
      "Rows": 900,
      "SAR": 0.070953753422,
      "SamplesPerPixel": 1,
      "ScanOptions": "FS",
      "ScanningSequence": "EP",
      "SequenceName": "*epfid2d1_100",
      "SequenceVariant": "SK",
      "SeriesDescription": "bold_100x100_s3_2x2x2_232",
      "SeriesNumber": 10,
      "SeriesTime": "133805.177000",
      "SliceLocation": -78.283557768377,
      "SliceThickness": 2.0,
      "SmallestImagePixelValue": 0,
      "SoftwareVersions": "syngo MR E11",
      "SpacingBetweenSlices": 1.9999999705857,
      "SpecificCharacterSet": "ISO_IR 100",
      "StudyID": "1",
      "StudyTime": "124837.470000",
      "TransmitCoilName": "Body",
      "VariableFlipAngleFlag": "N",
      "WindowCenterWidthExplanation": "Algo1",
      "dBdt": 0.0},
    "slices": {}
  },
  "time": {
    "samples": {
      "AcquisitionNumber": [1, 2, 3, 4, 5, 6, 7, 8, 9, 10, 11, 12, 13, 14, 15, 16, 17, 18, 19, 20, 21, 22, 23, 24, 25, 26, 27, 28, 29, 30, 31, 32, 33, 34, 35, 36, 37, 38, 39, 40, 41, 42, 43, 44, 45, 46, 47, 48, 49, 50, 51, 52, 53, 54, 55, 56, 57, 58, 59, 60, 61, 62, 63, 64, 65, 66, 67, 68, 69, 70, 71, 72, 73, 74, 75, 76, 77, 78, 79, 80, 81, 82, 83, 84, 85, 86, 87, 88, 89, 90, 91, 92, 93, 94, 95, 96, 97, 98, 99, 100, 101, 102, 103, 104, 105, 106, 107, 108, 109, 110, 111, 112, 113, 114, 115, 116, 117, 118, 119, 120, 121, 122, 123, 124, 125, 126, 127, 128, 129, 130, 131, 132, 133, 134, 135, 136, 137, 138, 139, 140, 141, 142, 143, 144, 145, 146, 147, 148, 149, 150, 151, 152, 153, 154, 155, 156, 157, 158, 159, 160, 161, 162, 163, 164, 165, 166, 167, 168, 169, 170, 171, 172, 173, 174, 175, 176, 177, 178, 179, 180, 181, 182, 183, 184, 185, 186, 187, 188, 189, 190, 191, 192, 193, 194, 195, 196, 197, 198, 199, 200, 201, 202, 203, 204, 205, 206, 207, 208, 209, 210, 211, 212, 213, 214, 215, 216, 217, 218, 219, 220, 221, 222, 223, 224, 225, 226, 227, 228, 229, 230, 231, 232],
      "AcquisitionTime": ["133802.405000", "133804.405000", "133806.405000", "133808.405000", "133810.405000", "133812.405000", "133814.405000", "133816.405000", "133818.405000", "133820.405000", "133822.405000", "133824.405000", "133826.405000", "133828.405000", "133830.405000", "133832.405000", "133834.405000", "133836.405000", "133838.405000", "133840.405000", "133842.405000", "133844.405000", "133846.405000", "133848.405000", "133850.405000", "133852.405000", "133854.405000", "133856.405000", "133858.405000", "133900.405000", "133902.405000", "133904.405000", "133906.405000", "133908.405000", "133910.405000", "133912.405000", "133914.405000", "133916.405000", "133918.405000", "133920.405000", "133922.405000", "133924.405000", "133926.405000", "133928.405000", "133930.405000", "133932.405000", "133934.405000", "133936.405000", "133938.405000", "133940.405000", "133942.405000", "133944.405000", "133946.405000", "133948.405000", "133950.405000", "133952.405000", "133954.405000", "133956.405000", "133958.405000", "134000.405000", "134002.405000", "134004.405000", "134006.405000", "134008.405000", "134010.405000", "134012.405000", "134014.405000", "134016.405000", "134018.405000", "134020.405000", "134022.405000", "134024.405000", "134026.405000", "134028.405000", "134030.405000", "134032.405000", "134034.405000", "134036.405000", "134038.405000", "134040.405000", "134042.405000", "134044.405000", "134046.405000", "134048.405000", "134050.405000", "134052.405000", "134054.405000", "134056.405000", "134058.405000", "134100.405000", "134102.405000", "134104.405000", "134106.405000", "134108.405000", "134110.405000", "134112.405000", "134114.405000", "134116.405000", "134118.405000", "134120.405000", "134122.405000", "134124.405000", "134126.405000", "134128.405000", "134130.405000", "134132.405000", "134134.405000", "134136.405000", "134138.405000", "134140.405000", "134142.405000", "134144.405000", "134146.405000", "134148.405000", "134150.405000", "134152.405000", "134154.405000", "134156.405000", "134158.405000", "134200.405000", "134202.405000", "134204.405000", "134206.405000", "134208.405000", "134210.405000", "134212.405000", "134214.405000", "134216.405000", "134218.405000", "134220.405000", "134222.405000", "134224.405000", "134226.405000", "134228.405000", "134230.405000", "134232.405000", "134234.405000", "134236.405000", "134238.405000", "134240.405000", "134242.405000", "134244.405000", "134246.405000", "134248.405000", "134250.405000", "134252.405000", "134254.405000", "134256.405000", "134258.405000", "134300.405000", "134302.405000", "134304.405000", "134306.405000", "134308.405000", "134310.405000", "134312.405000", "134314.405000", "134316.405000", "134318.405000", "134320.405000", "134322.405000", "134324.405000", "134326.405000", "134328.405000", "134330.405000", "134332.405000", "134334.405000", "134336.405000", "134338.405000", "134340.405000", "134342.405000", "134344.405000", "134346.405000", "134348.405000", "134350.405000", "134352.405000", "134354.405000", "134356.405000", "134358.405000", "134400.405000", "134402.405000", "134404.405000", "134406.405000", "134408.405000", "134410.405000", "134412.405000", "134414.405000", "134416.405000", "134418.405000", "134420.405000", "134422.405000", "134424.405000", "134426.405000", "134428.405000", "134430.405000", "134432.405000", "134434.405000", "134436.405000", "134438.405000", "134440.405000", "134442.405000", "134444.405000", "134446.405000", "134448.405000", "134450.405000", "134452.405000", "134454.405000", "134456.405000", "134458.405000", "134500.405000", "134502.405000", "134504.405000", "134506.405000", "134508.405000", "134510.405000", "134512.405000", "134514.405000", "134516.405000", "134518.405000", "134520.405000", "134522.405000", "134524.405000", "134526.405000", "134528.405000", "134530.405000", "134532.405000", "134534.405000", "134536.405000", "134538.405000", "134540.405000", "134542.405000", "134544.405000"],
      "ContentTime": ["133805.181000", "133806.677000", "133808.676000", "133810.676000", "133812.677000", "133814.676000", "133816.677000", "133818.678000", "133820.676000", "133822.676000", "133824.676000", "133826.676000", "133828.677000", "133830.677000", "133832.676000", "133834.677000", "133836.676000", "133838.676000", "133840.676000", "133842.676000", "133844.676000", "133846.676000", "133848.676000", "133851.176000", "133852.678000", "133854.677000", "133856.676000", "133858.676000", "133900.677000", "133902.676000", "133904.676000", "133906.676000", "133908.676000", "133910.677000", "133912.676000", "133914.676000", "133916.677000", "133918.676000", "133920.676000", "133922.676000", "133924.676000", "133926.677000", "133928.677000", "133930.676000", "133932.676000", "133934.676000", "133936.676000", "133938.676000", "133940.676000", "133942.676000", "133944.677000", "133946.676000", "133948.676000", "133950.676000", "133952.676000", "133954.676000", "133956.677000", "133958.676000", "134000.676000", "134002.678000", "134004.676000", "134006.676000", "134008.676000", "134010.677000", "134012.677000", "134014.677000", "134016.676000", "134018.676000", "134020.677000", "134022.676000", "134024.677000", "134026.677000", "134028.676000", "134030.677000", "134032.677000", "134034.677000", "134036.676000", "134038.678000", "134040.676000", "134042.676000", "134044.676000", "134046.676000", "134048.676000", "134050.676000", "134052.676000", "134054.676000", "134056.677000", "134058.676000", "134100.676000", "134102.676000", "134104.676000", "134106.676000", "134108.677000", "134110.676000", "134112.677000", "134114.676000", "134116.676000", "134118.676000", "134120.676000", "134122.677000", "134124.676000", "134126.676000", "134128.676000", "134130.677000", "134132.677000", "134134.677000", "134136.676000", "134138.676000", "134140.677000", "134142.676000", "134144.677000", "134146.676000", "134148.678000", "134150.676000", "134152.676000", "134154.676000", "134156.677000", "134158.676000", "134200.676000", "134202.676000", "134204.677000", "134206.676000", "134209.176000", "134210.676000", "134212.676000", "134214.676000", "134216.677000", "134218.677000", "134221.176000", "134222.677000", "134224.677000", "134226.677000", "134228.677000", "134230.676000", "134232.677000", "134234.676000", "134236.676000", "134238.677000", "134240.677000", "134242.676000", "134244.676000", "134246.676000", "134248.676000", "134250.677000", "134252.676000", "134254.676000", "134256.676000", "134258.677000", "134300.677000", "134302.677000", "134304.676000", "134306.676000", "134308.676000", "134310.677000", "134312.676000", "134314.677000", "134316.676000", "134318.676000", "134320.677000", "134322.676000", "134324.676000", "134326.676000", "134328.676000", "134330.677000", "134332.677000", "134334.677000", "134336.677000", "134338.676000", "134340.676000", "134342.677000", "134344.676000", "134346.677000", "134348.676000", "134350.678000", "134352.676000", "134354.676000", "134356.676000", "134358.676000", "134400.677000", "134402.677000", "134404.676000", "134406.677000", "134408.677000", "134410.676000", "134412.676000", "134414.676000", "134416.677000", "134418.677000", "134420.676000", "134422.676000", "134424.678000", "134426.676000", "134428.676000", "134430.676000", "134432.676000", "134434.677000", "134436.677000", "134438.676000", "134440.677000", "134442.677000", "134444.676000", "134446.677000", "134448.676000", "134450.677000", "134452.677000", "134454.676000", "134456.677000", "134458.676000", "134500.677000", "134502.676000", "134504.676000", "134506.676000", "134508.677000", "134510.677000", "134512.677000", "134514.676000", "134516.676000", "134518.677000", "134520.677000", "134522.676000", "134524.676000", "134526.677000", "134528.676000", "134530.676000", "134532.676000", "134534.678000", "134536.677000", "134538.676000", "134540.677000", "134542.676000", "134544.677000", "134546.571000"],
      "InstanceCreationTime": ["133805.181000", "133806.677000", "133808.676000", "133810.676000", "133812.677000", "133814.676000", "133816.677000", "133818.678000", "133820.676000", "133822.676000", "133824.676000", "133826.676000", "133828.677000", "133830.677000", "133832.676000", "133834.677000", "133836.676000", "133838.676000", "133840.676000", "133842.676000", "133844.676000", "133846.676000", "133848.676000", "133851.176000", "133852.678000", "133854.677000", "133856.676000", "133858.676000", "133900.677000", "133902.676000", "133904.676000", "133906.676000", "133908.676000", "133910.677000", "133912.676000", "133914.676000", "133916.677000", "133918.676000", "133920.676000", "133922.676000", "133924.676000", "133926.677000", "133928.677000", "133930.676000", "133932.676000", "133934.676000", "133936.676000", "133938.676000", "133940.676000", "133942.676000", "133944.677000", "133946.676000", "133948.676000", "133950.676000", "133952.676000", "133954.676000", "133956.677000", "133958.676000", "134000.676000", "134002.678000", "134004.676000", "134006.676000", "134008.676000", "134010.677000", "134012.677000", "134014.677000", "134016.676000", "134018.676000", "134020.677000", "134022.676000", "134024.677000", "134026.677000", "134028.676000", "134030.677000", "134032.677000", "134034.677000", "134036.676000", "134038.678000", "134040.676000", "134042.676000", "134044.676000", "134046.676000", "134048.676000", "134050.676000", "134052.676000", "134054.676000", "134056.677000", "134058.676000", "134100.676000", "134102.676000", "134104.676000", "134106.676000", "134108.677000", "134110.676000", "134112.677000", "134114.676000", "134116.676000", "134118.676000", "134120.676000", "134122.677000", "134124.676000", "134126.676000", "134128.676000", "134130.677000", "134132.677000", "134134.677000", "134136.676000", "134138.676000", "134140.677000", "134142.676000", "134144.677000", "134146.676000", "134148.678000", "134150.676000", "134152.676000", "134154.676000", "134156.677000", "134158.676000", "134200.676000", "134202.676000", "134204.677000", "134206.676000", "134209.176000", "134210.676000", "134212.676000", "134214.676000", "134216.677000", "134218.677000", "134221.176000", "134222.677000", "134224.677000", "134226.677000", "134228.677000", "134230.676000", "134232.677000", "134234.676000", "134236.676000", "134238.677000", "134240.677000", "134242.676000", "134244.676000", "134246.676000", "134248.676000", "134250.677000", "134252.676000", "134254.676000", "134256.676000", "134258.677000", "134300.677000", "134302.677000", "134304.676000", "134306.676000", "134308.676000", "134310.677000", "134312.676000", "134314.677000", "134316.676000", "134318.676000", "134320.677000", "134322.676000", "134324.676000", "134326.676000", "134328.676000", "134330.677000", "134332.677000", "134334.677000", "134336.677000", "134338.676000", "134340.676000", "134342.677000", "134344.676000", "134346.677000", "134348.676000", "134350.678000", "134352.676000", "134354.676000", "134356.676000", "134358.676000", "134400.677000", "134402.677000", "134404.676000", "134406.677000", "134408.677000", "134410.676000", "134412.676000", "134414.676000", "134416.677000", "134418.677000", "134420.676000", "134422.676000", "134424.678000", "134426.676000", "134428.676000", "134430.676000", "134432.676000", "134434.677000", "134436.677000", "134438.676000", "134440.677000", "134442.677000", "134444.676000", "134446.677000", "134448.676000", "134450.677000", "134452.677000", "134454.676000", "134456.677000", "134458.676000", "134500.677000", "134502.676000", "134504.676000", "134506.676000", "134508.677000", "134510.677000", "134512.677000", "134514.676000", "134516.676000", "134518.677000", "134520.677000", "134522.676000", "134524.676000", "134526.677000", "134528.676000", "134530.676000", "134532.676000", "134534.678000", "134536.677000", "134538.676000", "134540.677000", "134542.676000", "134544.677000", "134546.571000"],
      "InstanceNumber": [1, 2, 3, 4, 5, 6, 7, 8, 9, 10, 11, 12, 13, 14, 15, 16, 17, 18, 19, 20, 21, 22, 23, 24, 25, 26, 27, 28, 29, 30, 31, 32, 33, 34, 35, 36, 37, 38, 39, 40, 41, 42, 43, 44, 45, 46, 47, 48, 49, 50, 51, 52, 53, 54, 55, 56, 57, 58, 59, 60, 61, 62, 63, 64, 65, 66, 67, 68, 69, 70, 71, 72, 73, 74, 75, 76, 77, 78, 79, 80, 81, 82, 83, 84, 85, 86, 87, 88, 89, 90, 91, 92, 93, 94, 95, 96, 97, 98, 99, 100, 101, 102, 103, 104, 105, 106, 107, 108, 109, 110, 111, 112, 113, 114, 115, 116, 117, 118, 119, 120, 121, 122, 123, 124, 125, 126, 127, 128, 129, 130, 131, 132, 133, 134, 135, 136, 137, 138, 139, 140, 141, 142, 143, 144, 145, 146, 147, 148, 149, 150, 151, 152, 153, 154, 155, 156, 157, 158, 159, 160, 161, 162, 163, 164, 165, 166, 167, 168, 169, 170, 171, 172, 173, 174, 175, 176, 177, 178, 179, 180, 181, 182, 183, 184, 185, 186, 187, 188, 189, 190, 191, 192, 193, 194, 195, 196, 197, 198, 199, 200, 201, 202, 203, 204, 205, 206, 207, 208, 209, 210, 211, 212, 213, 214, 215, 216, 217, 218, 219, 220, 221, 222, 223, 224, 225, 226, 227, 228, 229, 230, 231, 232],
      "LargestImagePixelValue": [3301, 3215, 3191, 3170, 3134, 3145, 3138, 3155, 3164, 3189, 3165, 3160, 3152, 3145, 3118, 3160, 3173, 3156, 3164, 3118, 3129, 3152, 3121, 3106, 3147, 3133, 3156, 3142, 3127, 3153, 3151, 3141, 3109, 3132, 3122, 3156, 3150, 3158, 3126, 3157, 3104, 3184, 3141, 3143, 3168, 3180, 3159, 3162, 3144, 3157, 3134, 3165, 3143, 3172, 3151, 3115, 3142, 3155, 3177, 3176, 3176, 3186, 3190, 3178, 3178, 3186, 3190, 3187, 3194, 3172, 3268, 3180, 3229, 3183, 3180, 3183, 3180, 3176, 3169, 3178, 3161, 3158, 3156, 3165, 3152, 3171, 3167, 3184, 3176, 3159, 3171, 3174, 3156, 3180, 3213, 3167, 3156, 3185, 3175, 3147, 3133, 3172, 3146, 3151, 3157, 3100, 3131, 3129, 3136, 3169, 3164, 3168, 3124, 3148, 3179, 3132, 3155, 3129, 3172, 3137, 3132, 3105, 3112, 3121, 3116, 3143, 3154, 3139, 3133, 3144, 3123, 3090, 3101, 3094, 3065, 3110, 3066, 3091, 3081, 3091, 3123, 3136, 3119, 3098, 3115, 3087, 3097, 3095, 3077, 3097, 3085, 3125, 3125, 3111, 3092, 3127, 3135, 3157, 3139, 3163, 3108, 3089, 3158, 3125, 3176, 3135, 3206, 3176, 3179, 3135, 3115, 3122, 3124, 3070, 3113, 3166, 3097, 3139, 3139, 3153, 3166, 3149, 3160, 3175, 3145, 3203, 3187, 3176, 3156, 3170, 3152, 3178, 3156, 3155, 3124, 3127, 3110, 3145, 3169, 3149, 3124, 3108, 3081, 3120, 3150, 3142, 3153, 3166, 3150, 3138, 3135, 3148, 3146, 3143, 3115, 3128, 3149, 3116, 3126, 3129, 3168, 3141, 3196, 3183, 3155, 3150, 3171, 3134, 3175, 3176, 3162, 3165],
      "WindowCenter": [765.0, 763.0, 762.0, 763.0, 763.0, 763.0, 763.0, 763.0, 763.0, 764.0, 763.0, 762.0, 762.0, 762.0, 761.0, 761.0, 762.0, 762.0, 763.0, 764.0, 764.0, 765.0, 764.0, 763.0, 764.0, 765.0, 765.0, 765.0, 763.0, 763.0, 763.0, 762.0, 762.0, 762.0, 763.0, 764.0, 763.0, 763.0, 763.0, 764.0, 763.0, 764.0, 764.0, 763.0, 763.0, 762.0, 762.0, 762.0, 762.0, 763.0, 763.0, 764.0, 764.0, 763.0, 763.0, 762.0, 762.0, 763.0, 763.0, 763.0, 762.0, 762.0, 762.0, 761.0, 761.0, 760.0, 760.0, 760.0, 759.0, 759.0, 760.0, 759.0, 760.0, 761.0, 761.0, 761.0, 762.0, 762.0, 762.0, 763.0, 763.0, 764.0, 764.0, 763.0, 763.0, 762.0, 762.0, 762.0, 762.0, 762.0, 763.0, 763.0, 762.0, 761.0, 761.0, 761.0, 761.0, 762.0, 763.0, 763.0, 764.0, 763.0, 762.0, 762.0, 762.0, 763.0, 764.0, 763.0, 762.0, 762.0, 761.0, 761.0, 762.0, 762.0, 763.0, 762.0, 762.0, 762.0, 763.0, 763.0, 763.0, 762.0, 763.0, 762.0, 761.0, 761.0, 761.0, 761.0, 760.0, 760.0, 761.0, 761.0, 761.0, 761.0, 761.0, 762.0, 763.0, 763.0, 763.0, 763.0, 762.0, 762.0, 762.0, 762.0, 762.0, 762.0, 763.0, 763.0, 763.0, 763.0, 763.0, 764.0, 764.0, 764.0, 763.0, 763.0, 763.0, 763.0, 763.0, 764.0, 762.0, 762.0, 763.0, 763.0, 762.0, 761.0, 761.0, 761.0, 761.0, 763.0, 764.0, 764.0, 765.0, 765.0, 765.0, 765.0, 763.0, 763.0, 761.0, 761.0, 761.0, 761.0, 762.0, 762.0, 763.0, 764.0, 763.0, 763.0, 762.0, 762.0, 762.0, 762.0, 762.0, 763.0, 763.0, 764.0, 764.0, 763.0, 762.0, 762.0, 761.0, 762.0, 762.0, 762.0, 761.0, 760.0, 760.0, 760.0, 761.0, 760.0, 760.0, 760.0, 760.0, 761.0, 760.0, 760.0, 761.0, 762.0, 761.0, 761.0, 760.0, 760.0, 760.0, 760.0, 760.0, 762.0, 763.0, 764.0, 765.0, 763.0, 762.0, 761.0],
      "WindowWidth": [1663.0, 1657.0, 1655.0, 1656.0, 1656.0, 1657.0, 1657.0, 1657.0, 1658.0, 1659.0, 1657.0, 1655.0, 1655.0, 1653.0, 1651.0, 1652.0, 1654.0, 1654.0, 1658.0, 1659.0, 1660.0, 1662.0, 1661.0, 1659.0, 1660.0, 1662.0, 1663.0, 1661.0, 1658.0, 1658.0, 1657.0, 1655.0, 1653.0, 1655.0, 1657.0, 1659.0, 1658.0, 1658.0, 1657.0, 1661.0, 1658.0, 1662.0, 1659.0, 1656.0, 1656.0, 1655.0, 1655.0, 1654.0, 1653.0, 1657.0, 1657.0, 1659.0, 1658.0, 1657.0, 1657.0, 1655.0, 1655.0, 1657.0, 1656.0, 1656.0, 1654.0, 1653.0, 1653.0, 1652.0, 1651.0, 1649.0, 1649.0, 1649.0, 1647.0, 1645.0, 1648.0, 1646.0, 1648.0, 1651.0, 1651.0, 1652.0, 1653.0, 1654.0, 1655.0, 1657.0, 1657.0, 1658.0, 1659.0, 1657.0, 1655.0, 1655.0, 1653.0, 1654.0, 1654.0, 1653.0, 1656.0, 1656.0, 1653.0, 1652.0, 1652.0, 1652.0, 1652.0, 1653.0, 1656.0, 1657.0, 1659.0, 1656.0, 1654.0, 1654.0, 1655.0, 1656.0, 1658.0, 1656.0, 1655.0, 1653.0, 1650.0, 1651.0, 1653.0, 1654.0, 1656.0, 1654.0, 1655.0, 1654.0, 1656.0, 1656.0, 1656.0, 1654.0, 1655.0, 1653.0, 1651.0, 1650.0, 1650.0, 1650.0, 1649.0, 1648.0, 1651.0, 1652.0, 1652.0, 1651.0, 1652.0, 1656.0, 1656.0, 1656.0, 1656.0, 1655.0, 1654.0, 1655.0, 1654.0, 1653.0, 1655.0, 1655.0, 1655.0, 1657.0, 1657.0, 1658.0, 1658.0, 1659.0, 1659.0, 1659.0, 1657.0, 1657.0, 1656.0, 1656.0, 1657.0, 1658.0, 1655.0, 1654.0, 1656.0, 1655.0, 1654.0, 1651.0, 1651.0, 1650.0, 1652.0, 1655.0, 1658.0, 1660.0, 1662.0, 1662.0, 1663.0, 1660.0, 1656.0, 1656.0, 1652.0, 1651.0, 1651.0, 1652.0, 1654.0, 1655.0, 1655.0, 1658.0, 1656.0, 1655.0, 1654.0, 1654.0, 1653.0, 1654.0, 1655.0, 1656.0, 1657.0, 1658.0, 1658.0, 1657.0, 1655.0, 1653.0, 1652.0, 1654.0, 1653.0, 1654.0, 1651.0, 1649.0, 1649.0, 1650.0, 1650.0, 1648.0, 1647.0, 1648.0, 1650.0, 1650.0, 1649.0, 1650.0, 1651.0, 1652.0, 1650.0, 1650.0, 1649.0, 1647.0, 1649.0, 1648.0, 1649.0, 1653.0, 1657.0, 1661.0, 1661.0, 1657.0, 1652.0, 1651.0]
    },
    "slices": {}
  }
}