{
  "AcquisitionMatrixPE": 100,
  "AcquisitionNumber": 1,
  "AcquisitionTime": "13:09:5.475000",
  "BandwidthPerPixelPhaseEncode": 18.519,
  "BaseResolution": 100,
  "BodyPartExamined": "BRAIN",
  "ConsistencyInfo": "N4_VE11C_LATEST_20160120",
  "ConversionSoftware": "dcm2niix",
  "ConversionSoftwareVersion": "v1.0.20180622 GCC4.9.2",
  "DerivedVendorReportedEchoSpacing": 0.000539986,
  "DeviceSerialNumber": "166078",
  "DwellTime": 2.1e-06,
  "EchoTime": 0.034,
  "EchoTrainLength": 100,
  "EffectiveEchoSpacing": 0.000539986,
  "FlipAngle": 90,
  "ImageOrientationPatientDICOM": [0.999999, -0.000252597, -0.0013121, -1.90629e-08, 0.981966, -0.189056],
  "ImageType": [
    "ORIGINAL",
    "PRIMARY",
    "M",
    "ND",
    "MOSAIC"
],
  "InPlanePhaseEncodingDirectionDICOM": "COL",
  "InstitutionAddress": "Street_StreetNo_Bei_Jing_District_CN_ZIP",
  "InstitutionName": "BeiJing_Normal_University",
  "InstitutionalDepartmentName": "Department",
  "MRAcquisitionType": "2D",
  "MagneticFieldStrength": 3,
  "Manufacturer": "Siemens",
  "ManufacturersModelName": "Prisma",
  "Modality": "MR",
  "MultibandAccelerationFactor": 3,
  "PartialFourier": 1,
  "PatientPosition": "HFS",
  "PercentPhaseFOV": 100,
  "PhaseEncodingDirection": "j-",
  "PhaseEncodingSteps": 100,
  "PhaseResolution": 1,
  "PixelBandwidth": 2380,
  "ProcedureStepDescription": "BNU_P2018_64CH_Liu.Jia",
  "ProtocolName": "bold_100x100_s3_2x2x2_232",
  "PulseSequenceDetails": "%SiemensSeq%_ep2d_bold",
  "ReceiveCoilActiveElements": "HC1-7;NC1",
  "ReceiveCoilName": "HeadNeck_64",
  "ReconMatrixPE": 100,
  "RepetitionTime": 2,
  "SAR": 0.0709538,
  "ScanOptions": "FS",
  "ScanningSequence": "EP",
  "SequenceName": "_epfid2d1_100",
  "SequenceVariant": "SK",
  "SeriesDescription": "bold_100x100_s3_2x2x2_232",
  "SeriesNumber": 5,
  "ShimSetting": [-5467, -11509, -1286, 358, -43, -220, -174, 81],
  "SliceThickness": 2,
  "SliceTiming": [1.485, 0, 0.99, 0.0825, 1.0725, 0.165, 1.155, 0.2475, 1.2375, 0.33, 1.32, 0.4125, 1.4025, 0.5775, 1.5675, 0.66, 1.65, 0.7425, 1.7325, 0.825, 1.815, 0.9075, 1.8975, 0.495, 1.485, 0, 0.99, 0.0825, 1.0725, 0.165, 1.155, 0.2475, 1.2375, 0.33, 1.32, 0.4125, 1.4025, 0.5775, 1.5675, 0.66, 1.65, 0.7425, 1.7325, 0.825, 1.815, 0.9075, 1.8975, 0.495, 1.485, 0, 0.99, 0.0825, 1.0725, 0.165, 1.155, 0.2475, 1.2375, 0.33, 1.32, 0.4125, 1.4025, 0.5775, 1.5675, 0.66, 1.65, 0.7425, 1.7325, 0.825, 1.815, 0.9075, 1.8975, 0.495],
  "SoftwareVersions": "syngo_MR_E11",
  "SpacingBetweenSlices": 2,
  "StationName": "AWP166078",
  "TaskName": "motor",
  "TotalReadoutTime": 0.0534586,
  "TxRefAmp": 215.891,
  "dcmmeta_affine": [
    [-1.9999982118606567, -3.812573368122685e-08, -0.0026723803021013737, 105.41484832763672],
    [0.0005051930784247816, 1.9639325141906738, -0.3781123757362366, -74.07463073730469],
    [-0.0026241946034133434, 0.3781127333641052, 1.9639307260513306, -93.8393325805664],
    [0.0, 0.0, 0.0, 1.0]
],
  "dcmmeta_reorient_transform": [
    [0.0, -1.0, 0.0, 99.0],
    [1.0, 0.0, 0.0, 0.0],
    [0.0, 0.0, 1.0, 0.0],
    [0.0, 0.0, 0.0, 1.0]
],
  "dcmmeta_shape": [100, 100, 72, 232],
  "dcmmeta_slice_dim": 2,
  "dcmmeta_version": 0.6,
  "global": {
    "const": {
      "AcquisitionMatrix": [100, 0, 0, 100],
      "AngioFlag": "N",
      "BitsAllocated": 16,
      "BitsStored": 12,
      "BodyPartExamined": "BRAIN",
      "Columns": 900,
      "EchoNumbers": 1,
      "EchoTime": 34.0,
      "EchoTrainLength": 100,
      "FlipAngle": 90.0,
      "HighBit": 11,
      "ImageOrientationPatient": [0.99999910729746, -0.0002525965455, -0.0013120972792, -1.9062867e-08, 0.9819662371286, -0.1890563649801],
      "ImagePositionPatient": [-905.41411547681, -905.72559561662, 95.888599981181],
      "ImageType": [
        "ORIGINAL",
        "PRIMARY",
        "M",
        "ND",
        "MOSAIC"
],
      "ImagedNucleus": "1H",
      "ImagingFrequency": 123.257836,
      "InPlanePhaseEncodingDirection": "COL",
      "MRAcquisitionType": "2D",
      "MagneticFieldStrength": 3.0,
      "Manufacturer": "SIEMENS",
      "ManufacturerModelName": "Prisma",
      "Modality": "MR",
      "NumberOfAverages": 1.0,
      "NumberOfPhaseEncodingSteps": 100,
      "PercentPhaseFieldOfView": 100.0,
      "PercentSampling": 100.0,
      "PerformedProcedureStepStartTime": "124837.542000",
      "PhotometricInterpretation": "MONOCHROME2",
      "PixelBandwidth": 2380.0,
      "PixelRepresentation": 0,
      "PixelSpacing": [2.0, 2.0],
      "ProtocolName": "bold_100x100_s3_2x2x2_232",
      "RepetitionTime": 2000.0,
      "Rows": 900,
      "SAR": 0.070953753422,
      "SamplesPerPixel": 1,
      "ScanOptions": "FS",
      "ScanningSequence": "EP",
      "SequenceName": "*epfid2d1_100",
      "SequenceVariant": "SK",
      "SeriesDescription": "bold_100x100_s3_2x2x2_232",
      "SeriesNumber": 5,
      "SeriesTime": "130907.921000",
      "SliceLocation": -78.283557768377,
      "SliceThickness": 2.0,
      "SmallestImagePixelValue": 0,
      "SoftwareVersions": "syngo MR E11",
      "SpacingBetweenSlices": 1.9999999705857,
      "SpecificCharacterSet": "ISO_IR 100",
      "StudyID": "1",
      "StudyTime": "124837.470000",
      "TransmitCoilName": "Body",
      "VariableFlipAngleFlag": "N",
      "WindowCenterWidthExplanation": "Algo1",
      "dBdt": 0.0},
    "slices": {}
  },
  "time": {
    "samples": {
      "AcquisitionNumber": [1, 2, 3, 4, 5, 6, 7, 8, 9, 10, 11, 12, 13, 14, 15, 16, 17, 18, 19, 20, 21, 22, 23, 24, 25, 26, 27, 28, 29, 30, 31, 32, 33, 34, 35, 36, 37, 38, 39, 40, 41, 42, 43, 44, 45, 46, 47, 48, 49, 50, 51, 52, 53, 54, 55, 56, 57, 58, 59, 60, 61, 62, 63, 64, 65, 66, 67, 68, 69, 70, 71, 72, 73, 74, 75, 76, 77, 78, 79, 80, 81, 82, 83, 84, 85, 86, 87, 88, 89, 90, 91, 92, 93, 94, 95, 96, 97, 98, 99, 100, 101, 102, 103, 104, 105, 106, 107, 108, 109, 110, 111, 112, 113, 114, 115, 116, 117, 118, 119, 120, 121, 122, 123, 124, 125, 126, 127, 128, 129, 130, 131, 132, 133, 134, 135, 136, 137, 138, 139, 140, 141, 142, 143, 144, 145, 146, 147, 148, 149, 150, 151, 152, 153, 154, 155, 156, 157, 158, 159, 160, 161, 162, 163, 164, 165, 166, 167, 168, 169, 170, 171, 172, 173, 174, 175, 176, 177, 178, 179, 180, 181, 182, 183, 184, 185, 186, 187, 188, 189, 190, 191, 192, 193, 194, 195, 196, 197, 198, 199, 200, 201, 202, 203, 204, 205, 206, 207, 208, 209, 210, 211, 212, 213, 214, 215, 216, 217, 218, 219, 220, 221, 222, 223, 224, 225, 226, 227, 228, 229, 230, 231, 232],
      "AcquisitionTime": ["130905.475000", "130907.475000", "130909.475000", "130911.475000", "130913.475000", "130915.475000", "130917.475000", "130919.475000", "130921.475000", "130923.475000", "130925.475000", "130927.475000", "130929.475000", "130931.475000", "130933.475000", "130935.475000", "130937.475000", "130939.475000", "130941.475000", "130943.475000", "130945.475000", "130947.475000", "130949.475000", "130951.475000", "130953.475000", "130955.475000", "130957.475000", "130959.475000", "131001.475000", "131003.475000", "131005.475000", "131007.475000", "131009.475000", "131011.475000", "131013.475000", "131015.475000", "131017.475000", "131019.475000", "131021.475000", "131023.475000", "131025.475000", "131027.475000", "131029.475000", "131031.475000", "131033.475000", "131035.475000", "131037.475000", "131039.475000", "131041.475000", "131043.475000", "131045.475000", "131047.475000", "131049.475000", "131051.475000", "131053.475000", "131055.475000", "131057.475000", "131059.475000", "131101.475000", "131103.475000", "131105.475000", "131107.475000", "131109.475000", "131111.475000", "131113.475000", "131115.475000", "131117.475000", "131119.475000", "131121.475000", "131123.475000", "131125.475000", "131127.475000", "131129.475000", "131131.475000", "131133.475000", "131135.475000", "131137.475000", "131139.475000", "131141.475000", "131143.475000", "131145.475000", "131147.475000", "131149.475000", "131151.475000", "131153.475000", "131155.475000", "131157.475000", "131159.475000", "131201.475000", "131203.475000", "131205.475000", "131207.475000", "131209.475000", "131211.475000", "131213.475000", "131215.475000", "131217.475000", "131219.475000", "131221.475000", "131223.475000", "131225.475000", "131227.475000", "131229.475000", "131231.475000", "131233.475000", "131235.475000", "131237.475000", "131239.475000", "131241.475000", "131243.475000", "131245.475000", "131247.475000", "131249.475000", "131251.475000", "131253.475000", "131255.475000", "131257.475000", "131259.475000", "131301.475000", "131303.475000", "131305.475000", "131307.475000", "131309.475000", "131311.475000", "131313.475000", "131315.475000", "131317.475000", "131319.475000", "131321.475000", "131323.475000", "131325.475000", "131327.475000", "131329.475000", "131331.475000", "131333.475000", "131335.475000", "131337.475000", "131339.475000", "131341.475000", "131343.475000", "131345.475000", "131347.475000", "131349.475000", "131351.475000", "131353.475000", "131355.475000", "131357.475000", "131359.475000", "131401.475000", "131403.475000", "131405.475000", "131407.475000", "131409.475000", "131411.475000", "131413.475000", "131415.475000", "131417.475000", "131419.475000", "131421.475000", "131423.475000", "131425.475000", "131427.475000", "131429.475000", "131431.475000", "131433.475000", "131435.475000", "131437.475000", "131439.475000", "131441.475000", "131443.475000", "131445.475000", "131447.475000", "131449.475000", "131451.475000", "131453.475000", "131455.475000", "131457.475000", "131459.475000", "131501.475000", "131503.475000", "131505.475000", "131507.475000", "131509.475000", "131511.475000", "131513.475000", "131515.475000", "131517.475000", "131519.475000", "131521.475000", "131523.475000", "131525.475000", "131527.475000", "131529.475000", "131531.475000", "131533.475000", "131535.475000", "131537.475000", "131539.475000", "131541.475000", "131543.475000", "131545.475000", "131547.475000", "131549.475000", "131551.475000", "131553.475000", "131555.475000", "131557.475000", "131559.475000", "131601.475000", "131603.475000", "131605.475000", "131607.475000", "131609.475000", "131611.475000", "131613.475000", "131615.475000", "131617.475000", "131619.475000", "131621.475000", "131623.475000", "131625.475000", "131627.475000", "131629.475000", "131631.475000", "131633.475000", "131635.475000", "131637.475000", "131639.475000", "131641.475000", "131643.475000", "131645.475000", "131647.475000"],
      "ContentTime": ["130907.925000", "130909.421000", "130911.421000", "130913.420000", "130915.420000", "130917.420000", "130919.420000", "130921.420000", "130923.420000", "130925.420000", "130927.421000", "130929.921000", "130931.420000", "130933.421000", "130935.420000", "130937.420000", "130939.420000", "130941.420000", "130943.421000", "130945.421000", "130947.420000", "130949.421000", "130951.420000", "130953.421000", "130955.420000", "130957.920000", "130959.420000", "131001.420000", "131003.420000", "131005.420000", "131007.920000", "131009.420000", "131011.420000", "131013.420000", "131015.420000", "131017.920000", "131019.422000", "131021.421000", "131023.420000", "131025.421000", "131027.420000", "131029.420000", "131031.421000", "131033.420000", "131035.421000", "131037.421000", "131039.420000", "131041.421000", "131043.920000", "131045.420000", "131047.420000", "131049.421000", "131051.420000", "131053.420000", "131055.421000", "131057.421000", "131059.420000", "131101.420000", "131103.421000", "131105.420000", "131107.420000", "131109.420000", "131111.922000", "131113.421000", "131115.420000", "131117.420000", "131119.420000", "131121.921000", "131123.420000", "131125.421000", "131127.420000", "131129.422000", "131131.420000", "131133.420000", "131135.921000", "131137.420000", "131139.420000", "131141.420000", "131143.421000", "131145.421000", "131147.421000", "131149.421000", "131151.421000", "131153.420000", "131155.420000", "131157.920000", "131159.421000", "131201.420000", "131203.421000", "131205.421000", "131207.420000", "131209.420000", "131211.420000", "131213.421000", "131215.421000", "131217.421000", "131219.420000", "131221.421000", "131223.420000", "131225.420000", "131227.421000", "131229.420000", "131231.920000", "131233.420000", "131235.420000", "131237.420000", "131239.921000", "131241.420000", "131243.420000", "131245.420000", "131247.921000", "131249.421000", "131251.421000", "131253.421000", "131255.421000", "131257.921000", "131259.420000", "131301.420000", "131303.920000", "131305.420000", "131307.420000", "131309.420000", "131311.420000", "131313.420000", "131315.422000", "131317.420000", "131319.921000", "131321.421000", "131323.420000", "131325.420000", "131327.421000", "131329.420000", "131331.921000", "131333.420000", "131335.421000", "131337.421000", "131339.420000", "131341.420000", "131343.420000", "131345.420000", "131347.920000", "131349.421000", "131351.421000", "131353.420000", "131355.420000", "131357.420000", "131359.421000", "131401.421000", "131403.420000", "131405.920000", "131407.921000", "131409.921000", "131411.420000", "131413.420000", "131415.421000", "131417.421000", "131419.920000", "131421.420000", "131423.420000", "131425.422000", "131427.421000", "131429.420000", "131431.420000", "131433.921000", "131435.421000", "131437.421000", "131439.920000", "131441.421000", "131443.920000", "131445.420000", "131447.420000", "131449.420000", "131451.420000", "131453.420000", "131455.420000", "131457.420000", "131459.421000", "131501.421000", "131503.420000", "131505.421000", "131507.420000", "131509.420000", "131511.420000", "131513.420000", "131515.920000", "131517.421000", "131519.421000", "131521.421000", "131523.420000", "131525.420000", "131527.420000", "131529.420000", "131531.421000", "131533.421000", "131535.921000", "131537.421000", "131539.420000", "131541.421000", "131543.920000", "131545.421000", "131547.421000", "131549.421000", "131551.421000", "131553.420000", "131555.420000", "131557.420000", "131559.420000", "131601.920000", "131603.420000", "131605.421000", "131607.421000", "131609.422000", "131611.420000", "131613.420000", "131615.420000", "131617.420000", "131619.421000", "131621.421000", "131623.420000", "131625.420000", "131627.421000", "131629.421000", "131631.420000", "131633.920000", "131635.421000", "131637.420000", "131639.421000", "131641.421000", "131643.420000", "131645.421000", "131647.421000", "131649.376000"],
      "InstanceCreationTime": ["130907.925000", "130909.421000", "130911.421000", "130913.420000", "130915.420000", "130917.420000", "130919.420000", "130921.420000", "130923.420000", "130925.420000", "130927.421000", "130929.921000", "130931.420000", "130933.421000", "130935.420000", "130937.420000", "130939.420000", "130941.420000", "130943.421000", "130945.421000", "130947.420000", "130949.421000", "130951.420000", "130953.421000", "130955.420000", "130957.920000", "130959.420000", "131001.420000", "131003.420000", "131005.420000", "131007.920000", "131009.420000", "131011.420000", "131013.420000", "131015.420000", "131017.920000", "131019.422000", "131021.421000", "131023.420000", "131025.421000", "131027.420000", "131029.420000", "131031.421000", "131033.420000", "131035.421000", "131037.421000", "131039.420000", "131041.421000", "131043.920000", "131045.420000", "131047.420000", "131049.421000", "131051.420000", "131053.420000", "131055.421000", "131057.421000", "131059.420000", "131101.420000", "131103.421000", "131105.420000", "131107.420000", "131109.420000", "131111.922000", "131113.421000", "131115.420000", "131117.420000", "131119.420000", "131121.921000", "131123.420000", "131125.421000", "131127.420000", "131129.422000", "131131.420000", "131133.420000", "131135.921000", "131137.420000", "131139.420000", "131141.420000", "131143.421000", "131145.421000", "131147.421000", "131149.421000", "131151.421000", "131153.420000", "131155.420000", "131157.920000", "131159.421000", "131201.420000", "131203.421000", "131205.421000", "131207.420000", "131209.420000", "131211.420000", "131213.421000", "131215.421000", "131217.421000", "131219.420000", "131221.421000", "131223.420000", "131225.420000", "131227.421000", "131229.420000", "131231.920000", "131233.420000", "131235.420000", "131237.420000", "131239.921000", "131241.420000", "131243.420000", "131245.420000", "131247.921000", "131249.421000", "131251.421000", "131253.421000", "131255.421000", "131257.921000", "131259.420000", "131301.420000", "131303.920000", "131305.420000", "131307.420000", "131309.420000", "131311.420000", "131313.420000", "131315.422000", "131317.420000", "131319.921000", "131321.421000", "131323.420000", "131325.420000", "131327.421000", "131329.420000", "131331.921000", "131333.420000", "131335.421000", "131337.421000", "131339.420000", "131341.420000", "131343.420000", "131345.420000", "131347.920000", "131349.421000", "131351.421000", "131353.420000", "131355.420000", "131357.420000", "131359.421000", "131401.421000", "131403.420000", "131405.920000", "131407.921000", "131409.921000", "131411.420000", "131413.420000", "131415.421000", "131417.421000", "131419.920000", "131421.420000", "131423.420000", "131425.422000", "131427.421000", "131429.420000", "131431.420000", "131433.921000", "131435.421000", "131437.421000", "131439.920000", "131441.421000", "131443.920000", "131445.420000", "131447.420000", "131449.420000", "131451.420000", "131453.420000", "131455.420000", "131457.420000", "131459.421000", "131501.421000", "131503.420000", "131505.421000", "131507.420000", "131509.420000", "131511.420000", "131513.420000", "131515.920000", "131517.421000", "131519.421000", "131521.421000", "131523.420000", "131525.420000", "131527.420000", "131529.420000", "131531.421000", "131533.421000", "131535.921000", "131537.421000", "131539.420000", "131541.421000", "131543.920000", "131545.421000", "131547.421000", "131549.421000", "131551.421000", "131553.420000", "131555.420000", "131557.420000", "131559.420000", "131601.920000", "131603.420000", "131605.421000", "131607.421000", "131609.422000", "131611.420000", "131613.420000", "131615.420000", "131617.420000", "131619.421000", "131621.421000", "131623.420000", "131625.420000", "131627.421000", "131629.421000", "131631.420000", "131633.920000", "131635.421000", "131637.420000", "131639.421000", "131641.421000", "131643.420000", "131645.421000", "131647.421000", "131649.376000"],
      "InstanceNumber": [1, 2, 3, 4, 5, 6, 7, 8, 9, 10, 11, 12, 13, 14, 15, 16, 17, 18, 19, 20, 21, 22, 23, 24, 25, 26, 27, 28, 29, 30, 31, 32, 33, 34, 35, 36, 37, 38, 39, 40, 41, 42, 43, 44, 45, 46, 47, 48, 49, 50, 51, 52, 53, 54, 55, 56, 57, 58, 59, 60, 61, 62, 63, 64, 65, 66, 67, 68, 69, 70, 71, 72, 73, 74, 75, 76, 77, 78, 79, 80, 81, 82, 83, 84, 85, 86, 87, 88, 89, 90, 91, 92, 93, 94, 95, 96, 97, 98, 99, 100, 101, 102, 103, 104, 105, 106, 107, 108, 109, 110, 111, 112, 113, 114, 115, 116, 117, 118, 119, 120, 121, 122, 123, 124, 125, 126, 127, 128, 129, 130, 131, 132, 133, 134, 135, 136, 137, 138, 139, 140, 141, 142, 143, 144, 145, 146, 147, 148, 149, 150, 151, 152, 153, 154, 155, 156, 157, 158, 159, 160, 161, 162, 163, 164, 165, 166, 167, 168, 169, 170, 171, 172, 173, 174, 175, 176, 177, 178, 179, 180, 181, 182, 183, 184, 185, 186, 187, 188, 189, 190, 191, 192, 193, 194, 195, 196, 197, 198, 199, 200, 201, 202, 203, 204, 205, 206, 207, 208, 209, 210, 211, 212, 213, 214, 215, 216, 217, 218, 219, 220, 221, 222, 223, 224, 225, 226, 227, 228, 229, 230, 231, 232],
      "LargestImagePixelValue": [3315, 3201, 3218, 3207, 3197, 3184, 3214, 3227, 3182, 3191, 3156, 3160, 3154, 3188, 3185, 3151, 3148, 3182, 3181, 3158, 3186, 3195, 3191, 3170, 3173, 3189, 3166, 3172, 3165, 3180, 3193, 3192, 3192, 3180, 3161, 3155, 3147, 3165, 3138, 3154, 3184, 3188, 3192, 3135, 3151, 3169, 3161, 3158, 3182, 3087, 3025, 3050, 3031, 3020, 3046, 3068, 3085, 3127, 3109, 3144, 3142, 3133, 3178, 3158, 3169, 3136, 3098, 3071, 3088, 3041, 3029, 3052, 3058, 2977, 3029, 3026, 3076, 3040, 3052, 3035, 3059, 3038, 3044, 3094, 3116, 3105, 3076, 3115, 3145, 3148, 3160, 3140, 3101, 3160, 3146, 3128, 3155, 3185, 3151, 3153, 3143, 3127, 3151, 3160, 3157, 3124, 3119, 3111, 3122, 3104, 3143, 3159, 3122, 3131, 3146, 3151, 3154, 3165, 3120, 3154, 3165, 3160, 3112, 3122, 3110, 3111, 3141, 3146, 3162, 3153, 3150, 3134, 3169, 3125, 3174, 3136, 3127, 3112, 3141, 3138, 3130, 3155, 3155, 3135, 3179, 3147, 3132, 3137, 3128, 3160, 3133, 3154, 3153, 3146, 3151, 3147, 3155, 3136, 3177, 3124, 3125, 3135, 3119, 3121, 3115, 3091, 3131, 3120, 3141, 3125, 3121, 3100, 3126, 3117, 3128, 3126, 3120, 3130, 3098, 3092, 3139, 3145, 3119, 3120, 3163, 3157, 3137, 3111, 3126, 3150, 3134, 3128, 3131, 3108, 3113, 3099, 3134, 3135, 3126, 3106, 3104, 3176, 3113, 3141, 3152, 3136, 3141, 3158, 3135, 3126, 3171, 3147, 3167, 3177, 3162, 3146, 3138, 3143, 3142, 3118, 3151, 3172, 3138, 3158, 3158, 3184, 3170, 3170, 3183, 3154, 3146, 3183],
      "WindowCenter": [763.0, 761.0, 761.0, 761.0, 761.0, 762.0, 762.0, 762.0, 762.0, 762.0, 763.0, 763.0, 763.0, 763.0, 763.0, 763.0, 762.0, 762.0, 762.0, 762.0, 761.0, 761.0, 761.0, 761.0, 761.0, 761.0, 761.0, 761.0, 761.0, 762.0, 761.0, 762.0, 761.0, 760.0, 761.0, 761.0, 762.0, 761.0, 760.0, 760.0, 761.0, 761.0, 761.0, 761.0, 761.0, 761.0, 760.0, 761.0, 761.0, 760.0, 757.0, 758.0, 758.0, 757.0, 758.0, 759.0, 760.0, 762.0, 761.0, 761.0, 761.0, 760.0, 760.0, 759.0, 758.0, 758.0, 757.0, 757.0, 757.0, 756.0, 755.0, 756.0, 756.0, 756.0, 756.0, 756.0, 756.0, 756.0, 757.0, 758.0, 757.0, 757.0, 758.0, 758.0, 759.0, 760.0, 760.0, 759.0, 759.0, 759.0, 758.0, 758.0, 757.0, 758.0, 757.0, 758.0, 758.0, 758.0, 758.0, 758.0, 758.0, 758.0, 759.0, 759.0, 760.0, 759.0, 759.0, 759.0, 759.0, 759.0, 759.0, 759.0, 759.0, 760.0, 760.0, 760.0, 760.0, 760.0, 760.0, 760.0, 760.0, 759.0, 758.0, 759.0, 758.0, 758.0, 757.0, 757.0, 758.0, 759.0, 760.0, 760.0, 760.0, 760.0, 762.0, 762.0, 761.0, 761.0, 760.0, 759.0, 759.0, 759.0, 759.0, 758.0, 760.0, 761.0, 761.0, 760.0, 760.0, 760.0, 759.0, 760.0, 760.0, 760.0, 761.0, 761.0, 761.0, 759.0, 760.0, 760.0, 759.0, 760.0, 759.0, 759.0, 758.0, 757.0, 758.0, 757.0, 758.0, 759.0, 758.0, 757.0, 757.0, 756.0, 755.0, 755.0, 757.0, 758.0, 758.0, 758.0, 758.0, 758.0, 758.0, 759.0, 759.0, 759.0, 759.0, 759.0, 758.0, 759.0, 758.0, 758.0, 759.0, 758.0, 759.0, 758.0, 759.0, 759.0, 758.0, 758.0, 758.0, 759.0, 759.0, 759.0, 760.0, 759.0, 759.0, 759.0, 758.0, 759.0, 760.0, 759.0, 759.0, 759.0, 759.0, 760.0, 760.0, 760.0, 761.0, 760.0, 759.0, 759.0, 759.0, 760.0, 759.0, 760.0, 760.0, 759.0, 760.0, 760.0, 760.0, 760.0],
      "WindowWidth": [1660.0, 1654.0, 1653.0, 1652.0, 1652.0, 1654.0, 1656.0, 1656.0, 1655.0, 1656.0, 1658.0, 1658.0, 1659.0, 1659.0, 1659.0, 1658.0, 1657.0, 1657.0, 1655.0, 1654.0, 1654.0, 1654.0, 1654.0, 1653.0, 1653.0, 1654.0, 1652.0, 1653.0, 1652.0, 1654.0, 1652.0, 1654.0, 1651.0, 1649.0, 1652.0, 1653.0, 1655.0, 1653.0, 1650.0, 1650.0, 1651.0, 1652.0, 1653.0, 1653.0, 1653.0, 1652.0, 1651.0, 1652.0, 1653.0, 1650.0, 1642.0, 1643.0, 1643.0, 1642.0, 1643.0, 1646.0, 1649.0, 1655.0, 1653.0, 1652.0, 1652.0, 1649.0, 1649.0, 1647.0, 1645.0, 1645.0, 1642.0, 1641.0, 1640.0, 1638.0, 1637.0, 1639.0, 1638.0, 1637.0, 1638.0, 1637.0, 1640.0, 1639.0, 1640.0, 1643.0, 1641.0, 1640.0, 1643.0, 1644.0, 1647.0, 1648.0, 1648.0, 1648.0, 1646.0, 1647.0, 1645.0, 1645.0, 1643.0, 1643.0, 1643.0, 1644.0, 1644.0, 1645.0, 1644.0, 1646.0, 1645.0, 1646.0, 1647.0, 1649.0, 1649.0, 1648.0, 1647.0, 1647.0, 1648.0, 1647.0, 1647.0, 1648.0, 1646.0, 1650.0, 1649.0, 1648.0, 1648.0, 1650.0, 1649.0, 1650.0, 1649.0, 1646.0, 1644.0, 1645.0, 1644.0, 1643.0, 1642.0, 1642.0, 1642.0, 1646.0, 1649.0, 1650.0, 1650.0, 1649.0, 1655.0, 1656.0, 1653.0, 1651.0, 1649.0, 1647.0, 1646.0, 1647.0, 1647.0, 1645.0, 1648.0, 1651.0, 1652.0, 1650.0, 1648.0, 1648.0, 1647.0, 1648.0, 1649.0, 1651.0, 1652.0, 1652.0, 1652.0, 1648.0, 1649.0, 1648.0, 1647.0, 1649.0, 1648.0, 1646.0, 1645.0, 1642.0, 1643.0, 1641.0, 1642.0, 1647.0, 1643.0, 1641.0, 1640.0, 1637.0, 1636.0, 1637.0, 1640.0, 1642.0, 1643.0, 1643.0, 1643.0, 1644.0, 1644.0, 1645.0, 1645.0, 1646.0, 1646.0, 1646.0, 1644.0, 1646.0, 1645.0, 1645.0, 1645.0, 1644.0, 1645.0, 1645.0, 1647.0, 1646.0, 1643.0, 1642.0, 1643.0, 1647.0, 1646.0, 1646.0, 1648.0, 1646.0, 1647.0, 1646.0, 1644.0, 1645.0, 1648.0, 1646.0, 1647.0, 1648.0, 1648.0, 1648.0, 1649.0, 1651.0, 1651.0, 1649.0, 1647.0, 1646.0, 1646.0, 1649.0, 1648.0, 1650.0, 1649.0, 1648.0, 1649.0, 1649.0, 1651.0, 1648.0]
    },
    "slices": {}
  }
}