{
  "AcquisitionMatrixPE": 100,
  "AcquisitionNumber": 1,
  "AcquisitionTime": "09:06:22.877500",
  "BandwidthPerPixelPhaseEncode": 18.519,
  "BaseResolution": 100,
  "BodyPartExamined": "BRAIN",
  "ConsistencyInfo": "N4_VE11C_LATEST_20160120",
  "ConversionSoftware": "dcm2niix",
  "ConversionSoftwareVersion": "v1.0.20180622 GCC4.9.2",
  "DerivedVendorReportedEchoSpacing": 0.000539986,
  "DeviceSerialNumber": "166078",
  "DwellTime": 2.1e-06,
  "EchoTime": 0.034,
  "EchoTrainLength": 100,
  "EffectiveEchoSpacing": 0.000539986,
  "FlipAngle": 90,
  "ImageOrientationPatientDICOM": [1, 0, 0, 0, 0.999976, -0.00698126],
  "ImageType": [
    "ORIGINAL",
    "PRIMARY",
    "M",
    "ND",
    "MOSAIC"
],
  "InPlanePhaseEncodingDirectionDICOM": "COL",
  "InstitutionAddress": "Street_StreetNo_Bei_Jing_District_CN_ZIP",
  "InstitutionName": "BeiJing_Normal_University",
  "InstitutionalDepartmentName": "Department",
  "MRAcquisitionType": "2D",
  "MagneticFieldStrength": 3,
  "Manufacturer": "Siemens",
  "ManufacturersModelName": "Prisma",
  "Modality": "MR",
  "MultibandAccelerationFactor": 3,
  "PartialFourier": 1,
  "PatientPosition": "HFS",
  "PercentPhaseFOV": 100,
  "PhaseEncodingDirection": "j-",
  "PhaseEncodingSteps": 100,
  "PhaseResolution": 1,
  "PixelBandwidth": 2380,
  "ProcedureStepDescription": "BNU_P2018_64CH_Liu.Jia",
  "ProtocolName": "bold_100x100_s3_2x2x2_232",
  "PulseSequenceDetails": "%SiemensSeq%_ep2d_bold",
  "ReceiveCoilActiveElements": "HC1-7;NC1",
  "ReceiveCoilName": "HeadNeck_64",
  "ReconMatrixPE": 100,
  "RepetitionTime": 2,
  "SAR": 0.0643805,
  "ScanOptions": "FS",
  "ScanningSequence": "EP",
  "SequenceName": "_epfid2d1_100",
  "SequenceVariant": "SK",
  "SeriesDescription": "bold_100x100_s3_2x2x2_232",
  "SeriesNumber": 4,
  "ShimSetting": [-5460, -11512, -1260, 286, 24, -282, -117, 75],
  "SliceThickness": 2,
  "SliceTiming": [1.485, 0, 0.99, 0.0825, 1.0725, 0.165, 1.155, 0.2475, 1.2375, 0.33, 1.32, 0.4125, 1.4025, 0.5775, 1.5675, 0.66, 1.65, 0.7425, 1.7325, 0.825, 1.815, 0.9075, 1.8975, 0.495, 1.485, 0, 0.99, 0.0825, 1.0725, 0.165, 1.155, 0.2475, 1.2375, 0.33, 1.32, 0.4125, 1.4025, 0.5775, 1.5675, 0.66, 1.65, 0.7425, 1.7325, 0.825, 1.815, 0.9075, 1.8975, 0.495, 1.485, 0, 0.99, 0.0825, 1.0725, 0.165, 1.155, 0.2475, 1.2375, 0.33, 1.32, 0.4125, 1.4025, 0.5775, 1.5675, 0.66, 1.65, 0.7425, 1.7325, 0.825, 1.815, 0.9075, 1.8975, 0.495],
  "SoftwareVersions": "syngo_MR_E11",
  "SpacingBetweenSlices": 2,
  "StationName": "AWP166078",
  "TaskName": "motor",
  "TotalReadoutTime": 0.0534586,
  "TxRefAmp": 209.591,
  "dcmmeta_affine": [
    [-2.0, 0.0, 0.0, 99.32530212402344],
    [0.0, 1.9999512434005737, -0.01396252028644085, -98.95254516601562],
    [0.0, 0.01396252028644085, 1.9999512434005737, -50.092071533203125],
    [0.0, 0.0, 0.0, 1.0]
],
  "dcmmeta_reorient_transform": [
    [0.0, -1.0, 0.0, 99.0],
    [1.0, 0.0, 0.0, 0.0],
    [0.0, 0.0, 1.0, 0.0],
    [0.0, 0.0, 0.0, 1.0]
],
  "dcmmeta_shape": [100, 100, 72, 232],
  "dcmmeta_slice_dim": 2,
  "dcmmeta_version": 0.6,
  "global": {
    "const": {
      "AcquisitionMatrix": [100, 0, 0, 100],
      "AngioFlag": "N",
      "BitsAllocated": 16,
      "BitsStored": 12,
      "BodyPartExamined": "BRAIN",
      "Columns": 900,
      "EchoNumbers": 1,
      "EchoTime": 34.0,
      "EchoTrainLength": 100,
      "FlipAngle": 90.0,
      "HighBit": 11,
      "ImageOrientationPatient": [1.0, 0.0, 0.0, 0.0, 0.99997563070612, -0.0069812601941],
      "ImagePositionPatient": [-899.32530122995, -899.02313470742, -43.124775218639],
      "ImageType": [
        "ORIGINAL",
        "PRIMARY",
        "M",
        "ND",
        "MOSAIC"
],
      "ImagedNucleus": "1H",
      "ImagingFrequency": 123.257773,
      "InPlanePhaseEncodingDirection": "COL",
      "MRAcquisitionType": "2D",
      "MagneticFieldStrength": 3.0,
      "Manufacturer": "SIEMENS",
      "ManufacturerModelName": "Prisma",
      "Modality": "MR",
      "NumberOfAverages": 1.0,
      "NumberOfPhaseEncodingSteps": 100,
      "PercentPhaseFieldOfView": 100.0,
      "PercentSampling": 100.0,
      "PerformedProcedureStepStartTime": "090107.724000",
      "PhotometricInterpretation": "MONOCHROME2",
      "PixelBandwidth": 2380.0,
      "PixelRepresentation": 0,
      "PixelSpacing": [2.0, 2.0],
      "ProtocolName": "bold_100x100_s3_2x2x2_232",
      "RepetitionTime": 2000.0,
      "Rows": 900,
      "SAR": 0.06438049049384,
      "SamplesPerPixel": 1,
      "ScanOptions": "FS",
      "ScanningSequence": "EP",
      "SequenceName": "*epfid2d1_100",
      "SequenceVariant": "SK",
      "SeriesDescription": "bold_100x100_s3_2x2x2_232",
      "SeriesNumber": 4,
      "SeriesTime": "090625.336000",
      "SliceLocation": -49.400038722208,
      "SliceThickness": 2.0,
      "SmallestImagePixelValue": 0,
      "SoftwareVersions": "syngo MR E11",
      "SpacingBetweenSlices": 2.0000000071753,
      "SpecificCharacterSet": "ISO_IR 100",
      "StudyID": "1",
      "StudyTime": "090107.544000",
      "TransmitCoilName": "Body",
      "VariableFlipAngleFlag": "N",
      "WindowCenterWidthExplanation": "Algo1",
      "dBdt": 0.0},
    "slices": {}
  },
  "time": {
    "samples": {
      "AcquisitionNumber": [1, 2, 3, 4, 5, 6, 7, 8, 9, 10, 11, 12, 13, 14, 15, 16, 17, 18, 19, 20, 21, 22, 23, 24, 25, 26, 27, 28, 29, 30, 31, 32, 33, 34, 35, 36, 37, 38, 39, 40, 41, 42, 43, 44, 45, 46, 47, 48, 49, 50, 51, 52, 53, 54, 55, 56, 57, 58, 59, 60, 61, 62, 63, 64, 65, 66, 67, 68, 69, 70, 71, 72, 73, 74, 75, 76, 77, 78, 79, 80, 81, 82, 83, 84, 85, 86, 87, 88, 89, 90, 91, 92, 93, 94, 95, 96, 97, 98, 99, 100, 101, 102, 103, 104, 105, 106, 107, 108, 109, 110, 111, 112, 113, 114, 115, 116, 117, 118, 119, 120, 121, 122, 123, 124, 125, 126, 127, 128, 129, 130, 131, 132, 133, 134, 135, 136, 137, 138, 139, 140, 141, 142, 143, 144, 145, 146, 147, 148, 149, 150, 151, 152, 153, 154, 155, 156, 157, 158, 159, 160, 161, 162, 163, 164, 165, 166, 167, 168, 169, 170, 171, 172, 173, 174, 175, 176, 177, 178, 179, 180, 181, 182, 183, 184, 185, 186, 187, 188, 189, 190, 191, 192, 193, 194, 195, 196, 197, 198, 199, 200, 201, 202, 203, 204, 205, 206, 207, 208, 209, 210, 211, 212, 213, 214, 215, 216, 217, 218, 219, 220, 221, 222, 223, 224, 225, 226, 227, 228, 229, 230, 231, 232],
      "AcquisitionTime": ["090622.877500", "090624.877500", "090626.877500", "090628.877500", "090630.877500", "090632.877500", "090634.877500", "090636.877500", "090638.877500", "090640.877500", "090642.877500", "090644.877500", "090646.877500", "090648.877500", "090650.877500", "090652.877500", "090654.877500", "090656.877500", "090658.877500", "090700.877500", "090702.877500", "090704.877500", "090706.877500", "090708.877500", "090710.877500", "090712.877500", "090714.877500", "090716.877500", "090718.877500", "090720.877500", "090722.877500", "090724.877500", "090726.877500", "090728.877500", "090730.877500", "090732.877500", "090734.877500", "090736.877500", "090738.877500", "090740.877500", "090742.877500", "090744.877500", "090746.877500", "090748.877500", "090750.877500", "090752.877500", "090754.877500", "090756.877500", "090758.877500", "090800.877500", "090802.877500", "090804.877500", "090806.877500", "090808.877500", "090810.877500", "090812.877500", "090814.877500", "090816.877500", "090818.877500", "090820.877500", "090822.877500", "090824.877500", "090826.877500", "090828.877500", "090830.877500", "090832.877500", "090834.877500", "090836.877500", "090838.877500", "090840.877500", "090842.877500", "090844.877500", "090846.877500", "090848.877500", "090850.877500", "090852.877500", "090854.877500", "090856.877500", "090858.877500", "090900.877500", "090902.877500", "090904.877500", "090906.877500", "090908.877500", "090910.877500", "090912.877500", "090914.877500", "090916.877500", "090918.877500", "090920.877500", "090922.877500", "090924.877500", "090926.877500", "090928.877500", "090930.877500", "090932.877500", "090934.877500", "090936.877500", "090938.877500", "090940.877500", "090942.877500", "090944.877500", "090946.877500", "090948.877500", "090950.877500", "090952.877500", "090954.877500", "090956.877500", "090958.877500", "091000.877500", "091002.877500", "091004.877500", "091006.877500", "091008.877500", "091010.877500", "091012.877500", "091014.877500", "091016.877500", "091018.877500", "091020.877500", "091022.877500", "091024.877500", "091026.877500", "091028.877500", "091030.877500", "091032.877500", "091034.877500", "091036.877500", "091038.877500", "091040.877500", "091042.877500", "091044.877500", "091046.877500", "091048.877500", "091050.877500", "091052.877500", "091054.877500", "091056.877500", "091058.877500", "091100.877500", "091102.877500", "091104.877500", "091106.877500", "091108.877500", "091110.877500", "091112.877500", "091114.877500", "091116.877500", "091118.877500", "091120.877500", "091122.877500", "091124.877500", "091126.877500", "091128.877500", "091130.877500", "091132.877500", "091134.877500", "091136.877500", "091138.877500", "091140.877500", "091142.877500", "091144.877500", "091146.877500", "091148.877500", "091150.877500", "091152.877500", "091154.877500", "091156.877500", "091158.877500", "091200.877500", "091202.877500", "091204.877500", "091206.877500", "091208.877500", "091210.877500", "091212.877500", "091214.877500", "091216.877500", "091218.877500", "091220.877500", "091222.877500", "091224.877500", "091226.877500", "091228.877500", "091230.877500", "091232.877500", "091234.877500", "091236.877500", "091238.877500", "091240.877500", "091242.877500", "091244.877500", "091246.877500", "091248.877500", "091250.877500", "091252.877500", "091254.877500", "091256.877500", "091258.877500", "091300.877500", "091302.877500", "091304.877500", "091306.877500", "091308.877500", "091310.877500", "091312.877500", "091314.877500", "091316.877500", "091318.877500", "091320.877500", "091322.877500", "091324.877500", "091326.877500", "091328.877500", "091330.877500", "091332.877500", "091334.877500", "091336.877500", "091338.877500", "091340.877500", "091342.877500", "091344.877500", "091346.877500", "091348.877500", "091350.877500", "091352.877500", "091354.877500", "091356.877500", "091358.877500", "091400.877500", "091402.877500", "091404.877500"],
      "ContentTime": ["090625.340000", "090626.835000", "090628.835000", "090630.835000", "090632.836000", "090634.836000", "090636.835000", "090638.835000", "090640.836000", "090642.836000", "090645.335000", "090646.836000", "090648.835000", "090650.836000", "090652.836000", "090654.835000", "090656.835000", "090658.835000", "090700.835000", "090702.835000", "090704.835000", "090706.835000", "090708.836000", "090710.836000", "090712.835000", "090714.835000", "090716.835000", "090718.835000", "090720.835000", "090722.835000", "090724.835000", "090726.836000", "090728.836000", "090730.836000", "090732.836000", "090734.836000", "090736.835000", "090738.835000", "090740.835000", "090742.836000", "090744.836000", "090747.336000", "090748.835000", "090750.836000", "090752.835000", "090754.835000", "090756.835000", "090758.836000", "090800.836000", "090802.836000", "090804.835000", "090806.836000", "090808.835000", "090810.835000", "090812.836000", "090814.835000", "090816.836000", "090818.836000", "090820.836000", "090822.836000", "090824.835000", "090826.835000", "090828.835000", "090830.835000", "090832.835000", "090834.836000", "090836.836000", "090839.335000", "090840.835000", "090842.835000", "090844.836000", "090846.835000", "090848.835000", "090850.835000", "090852.836000", "090854.836000", "090856.835000", "090858.836000", "090900.836000", "090902.835000", "090904.835000", "090906.836000", "090908.835000", "090910.836000", "090912.836000", "090914.835000", "090916.836000", "090918.835000", "090920.835000", "090922.836000", "090924.836000", "090927.335000", "090928.836000", "090930.836000", "090932.836000", "090934.835000", "090936.835000", "090938.835000", "090940.835000", "090942.836000", "090944.835000", "090946.836000", "090948.836000", "090950.835000", "090952.835000", "090954.835000", "090956.836000", "090958.835000", "091000.835000", "091002.836000", "091004.836000", "091006.835000", "091008.836000", "091010.835000", "091012.835000", "091014.836000", "091016.835000", "091018.836000", "091020.836000", "091022.836000", "091024.836000", "091026.836000", "091028.836000", "091030.835000", "091032.835000", "091034.835000", "091036.835000", "091038.836000", "091040.836000", "091042.835000", "091044.836000", "091046.835000", "091048.835000", "091050.835000", "091052.836000", "091054.835000", "091056.837000", "091058.836000", "091100.835000", "091102.836000", "091104.835000", "091106.835000", "091108.835000", "091110.836000", "091112.836000", "091114.837000", "091116.835000", "091118.835000", "091120.835000", "091122.835000", "091124.836000", "091126.835000", "091128.835000", "091130.836000", "091132.836000", "091134.835000", "091136.835000", "091138.836000", "091140.835000", "091142.836000", "091144.835000", "091146.836000", "091148.836000", "091150.836000", "091152.835000", "091154.835000", "091156.835000", "091158.835000", "091200.835000", "091202.835000", "091204.835000", "091206.836000", "091208.836000", "091210.836000", "091212.836000", "091214.835000", "091216.836000", "091218.835000", "091220.836000", "091222.836000", "091224.836000", "091226.836000", "091228.835000", "091230.835000", "091232.836000", "091234.835000", "091236.836000", "091238.836000", "091240.837000", "091242.836000", "091244.836000", "091246.835000", "091248.835000", "091250.835000", "091252.835000", "091254.835000", "091256.835000", "091258.836000", "091300.836000", "091302.835000", "091304.835000", "091306.836000", "091308.836000", "091310.835000", "091312.835000", "091314.837000", "091316.837000", "091318.836000", "091320.836000", "091322.836000", "091324.835000", "091326.836000", "091328.835000", "091330.836000", "091332.836000", "091334.836000", "091336.835000", "091338.835000", "091340.836000", "091342.835000", "091344.835000", "091346.836000", "091348.835000", "091350.836000", "091352.836000", "091354.835000", "091356.835000", "091358.836000", "091400.835000", "091402.835000", "091404.835000", "091406.666000"],
      "InstanceCreationTime": ["090625.340000", "090626.835000", "090628.835000", "090630.835000", "090632.836000", "090634.836000", "090636.835000", "090638.835000", "090640.836000", "090642.836000", "090645.335000", "090646.836000", "090648.835000", "090650.836000", "090652.836000", "090654.835000", "090656.835000", "090658.835000", "090700.835000", "090702.835000", "090704.835000", "090706.835000", "090708.836000", "090710.836000", "090712.835000", "090714.835000", "090716.835000", "090718.835000", "090720.835000", "090722.835000", "090724.835000", "090726.836000", "090728.836000", "090730.836000", "090732.836000", "090734.836000", "090736.835000", "090738.835000", "090740.835000", "090742.836000", "090744.836000", "090747.336000", "090748.835000", "090750.836000", "090752.835000", "090754.835000", "090756.835000", "090758.836000", "090800.836000", "090802.836000", "090804.835000", "090806.836000", "090808.835000", "090810.835000", "090812.836000", "090814.835000", "090816.836000", "090818.836000", "090820.836000", "090822.836000", "090824.835000", "090826.835000", "090828.835000", "090830.835000", "090832.835000", "090834.836000", "090836.836000", "090839.335000", "090840.835000", "090842.835000", "090844.836000", "090846.835000", "090848.835000", "090850.835000", "090852.836000", "090854.836000", "090856.835000", "090858.836000", "090900.836000", "090902.835000", "090904.835000", "090906.836000", "090908.835000", "090910.836000", "090912.836000", "090914.835000", "090916.836000", "090918.835000", "090920.835000", "090922.836000", "090924.836000", "090927.335000", "090928.836000", "090930.836000", "090932.836000", "090934.835000", "090936.835000", "090938.835000", "090940.835000", "090942.836000", "090944.835000", "090946.836000", "090948.836000", "090950.835000", "090952.835000", "090954.835000", "090956.836000", "090958.835000", "091000.835000", "091002.836000", "091004.836000", "091006.835000", "091008.836000", "091010.835000", "091012.835000", "091014.836000", "091016.835000", "091018.836000", "091020.836000", "091022.836000", "091024.836000", "091026.836000", "091028.836000", "091030.835000", "091032.835000", "091034.835000", "091036.835000", "091038.836000", "091040.836000", "091042.835000", "091044.836000", "091046.835000", "091048.835000", "091050.835000", "091052.836000", "091054.835000", "091056.837000", "091058.836000", "091100.835000", "091102.836000", "091104.835000", "091106.835000", "091108.835000", "091110.836000", "091112.836000", "091114.837000", "091116.835000", "091118.835000", "091120.835000", "091122.835000", "091124.836000", "091126.835000", "091128.835000", "091130.836000", "091132.836000", "091134.835000", "091136.835000", "091138.836000", "091140.835000", "091142.836000", "091144.835000", "091146.836000", "091148.836000", "091150.836000", "091152.835000", "091154.835000", "091156.835000", "091158.835000", "091200.835000", "091202.835000", "091204.835000", "091206.836000", "091208.836000", "091210.836000", "091212.836000", "091214.835000", "091216.836000", "091218.835000", "091220.836000", "091222.836000", "091224.836000", "091226.836000", "091228.835000", "091230.835000", "091232.836000", "091234.835000", "091236.836000", "091238.836000", "091240.837000", "091242.836000", "091244.836000", "091246.835000", "091248.835000", "091250.835000", "091252.835000", "091254.835000", "091256.835000", "091258.836000", "091300.836000", "091302.835000", "091304.835000", "091306.836000", "091308.836000", "091310.835000", "091312.835000", "091314.837000", "091316.837000", "091318.836000", "091320.836000", "091322.836000", "091324.835000", "091326.836000", "091328.835000", "091330.836000", "091332.836000", "091334.836000", "091336.835000", "091338.835000", "091340.836000", "091342.835000", "091344.835000", "091346.836000", "091348.835000", "091350.836000", "091352.836000", "091354.835000", "091356.835000", "091358.836000", "091400.835000", "091402.835000", "091404.835000", "091406.666000"],
      "InstanceNumber": [1, 2, 3, 4, 5, 6, 7, 8, 9, 10, 11, 12, 13, 14, 15, 16, 17, 18, 19, 20, 21, 22, 23, 24, 25, 26, 27, 28, 29, 30, 31, 32, 33, 34, 35, 36, 37, 38, 39, 40, 41, 42, 43, 44, 45, 46, 47, 48, 49, 50, 51, 52, 53, 54, 55, 56, 57, 58, 59, 60, 61, 62, 63, 64, 65, 66, 67, 68, 69, 70, 71, 72, 73, 74, 75, 76, 77, 78, 79, 80, 81, 82, 83, 84, 85, 86, 87, 88, 89, 90, 91, 92, 93, 94, 95, 96, 97, 98, 99, 100, 101, 102, 103, 104, 105, 106, 107, 108, 109, 110, 111, 112, 113, 114, 115, 116, 117, 118, 119, 120, 121, 122, 123, 124, 125, 126, 127, 128, 129, 130, 131, 132, 133, 134, 135, 136, 137, 138, 139, 140, 141, 142, 143, 144, 145, 146, 147, 148, 149, 150, 151, 152, 153, 154, 155, 156, 157, 158, 159, 160, 161, 162, 163, 164, 165, 166, 167, 168, 169, 170, 171, 172, 173, 174, 175, 176, 177, 178, 179, 180, 181, 182, 183, 184, 185, 186, 187, 188, 189, 190, 191, 192, 193, 194, 195, 196, 197, 198, 199, 200, 201, 202, 203, 204, 205, 206, 207, 208, 209, 210, 211, 212, 213, 214, 215, 216, 217, 218, 219, 220, 221, 222, 223, 224, 225, 226, 227, 228, 229, 230, 231, 232],
      "LargestImagePixelValue": [3562, 3495, 3499, 3483, 3477, 3477, 3476, 3472, 3471, 3466, 3493, 3467, 3507, 3533, 3516, 3533, 3504, 3521, 3532, 3541, 3484, 3526, 3532, 3529, 3508, 3544, 3459, 3543, 3551, 3528, 3549, 3568, 3564, 3542, 3560, 3576, 3570, 3555, 3537, 3553, 3553, 3565, 3516, 3542, 3567, 3569, 3562, 3554, 3539, 3604, 3560, 3543, 3647, 3584, 3584, 3585, 3605, 3522, 3561, 3536, 3588, 3582, 3553, 3550, 3611, 3612, 3562, 3633, 3652, 3640, 3591, 3693, 3675, 3570, 3657, 3612, 3636, 3642, 3633, 3632, 3661, 3725, 3705, 3687, 3661, 3707, 3678, 3705, 3706, 3745, 3714, 3711, 3741, 3704, 3704, 3700, 3688, 3643, 3617, 3667, 3568, 3676, 3590, 3571, 3746, 3656, 3699, 3676, 3715, 3717, 3703, 3678, 3688, 3687, 3662, 3678, 3633, 3635, 3699, 3647, 3661, 3648, 3626, 3672, 3649, 3660, 3631, 3623, 3657, 3704, 3691, 3776, 3680, 3750, 3683, 3690, 3683, 3695, 3725, 3726, 3712, 3729, 3688, 3725, 3726, 3720, 3715, 3743, 3721, 3737, 3718, 3737, 3711, 3698, 3705, 3708, 3692, 3679, 3704, 3695, 3688, 3686, 3674, 3686, 3664, 3673, 3664, 3674, 3657, 3739, 3536, 3705, 3450, 3500, 3510, 3514, 3545, 3601, 3651, 3706, 3658, 3673, 3727, 3675, 3694, 3630, 3712, 3703, 3719, 3715, 3713, 3722, 3712, 3732, 3706, 3685, 3692, 3713, 3701, 3693, 3695, 3666, 3648, 3643, 3669, 3655, 3662, 3641, 3662, 3658, 3636, 3646, 3647, 3635, 3606, 3607, 3622, 3603, 3583, 3563, 3607, 3596, 3611, 3622, 3584, 3556, 3564, 3549, 3497, 3519, 3557, 3556],
      "WindowCenter": [787.0, 786.0, 787.0, 786.0, 786.0, 786.0, 786.0, 786.0, 786.0, 786.0, 788.0, 789.0, 788.0, 788.0, 788.0, 788.0, 787.0, 788.0, 789.0, 790.0, 789.0, 789.0, 789.0, 789.0, 788.0, 788.0, 788.0, 789.0, 789.0, 789.0, 789.0, 789.0, 789.0, 790.0, 790.0, 791.0, 790.0, 789.0, 789.0, 789.0, 789.0, 789.0, 789.0, 789.0, 789.0, 789.0, 788.0, 787.0, 787.0, 788.0, 787.0, 787.0, 788.0, 789.0, 788.0, 788.0, 787.0, 786.0, 788.0, 788.0, 788.0, 787.0, 787.0, 787.0, 789.0, 790.0, 790.0, 790.0, 789.0, 788.0, 787.0, 787.0, 786.0, 782.0, 785.0, 785.0, 785.0, 786.0, 785.0, 785.0, 786.0, 788.0, 788.0, 788.0, 787.0, 788.0, 788.0, 788.0, 788.0, 788.0, 788.0, 788.0, 788.0, 787.0, 786.0, 786.0, 787.0, 788.0, 787.0, 787.0, 787.0, 787.0, 787.0, 787.0, 788.0, 787.0, 788.0, 788.0, 790.0, 790.0, 789.0, 787.0, 787.0, 788.0, 789.0, 790.0, 789.0, 788.0, 788.0, 787.0, 786.0, 787.0, 787.0, 787.0, 787.0, 787.0, 787.0, 788.0, 788.0, 788.0, 788.0, 788.0, 788.0, 786.0, 786.0, 786.0, 785.0, 785.0, 785.0, 786.0, 787.0, 787.0, 786.0, 787.0, 786.0, 786.0, 786.0, 786.0, 787.0, 787.0, 787.0, 786.0, 785.0, 785.0, 785.0, 786.0, 785.0, 785.0, 785.0, 785.0, 786.0, 785.0, 786.0, 786.0, 785.0, 784.0, 783.0, 783.0, 782.0, 784.0, 783.0, 784.0, 789.0, 787.0, 786.0, 787.0, 788.0, 789.0, 790.0, 789.0, 788.0, 788.0, 787.0, 788.0, 787.0, 786.0, 787.0, 787.0, 786.0, 786.0, 786.0, 786.0, 787.0, 787.0, 786.0, 787.0, 787.0, 787.0, 787.0, 787.0, 788.0, 788.0, 788.0, 787.0, 788.0, 788.0, 788.0, 787.0, 786.0, 786.0, 786.0, 787.0, 787.0, 786.0, 787.0, 788.0, 787.0, 786.0, 785.0, 787.0, 788.0, 787.0, 787.0, 786.0, 787.0, 788.0, 788.0, 788.0, 787.0, 788.0, 790.0, 789.0],
      "WindowWidth": [1732.0, 1730.0, 1731.0, 1730.0, 1728.0, 1728.0, 1728.0, 1728.0, 1728.0, 1730.0, 1736.0, 1737.0, 1737.0, 1735.0, 1734.0, 1734.0, 1734.0, 1735.0, 1740.0, 1740.0, 1739.0, 1740.0, 1740.0, 1738.0, 1736.0, 1737.0, 1737.0, 1740.0, 1740.0, 1737.0, 1738.0, 1739.0, 1738.0, 1740.0, 1742.0, 1744.0, 1743.0, 1738.0, 1737.0, 1737.0, 1739.0, 1738.0, 1736.0, 1738.0, 1738.0, 1737.0, 1734.0, 1733.0, 1733.0, 1734.0, 1733.0, 1733.0, 1736.0, 1737.0, 1734.0, 1735.0, 1733.0, 1730.0, 1734.0, 1734.0, 1734.0, 1731.0, 1731.0, 1733.0, 1737.0, 1740.0, 1741.0, 1742.0, 1739.0, 1736.0, 1730.0, 1732.0, 1727.0, 1718.0, 1726.0, 1725.0, 1727.0, 1728.0, 1725.0, 1726.0, 1729.0, 1735.0, 1736.0, 1734.0, 1732.0, 1735.0, 1735.0, 1737.0, 1736.0, 1734.0, 1735.0, 1735.0, 1734.0, 1730.0, 1728.0, 1729.0, 1731.0, 1733.0, 1733.0, 1731.0, 1732.0, 1730.0, 1732.0, 1732.0, 1734.0, 1730.0, 1734.0, 1736.0, 1742.0, 1741.0, 1736.0, 1732.0, 1730.0, 1733.0, 1737.0, 1739.0, 1737.0, 1734.0, 1733.0, 1729.0, 1729.0, 1731.0, 1732.0, 1732.0, 1730.0, 1730.0, 1731.0, 1733.0, 1734.0, 1733.0, 1733.0, 1733.0, 1733.0, 1727.0, 1729.0, 1727.0, 1724.0, 1724.0, 1726.0, 1729.0, 1730.0, 1731.0, 1729.0, 1730.0, 1729.0, 1728.0, 1728.0, 1728.0, 1730.0, 1732.0, 1730.0, 1727.0, 1726.0, 1725.0, 1726.0, 1726.0, 1725.0, 1723.0, 1724.0, 1726.0, 1727.0, 1726.0, 1727.0, 1729.0, 1724.0, 1723.0, 1718.0, 1718.0, 1715.0, 1723.0, 1717.0, 1722.0, 1734.0, 1729.0, 1727.0, 1729.0, 1734.0, 1737.0, 1739.0, 1738.0, 1734.0, 1732.0, 1731.0, 1732.0, 1730.0, 1727.0, 1730.0, 1729.0, 1728.0, 1728.0, 1726.0, 1727.0, 1729.0, 1729.0, 1729.0, 1730.0, 1731.0, 1731.0, 1732.0, 1732.0, 1733.0, 1734.0, 1733.0, 1732.0, 1733.0, 1734.0, 1734.0, 1731.0, 1729.0, 1727.0, 1728.0, 1730.0, 1729.0, 1729.0, 1731.0, 1732.0, 1730.0, 1726.0, 1725.0, 1730.0, 1734.0, 1732.0, 1730.0, 1729.0, 1730.0, 1732.0, 1733.0, 1733.0, 1731.0, 1735.0, 1739.0, 1737.0]
    },
    "slices": {}
  }
}