{
  "AcquisitionMatrixPE": 100,
  "AcquisitionNumber": 1,
  "AcquisitionTime": "12:11:25.647500",
  "BandwidthPerPixelPhaseEncode": 18.519,
  "BaseResolution": 100,
  "BodyPartExamined": "BRAIN",
  "ConsistencyInfo": "N4_VE11C_LATEST_20160120",
  "ConversionSoftware": "dcm2niix",
  "ConversionSoftwareVersion": "v1.0.20180622 GCC4.9.2",
  "DerivedVendorReportedEchoSpacing": 0.000539986,
  "DeviceSerialNumber": "166078",
  "DwellTime": 2.1e-06,
  "EchoTime": 0.034,
  "EchoTrainLength": 100,
  "EffectiveEchoSpacing": 0.000539986,
  "FlipAngle": 90,
  "ImageOrientationPatientDICOM": [0.99966, 0.0229397, 0.0124345, -0.0191945, 0.969308, -0.245098],
  "ImageType": [
    "ORIGINAL",
    "PRIMARY",
    "M",
    "ND",
    "MOSAIC"
],
  "InPlanePhaseEncodingDirectionDICOM": "COL",
  "InstitutionAddress": "Street_StreetNo_Bei_Jing_District_CN_ZIP",
  "InstitutionName": "BeiJing_Normal_University",
  "InstitutionalDepartmentName": "Department",
  "MRAcquisitionType": "2D",
  "MagneticFieldStrength": 3,
  "Manufacturer": "Siemens",
  "ManufacturersModelName": "Prisma",
  "Modality": "MR",
  "MultibandAccelerationFactor": 3,
  "PartialFourier": 1,
  "PatientPosition": "HFS",
  "PercentPhaseFOV": 100,
  "PhaseEncodingDirection": "j-",
  "PhaseEncodingSteps": 100,
  "PhaseResolution": 1,
  "PixelBandwidth": 2380,
  "ProcedureStepDescription": "BNU_P2018_64CH_Liu.Jia",
  "ProtocolName": "bold_100x100_s3_2x2x2_232",
  "PulseSequenceDetails": "%SiemensSeq%_ep2d_bold",
  "ReceiveCoilActiveElements": "HC1-7;NC1",
  "ReceiveCoilName": "HeadNeck_64",
  "ReconMatrixPE": 100,
  "RepetitionTime": 2,
  "SAR": 0.0657923,
  "ScanOptions": "FS",
  "ScanningSequence": "EP",
  "SequenceName": "_epfid2d1_100",
  "SequenceVariant": "SK",
  "SeriesDescription": "bold_100x100_s3_2x2x2_232",
  "SeriesNumber": 9,
  "ShimSetting": [-5436, -11490, -1225, 186, 6, -108, -148, 72],
  "SliceThickness": 2,
  "SliceTiming": [1.485, 0, 0.99, 0.0825, 1.0725, 0.165, 1.155, 0.2475, 1.2375, 0.33, 1.32, 0.4125, 1.4025, 0.5775, 1.5675, 0.66, 1.65, 0.7425, 1.7325, 0.825, 1.815, 0.9075, 1.8975, 0.495, 1.485, 0, 0.99, 0.0825, 1.0725, 0.165, 1.155, 0.2475, 1.2375, 0.33, 1.32, 0.4125, 1.4025, 0.5775, 1.5675, 0.66, 1.65, 0.7425, 1.7325, 0.825, 1.815, 0.9075, 1.8975, 0.495, 1.485, 0, 0.99, 0.0825, 1.0725, 0.165, 1.155, 0.2475, 1.2375, 0.33, 1.32, 0.4125, 1.4025, 0.5775, 1.5675, 0.66, 1.65, 0.7425, 1.7325, 0.825, 1.815, 0.9075, 1.8975, 0.495],
  "SoftwareVersions": "syngo_MR_E11",
  "SpacingBetweenSlices": 2,
  "StationName": "AWP166078",
  "TaskName": "motor",
  "TotalReadoutTime": 0.0534586,
  "TxRefAmp": 232.349,
  "dcmmeta_affine": [
    [-1.999319076538086, -0.038388948887586594, 0.035350605845451355, 101.32714080810547],
    [-0.04587933048605919, 1.938616394996643, -0.4895523190498352, -73.4090805053711],
    [0.024868933483958244, 0.4901965856552124, 1.938836932182312, -100.26239776611328],
    [0.0, 0.0, 0.0, 1.0]
],
  "dcmmeta_reorient_transform": [
    [0.0, -1.0, 0.0, 99.0],
    [1.0, 0.0, 0.0, 0.0],
    [0.0, 0.0, 1.0, 0.0],
    [0.0, 0.0, 0.0, 1.0]
],
  "dcmmeta_shape": [100, 100, 72, 232],
  "dcmmeta_slice_dim": 2,
  "dcmmeta_version": 0.6,
  "global": {
    "const": {
      "AcquisitionMatrix": [100, 0, 0, 100],
      "AngioFlag": "N",
      "BitsAllocated": 16,
      "BitsStored": 12,
      "BodyPartExamined": "BRAIN",
      "Columns": 900,
      "EchoNumbers": 1,
      "EchoTime": 34.0,
      "EchoTrainLength": 100,
      "FlipAngle": 90.0,
      "HighBit": 11,
      "ImageOrientationPatient": [0.99965951991891, 0.02293966571363, 0.01243446711502, -0.0191944749304, 0.96930820678242, -0.2450982912964],
      "ImagePositionPatient": [-881.89866991044, -912.31224120652, 134.39812077931],
      "ImageType": [
        "ORIGINAL",
        "PRIMARY",
        "M",
        "ND",
        "MOSAIC"
],
      "ImagedNucleus": "1H",
      "ImagingFrequency": 123.257845,
      "InPlanePhaseEncodingDirection": "COL",
      "MRAcquisitionType": "2D",
      "MagneticFieldStrength": 3.0,
      "Manufacturer": "SIEMENS",
      "ManufacturerModelName": "Prisma",
      "Modality": "MR",
      "NumberOfAverages": 1.0,
      "NumberOfPhaseEncodingSteps": 100,
      "PercentPhaseFieldOfView": 100.0,
      "PercentSampling": 100.0,
      "PerformedProcedureStepStartTime": "113049.675000",
      "PhotometricInterpretation": "MONOCHROME2",
      "PixelBandwidth": 2380.0,
      "PixelRepresentation": 0,
      "PixelSpacing": [2.0, 2.0],
      "ProtocolName": "bold_100x100_s3_2x2x2_232",
      "RepetitionTime": 2000.0,
      "Rows": 900,
      "SAR": 0.06579233756781,
      "SamplesPerPixel": 1,
      "ScanOptions": "FS",
      "ScanningSequence": "EP",
      "SequenceName": "*epfid2d1_100",
      "SequenceVariant": "SK",
      "SeriesDescription": "bold_100x100_s3_2x2x2_232",
      "SeriesNumber": 9,
      "SeriesTime": "121128.247000",
      "SliceLocation": -77.43644314433,
      "SliceThickness": 2.0,
      "SmallestImagePixelValue": 0,
      "SoftwareVersions": "syngo MR E11",
      "SpacingBetweenSlices": 1.9999999335566,
      "SpecificCharacterSet": "ISO_IR 100",
      "StudyID": "1",
      "StudyTime": "113049.570000",
      "TransmitCoilName": "Body",
      "VariableFlipAngleFlag": "N",
      "WindowCenterWidthExplanation": "Algo1",
      "dBdt": 0.0},
    "slices": {}
  },
  "time": {
    "samples": {
      "AcquisitionNumber": [1, 2, 3, 4, 5, 6, 7, 8, 9, 10, 11, 12, 13, 14, 15, 16, 17, 18, 19, 20, 21, 22, 23, 24, 25, 26, 27, 28, 29, 30, 31, 32, 33, 34, 35, 36, 37, 38, 39, 40, 41, 42, 43, 44, 45, 46, 47, 48, 49, 50, 51, 52, 53, 54, 55, 56, 57, 58, 59, 60, 61, 62, 63, 64, 65, 66, 67, 68, 69, 70, 71, 72, 73, 74, 75, 76, 77, 78, 79, 80, 81, 82, 83, 84, 85, 86, 87, 88, 89, 90, 91, 92, 93, 94, 95, 96, 97, 98, 99, 100, 101, 102, 103, 104, 105, 106, 107, 108, 109, 110, 111, 112, 113, 114, 115, 116, 117, 118, 119, 120, 121, 122, 123, 124, 125, 126, 127, 128, 129, 130, 131, 132, 133, 134, 135, 136, 137, 138, 139, 140, 141, 142, 143, 144, 145, 146, 147, 148, 149, 150, 151, 152, 153, 154, 155, 156, 157, 158, 159, 160, 161, 162, 163, 164, 165, 166, 167, 168, 169, 170, 171, 172, 173, 174, 175, 176, 177, 178, 179, 180, 181, 182, 183, 184, 185, 186, 187, 188, 189, 190, 191, 192, 193, 194, 195, 196, 197, 198, 199, 200, 201, 202, 203, 204, 205, 206, 207, 208, 209, 210, 211, 212, 213, 214, 215, 216, 217, 218, 219, 220, 221, 222, 223, 224, 225, 226, 227, 228, 229, 230, 231, 232],
      "AcquisitionTime": ["121125.647500", "121127.647500", "121129.647500", "121131.647500", "121133.647500", "121135.647500", "121137.647500", "121139.647500", "121141.647500", "121143.647500", "121145.647500", "121147.647500", "121149.647500", "121151.647500", "121153.647500", "121155.647500", "121157.647500", "121159.647500", "121201.647500", "121203.647500", "121205.647500", "121207.647500", "121209.647500", "121211.647500", "121213.647500", "121215.647500", "121217.647500", "121219.647500", "121221.647500", "121223.647500", "121225.647500", "121227.647500", "121229.647500", "121231.647500", "121233.647500", "121235.647500", "121237.647500", "121239.647500", "121241.647500", "121243.647500", "121245.647500", "121247.647500", "121249.647500", "121251.647500", "121253.647500", "121255.647500", "121257.647500", "121259.647500", "121301.647500", "121303.647500", "121305.647500", "121307.647500", "121309.647500", "121311.647500", "121313.647500", "121315.647500", "121317.647500", "121319.647500", "121321.647500", "121323.647500", "121325.647500", "121327.647500", "121329.647500", "121331.647500", "121333.647500", "121335.647500", "121337.647500", "121339.647500", "121341.647500", "121343.647500", "121345.647500", "121347.647500", "121349.647500", "121351.647500", "121353.647500", "121355.647500", "121357.647500", "121359.647500", "121401.647500", "121403.647500", "121405.647500", "121407.647500", "121409.647500", "121411.647500", "121413.647500", "121415.647500", "121417.647500", "121419.647500", "121421.647500", "121423.647500", "121425.647500", "121427.647500", "121429.647500", "121431.647500", "121433.647500", "121435.647500", "121437.647500", "121439.647500", "121441.647500", "121443.647500", "121445.647500", "121447.647500", "121449.647500", "121451.647500", "121453.647500", "121455.647500", "121457.647500", "121459.647500", "121501.647500", "121503.647500", "121505.647500", "121507.647500", "121509.647500", "121511.647500", "121513.647500", "121515.647500", "121517.647500", "121519.647500", "121521.647500", "121523.647500", "121525.647500", "121527.647500", "121529.647500", "121531.647500", "121533.647500", "121535.647500", "121537.647500", "121539.647500", "121541.647500", "121543.647500", "121545.647500", "121547.647500", "121549.647500", "121551.647500", "121553.647500", "121555.647500", "121557.647500", "121559.647500", "121601.647500", "121603.647500", "121605.647500", "121607.647500", "121609.647500", "121611.647500", "121613.647500", "121615.647500", "121617.647500", "121619.647500", "121621.647500", "121623.647500", "121625.647500", "121627.647500", "121629.647500", "121631.647500", "121633.647500", "121635.647500", "121637.647500", "121639.647500", "121641.647500", "121643.647500", "121645.647500", "121647.647500", "121649.647500", "121651.647500", "121653.647500", "121655.647500", "121657.647500", "121659.647500", "121701.647500", "121703.647500", "121705.647500", "121707.647500", "121709.647500", "121711.647500", "121713.647500", "121715.647500", "121717.647500", "121719.647500", "121721.647500", "121723.647500", "121725.647500", "121727.647500", "121729.647500", "121731.647500", "121733.647500", "121735.647500", "121737.647500", "121739.647500", "121741.647500", "121743.647500", "121745.647500", "121747.647500", "121749.647500", "121751.647500", "121753.647500", "121755.647500", "121757.647500", "121759.647500", "121801.647500", "121803.647500", "121805.647500", "121807.647500", "121809.647500", "121811.647500", "121813.647500", "121815.647500", "121817.647500", "121819.647500", "121821.647500", "121823.647500", "121825.647500", "121827.647500", "121829.647500", "121831.647500", "121833.647500", "121835.647500", "121837.647500", "121839.647500", "121841.647500", "121843.647500", "121845.647500", "121847.647500", "121849.647500", "121851.647500", "121853.647500", "121855.647500", "121857.647500", "121859.647500", "121901.647500", "121903.647500", "121905.647500", "121907.647500"],
      "ContentTime": ["121128.251000", "121129.746000", "121131.746000", "121133.746000", "121135.745000", "121137.745000", "121139.746000", "121141.746000", "121143.746000", "121145.746000", "121147.746000", "121149.746000", "121151.746000", "121153.745000", "121155.745000", "121157.746000", "121159.746000", "121201.746000", "121203.746000", "121205.746000", "121207.746000", "121209.747000", "121211.746000", "121213.746000", "121215.746000", "121217.746000", "121219.747000", "121221.746000", "121223.746000", "121225.746000", "121227.745000", "121229.745000", "121231.746000", "121233.746000", "121235.746000", "121237.746000", "121239.746000", "121241.746000", "121243.746000", "121245.746000", "121247.745000", "121249.747000", "121251.746000", "121253.746000", "121255.747000", "121257.747000", "121259.747000", "121301.746000", "121303.745000", "121305.745000", "121307.746000", "121309.746000", "121311.746000", "121313.746000", "121315.746000", "121317.746000", "121319.746000", "121321.745000", "121323.746000", "121325.746000", "121327.746000", "121329.746000", "121331.747000", "121333.746000", "121335.747000", "121337.745000", "121339.745000", "121341.746000", "121343.746000", "121345.746000", "121347.747000", "121349.747000", "121351.747000", "121353.747000", "121355.745000", "121357.746000", "121359.746000", "121401.746000", "121403.747000", "121405.746000", "121407.747000", "121409.747000", "121411.747000", "121413.745000", "121415.746000", "121417.746000", "121419.746000", "121421.747000", "121423.746000", "121425.747000", "121427.747000", "121429.747000", "121431.745000", "121433.746000", "121435.746000", "121437.746000", "121439.746000", "121441.747000", "121443.746000", "121445.746000", "121447.745000", "121449.746000", "121451.746000", "121453.747000", "121455.746000", "121457.746000", "121459.747000", "121501.746000", "121503.747000", "121505.745000", "121507.745000", "121509.747000", "121511.746000", "121513.747000", "121515.746000", "121517.747000", "121519.746000", "121521.746000", "121523.746000", "121525.745000", "121527.746000", "121529.746000", "121531.746000", "121533.746000", "121535.747000", "121537.746000", "121539.746000", "121541.746000", "121543.747000", "121545.746000", "121547.746000", "121549.747000", "121551.747000", "121553.746000", "121555.747000", "121557.745000", "121559.745000", "121601.747000", "121603.746000", "121605.747000", "121607.746000", "121609.746000", "121611.747000", "121613.746000", "121615.745000", "121617.745000", "121619.746000", "121621.747000", "121623.746000", "121625.746000", "121627.746000", "121629.747000", "121631.746000", "121633.745000", "121635.750000", "121637.746000", "121639.746000", "121641.746000", "121643.747000", "121645.746000", "121647.747000", "121649.747000", "121651.745000", "121653.747000", "121655.747000", "121657.746000", "121659.746000", "121701.747000", "121703.747000", "121705.746000", "121707.745000", "121709.745000", "121711.746000", "121713.746000", "121715.746000", "121717.747000", "121719.746000", "121721.747000", "121723.746000", "121725.745000", "121727.745000", "121729.746000", "121731.746000", "121733.746000", "121735.746000", "121737.746000", "121739.746000", "121741.746000", "121743.745000", "121745.746000", "121747.746000", "121749.746000", "121751.746000", "121753.746000", "121755.746000", "121757.746000", "121759.746000", "121801.745000", "121803.746000", "121805.746000", "121807.747000", "121809.747000", "121811.746000", "121813.747000", "121815.747000", "121817.745000", "121819.745000", "121821.747000", "121823.746000", "121825.747000", "121827.747000", "121829.746000", "121831.746000", "121833.747000", "121835.745000", "121837.745000", "121839.746000", "121841.746000", "121843.746000", "121845.747000", "121847.746000", "121849.746000", "121851.747000", "121853.746000", "121855.746000", "121857.746000", "121859.747000", "121901.747000", "121903.747000", "121905.747000", "121907.746000", "121909.350000"],
      "InstanceCreationTime": ["121128.251000", "121129.746000", "121131.746000", "121133.746000", "121135.745000", "121137.745000", "121139.746000", "121141.746000", "121143.746000", "121145.746000", "121147.746000", "121149.746000", "121151.746000", "121153.745000", "121155.745000", "121157.746000", "121159.746000", "121201.746000", "121203.746000", "121205.746000", "121207.746000", "121209.747000", "121211.746000", "121213.746000", "121215.746000", "121217.746000", "121219.747000", "121221.746000", "121223.746000", "121225.746000", "121227.745000", "121229.745000", "121231.746000", "121233.746000", "121235.746000", "121237.746000", "121239.746000", "121241.746000", "121243.746000", "121245.746000", "121247.745000", "121249.747000", "121251.746000", "121253.746000", "121255.747000", "121257.747000", "121259.747000", "121301.746000", "121303.745000", "121305.745000", "121307.746000", "121309.746000", "121311.746000", "121313.746000", "121315.746000", "121317.746000", "121319.746000", "121321.745000", "121323.746000", "121325.746000", "121327.746000", "121329.746000", "121331.747000", "121333.746000", "121335.747000", "121337.745000", "121339.745000", "121341.746000", "121343.746000", "121345.746000", "121347.747000", "121349.747000", "121351.747000", "121353.747000", "121355.745000", "121357.746000", "121359.746000", "121401.746000", "121403.747000", "121405.746000", "121407.747000", "121409.747000", "121411.747000", "121413.745000", "121415.746000", "121417.746000", "121419.746000", "121421.747000", "121423.746000", "121425.747000", "121427.747000", "121429.747000", "121431.745000", "121433.746000", "121435.746000", "121437.746000", "121439.746000", "121441.747000", "121443.746000", "121445.746000", "121447.745000", "121449.746000", "121451.746000", "121453.747000", "121455.746000", "121457.746000", "121459.747000", "121501.746000", "121503.747000", "121505.745000", "121507.745000", "121509.747000", "121511.746000", "121513.747000", "121515.746000", "121517.747000", "121519.746000", "121521.746000", "121523.746000", "121525.745000", "121527.746000", "121529.746000", "121531.746000", "121533.746000", "121535.747000", "121537.746000", "121539.746000", "121541.746000", "121543.747000", "121545.746000", "121547.746000", "121549.747000", "121551.747000", "121553.746000", "121555.747000", "121557.745000", "121559.745000", "121601.747000", "121603.746000", "121605.747000", "121607.746000", "121609.746000", "121611.747000", "121613.746000", "121615.745000", "121617.745000", "121619.746000", "121621.747000", "121623.746000", "121625.746000", "121627.746000", "121629.747000", "121631.746000", "121633.745000", "121635.750000", "121637.746000", "121639.746000", "121641.746000", "121643.747000", "121645.746000", "121647.747000", "121649.747000", "121651.745000", "121653.747000", "121655.747000", "121657.746000", "121659.746000", "121701.747000", "121703.747000", "121705.746000", "121707.745000", "121709.745000", "121711.746000", "121713.746000", "121715.746000", "121717.747000", "121719.746000", "121721.747000", "121723.746000", "121725.745000", "121727.745000", "121729.746000", "121731.746000", "121733.746000", "121735.746000", "121737.746000", "121739.746000", "121741.746000", "121743.745000", "121745.746000", "121747.746000", "121749.746000", "121751.746000", "121753.746000", "121755.746000", "121757.746000", "121759.746000", "121801.745000", "121803.746000", "121805.746000", "121807.747000", "121809.747000", "121811.746000", "121813.747000", "121815.747000", "121817.745000", "121819.745000", "121821.747000", "121823.746000", "121825.747000", "121827.747000", "121829.746000", "121831.746000", "121833.747000", "121835.745000", "121837.745000", "121839.746000", "121841.746000", "121843.746000", "121845.747000", "121847.746000", "121849.746000", "121851.747000", "121853.746000", "121855.746000", "121857.746000", "121859.747000", "121901.747000", "121903.747000", "121905.747000", "121907.746000", "121909.350000"],
      "InstanceNumber": [1, 2, 3, 4, 5, 6, 7, 8, 9, 10, 11, 12, 13, 14, 15, 16, 17, 18, 19, 20, 21, 22, 23, 24, 25, 26, 27, 28, 29, 30, 31, 32, 33, 34, 35, 36, 37, 38, 39, 40, 41, 42, 43, 44, 45, 46, 47, 48, 49, 50, 51, 52, 53, 54, 55, 56, 57, 58, 59, 60, 61, 62, 63, 64, 65, 66, 67, 68, 69, 70, 71, 72, 73, 74, 75, 76, 77, 78, 79, 80, 81, 82, 83, 84, 85, 86, 87, 88, 89, 90, 91, 92, 93, 94, 95, 96, 97, 98, 99, 100, 101, 102, 103, 104, 105, 106, 107, 108, 109, 110, 111, 112, 113, 114, 115, 116, 117, 118, 119, 120, 121, 122, 123, 124, 125, 126, 127, 128, 129, 130, 131, 132, 133, 134, 135, 136, 137, 138, 139, 140, 141, 142, 143, 144, 145, 146, 147, 148, 149, 150, 151, 152, 153, 154, 155, 156, 157, 158, 159, 160, 161, 162, 163, 164, 165, 166, 167, 168, 169, 170, 171, 172, 173, 174, 175, 176, 177, 178, 179, 180, 181, 182, 183, 184, 185, 186, 187, 188, 189, 190, 191, 192, 193, 194, 195, 196, 197, 198, 199, 200, 201, 202, 203, 204, 205, 206, 207, 208, 209, 210, 211, 212, 213, 214, 215, 216, 217, 218, 219, 220, 221, 222, 223, 224, 225, 226, 227, 228, 229, 230, 231, 232],
      "LargestImagePixelValue": [4094, 3998, 4012, 3957, 3994, 3987, 3971, 3950, 3963, 3923, 3952, 3971, 3927, 3923, 3927, 3915, 3924, 3915, 3934, 3912, 3943, 3900, 3945, 3959, 3940, 3908, 3904, 3913, 3916, 3981, 3920, 3965, 3924, 3964, 3916, 3944, 3898, 3938, 3913, 3904, 3893, 3949, 3929, 3939, 3943, 3963, 3950, 3966, 3956, 3934, 3922, 3951, 3916, 3961, 3992, 3971, 3986, 3942, 3952, 3940, 3932, 3943, 3942, 3927, 3951, 3932, 3973, 3932, 3943, 3909, 3926, 3957, 3943, 3933, 3904, 3893, 3896, 3933, 3913, 3907, 3882, 3949, 3898, 3939, 3928, 3944, 3991, 3931, 3989, 3999, 3958, 3932, 3932, 3918, 3895, 3940, 3927, 3946, 3895, 3935, 3897, 3921, 3905, 3855, 3904, 3909, 3921, 3978, 3914, 3940, 3952, 3934, 3914, 3905, 3898, 3955, 3924, 3925, 3932, 3931, 3922, 3953, 3866, 3879, 3933, 3962, 3893, 3910, 3988, 3857, 3903, 3932, 3938, 3962, 3926, 3954, 3954, 3928, 3935, 3975, 3928, 3918, 3939, 3990, 3929, 3907, 3925, 3904, 3955, 3888, 3865, 3881, 3912, 3887, 3865, 3819, 3866, 3864, 3837, 3907, 3924, 3947, 3945, 3976, 3949, 4017, 3962, 4018, 3962, 3988, 4011, 3954, 3968, 3933, 3908, 3922, 3888, 3926, 3990, 3897, 3974, 3994, 3966, 3966, 3881, 3953, 3894, 3949, 3933, 3886, 3943, 3932, 3969, 3950, 3984, 3935, 3954, 3922, 4022, 3922, 4043, 3966, 4023, 4041, 4011, 4031, 3959, 4019, 4064, 3989, 3949, 3984, 3955, 3931, 3893, 3921, 3853, 3892, 3989, 3855, 3861, 3870, 3828, 3850, 3831, 3765, 3801, 3742, 3759, 3792, 3829, 3796],
      "WindowCenter": [830.0, 828.0, 828.0, 827.0, 828.0, 827.0, 829.0, 829.0, 828.0, 829.0, 830.0, 829.0, 828.0, 826.0, 827.0, 828.0, 828.0, 828.0, 829.0, 830.0, 831.0, 831.0, 831.0, 830.0, 829.0, 829.0, 829.0, 829.0, 829.0, 830.0, 829.0, 829.0, 827.0, 829.0, 828.0, 826.0, 825.0, 826.0, 826.0, 827.0, 826.0, 827.0, 827.0, 827.0, 827.0, 827.0, 827.0, 828.0, 828.0, 828.0, 828.0, 828.0, 827.0, 828.0, 830.0, 830.0, 831.0, 831.0, 831.0, 830.0, 829.0, 828.0, 827.0, 828.0, 828.0, 828.0, 828.0, 828.0, 828.0, 827.0, 826.0, 826.0, 826.0, 827.0, 826.0, 825.0, 823.0, 824.0, 825.0, 825.0, 824.0, 825.0, 825.0, 825.0, 826.0, 827.0, 827.0, 826.0, 828.0, 830.0, 831.0, 832.0, 832.0, 830.0, 828.0, 828.0, 829.0, 831.0, 829.0, 828.0, 826.0, 826.0, 825.0, 825.0, 826.0, 826.0, 830.0, 830.0, 827.0, 824.0, 824.0, 825.0, 825.0, 827.0, 828.0, 830.0, 829.0, 830.0, 832.0, 830.0, 828.0, 825.0, 824.0, 825.0, 825.0, 824.0, 824.0, 825.0, 826.0, 827.0, 829.0, 830.0, 831.0, 831.0, 831.0, 830.0, 828.0, 828.0, 829.0, 829.0, 829.0, 829.0, 831.0, 832.0, 831.0, 831.0, 831.0, 829.0, 827.0, 825.0, 826.0, 828.0, 829.0, 828.0, 827.0, 826.0, 826.0, 825.0, 824.0, 824.0, 825.0, 826.0, 826.0, 826.0, 824.0, 825.0, 825.0, 826.0, 826.0, 826.0, 827.0, 826.0, 825.0, 825.0, 825.0, 827.0, 826.0, 826.0, 827.0, 826.0, 826.0, 827.0, 827.0, 828.0, 828.0, 828.0, 828.0, 829.0, 829.0, 828.0, 827.0, 826.0, 827.0, 827.0, 828.0, 827.0, 827.0, 827.0, 827.0, 826.0, 826.0, 826.0, 828.0, 828.0, 826.0, 825.0, 823.0, 824.0, 823.0, 826.0, 826.0, 825.0, 824.0, 824.0, 824.0, 825.0, 824.0, 823.0, 825.0, 825.0, 824.0, 823.0, 823.0, 824.0, 826.0, 826.0, 826.0, 827.0, 827.0, 828.0, 827.0, 825.0],
      "WindowWidth": [1814.0, 1808.0, 1808.0, 1803.0, 1806.0, 1805.0, 1809.0, 1809.0, 1808.0, 1810.0, 1812.0, 1810.0, 1806.0, 1803.0, 1804.0, 1807.0, 1809.0, 1808.0, 1811.0, 1812.0, 1815.0, 1816.0, 1815.0, 1814.0, 1811.0, 1809.0, 1808.0, 1810.0, 1811.0, 1814.0, 1811.0, 1809.0, 1806.0, 1810.0, 1807.0, 1802.0, 1799.0, 1802.0, 1803.0, 1804.0, 1803.0, 1805.0, 1805.0, 1806.0, 1805.0, 1805.0, 1805.0, 1807.0, 1808.0, 1808.0, 1807.0, 1807.0, 1805.0, 1807.0, 1812.0, 1814.0, 1817.0, 1815.0, 1815.0, 1814.0, 1810.0, 1806.0, 1806.0, 1807.0, 1809.0, 1807.0, 1808.0, 1808.0, 1807.0, 1804.0, 1803.0, 1802.0, 1804.0, 1807.0, 1803.0, 1799.0, 1795.0, 1797.0, 1799.0, 1799.0, 1797.0, 1801.0, 1800.0, 1801.0, 1802.0, 1805.0, 1807.0, 1804.0, 1808.0, 1812.0, 1815.0, 1818.0, 1818.0, 1812.0, 1807.0, 1808.0, 1810.0, 1815.0, 1810.0, 1806.0, 1802.0, 1801.0, 1800.0, 1799.0, 1801.0, 1803.0, 1813.0, 1813.0, 1804.0, 1797.0, 1797.0, 1799.0, 1800.0, 1803.0, 1807.0, 1812.0, 1811.0, 1812.0, 1817.0, 1814.0, 1806.0, 1799.0, 1796.0, 1798.0, 1799.0, 1797.0, 1796.0, 1799.0, 1803.0, 1804.0, 1810.0, 1812.0, 1814.0, 1817.0, 1814.0, 1812.0, 1808.0, 1808.0, 1810.0, 1811.0, 1809.0, 1811.0, 1815.0, 1817.0, 1815.0, 1816.0, 1814.0, 1808.0, 1804.0, 1800.0, 1802.0, 1808.0, 1809.0, 1806.0, 1802.0, 1801.0, 1802.0, 1798.0, 1794.0, 1797.0, 1799.0, 1801.0, 1800.0, 1800.0, 1795.0, 1798.0, 1798.0, 1802.0, 1800.0, 1801.0, 1805.0, 1801.0, 1799.0, 1798.0, 1799.0, 1803.0, 1802.0, 1801.0, 1803.0, 1800.0, 1802.0, 1805.0, 1805.0, 1806.0, 1806.0, 1807.0, 1807.0, 1809.0, 1809.0, 1807.0, 1803.0, 1801.0, 1804.0, 1804.0, 1806.0, 1804.0, 1804.0, 1803.0, 1805.0, 1800.0, 1801.0, 1801.0, 1806.0, 1807.0, 1801.0, 1798.0, 1794.0, 1796.0, 1795.0, 1802.0, 1801.0, 1800.0, 1796.0, 1795.0, 1797.0, 1799.0, 1797.0, 1794.0, 1800.0, 1798.0, 1796.0, 1794.0, 1794.0, 1797.0, 1801.0, 1801.0, 1803.0, 1803.0, 1805.0, 1806.0, 1805.0, 1799.0]
    },
    "slices": {}
  }
}