{
  "AcquisitionMatrixPE": 100,
  "AcquisitionNumber": 1,
  "AcquisitionTime": "10:01:9.260000",
  "BandwidthPerPixelPhaseEncode": 18.519,
  "BaseResolution": 100,
  "BodyPartExamined": "BRAIN",
  "ConsistencyInfo": "N4_VE11C_LATEST_20160120",
  "ConversionSoftware": "dcm2niix",
  "ConversionSoftwareVersion": "v1.0.20180622 GCC4.9.2",
  "DerivedVendorReportedEchoSpacing": 0.000539986,
  "DeviceSerialNumber": "166078",
  "DwellTime": 2.1e-06,
  "EchoTime": 0.034,
  "EchoTrainLength": 100,
  "EffectiveEchoSpacing": 0.000539986,
  "FlipAngle": 90,
  "ImageOrientationPatientDICOM": [0.995651, 0.0856847, 0.0365798, -0.0643858, 0.916606, -0.394573],
  "ImageType": [
    "ORIGINAL",
    "PRIMARY",
    "M",
    "ND",
    "MOSAIC"
],
  "InPlanePhaseEncodingDirectionDICOM": "COL",
  "InstitutionAddress": "Street_StreetNo_Bei_Jing_District_CN_ZIP",
  "InstitutionName": "BeiJing_Normal_University",
  "InstitutionalDepartmentName": "Department",
  "MRAcquisitionType": "2D",
  "MagneticFieldStrength": 3,
  "Manufacturer": "Siemens",
  "ManufacturersModelName": "Prisma",
  "Modality": "MR",
  "MultibandAccelerationFactor": 3,
  "PartialFourier": 1,
  "PatientPosition": "HFS",
  "PercentPhaseFOV": 100,
  "PhaseEncodingDirection": "j-",
  "PhaseEncodingSteps": 100,
  "PhaseResolution": 1,
  "PixelBandwidth": 2380,
  "ProcedureStepDescription": "BNU_P2018_64CH_Liu.Jia",
  "ProtocolName": "bold_100x100_s3_2x2x2_232",
  "PulseSequenceDetails": "%SiemensSeq%_ep2d_bold",
  "ReceiveCoilActiveElements": "HC1-7;NC1",
  "ReceiveCoilName": "HeadNeck_64",
  "ReconMatrixPE": 100,
  "RepetitionTime": 2,
  "SAR": 0.0637031,
  "ScanOptions": "FS",
  "ScanningSequence": "EP",
  "SequenceName": "_epfid2d1_100",
  "SequenceVariant": "SK",
  "SeriesDescription": "bold_100x100_s3_2x2x2_232",
  "SeriesNumber": 9,
  "ShimSetting": [-5442, -11491, -1248, 370, 11, -235, -204, 4],
  "SliceThickness": 2,
  "SliceTiming": [1.485, 0, 0.99, 0.0825, 1.0725, 0.165, 1.155, 0.2475, 1.2375, 0.33, 1.32, 0.4125, 1.4025, 0.5775, 1.5675, 0.66, 1.65, 0.7425, 1.7325, 0.825, 1.815, 0.9075, 1.8975, 0.495, 1.485, 0, 0.99, 0.0825, 1.0725, 0.165, 1.155, 0.2475, 1.2375, 0.33, 1.32, 0.4125, 1.4025, 0.5775, 1.5675, 0.66, 1.65, 0.7425, 1.7325, 0.825, 1.815, 0.9075, 1.8975, 0.495, 1.485, 0, 0.99, 0.0825, 1.0725, 0.165, 1.155, 0.2475, 1.2375, 0.33, 1.32, 0.4125, 1.4025, 0.5775, 1.5675, 0.66, 1.65, 0.7425, 1.7325, 0.825, 1.815, 0.9075, 1.8975, 0.495],
  "SoftwareVersions": "syngo_MR_E11",
  "SpacingBetweenSlices": 2,
  "StationName": "AWP166078",
  "TaskName": "motor",
  "TotalReadoutTime": 0.0534586,
  "TxRefAmp": 217.447,
  "dcmmeta_affine": [
    [-1.99130117893219, -0.12877154350280762, 0.13467636704444885, 101.9794692993164],
    [-0.17136947810649872, 1.833211898803711, -0.7810035347938538, -45.96924591064453],
    [0.07315963506698608, 0.7891463041305542, 1.8362722396850586, -105.71505737304688],
    [0.0, 0.0, 0.0, 1.0]
],
  "dcmmeta_reorient_transform": [
    [0.0, -1.0, 0.0, 99.0],
    [1.0, 0.0, 0.0, 0.0],
    [0.0, 0.0, 1.0, 0.0],
    [0.0, 0.0, 0.0, 1.0]
],
  "dcmmeta_shape": [100, 100, 72, 232],
  "dcmmeta_slice_dim": 2,
  "dcmmeta_version": 0.6,
  "global": {
    "const": {
      "AcquisitionMatrix": [100, 0, 0, 100],
      "AngioFlag": "N",
      "BitsAllocated": 16,
      "BitsStored": 12,
      "BodyPartExamined": "BRAIN",
      "Columns": 900,
      "EchoNumbers": 1,
      "EchoTime": 34.0,
      "EchoTrainLength": 100,
      "FlipAngle": 90.0,
      "HighBit": 11,
      "ImageOrientationPatient": [0.9956505621638, 0.08568474136823, 0.03657981902054, -0.0643857727043, 0.91660596769175, -0.3945731519822],
      "ImagePositionPatient": [-834.24292167194, -937.35130337615, 258.80509509394],
      "ImageType": [
        "ORIGINAL",
        "PRIMARY",
        "M",
        "ND",
        "MOSAIC"
],
      "ImagedNucleus": "1H",
      "ImagingFrequency": 123.25787,
      "InPlanePhaseEncodingDirection": "COL",
      "MRAcquisitionType": "2D",
      "MagneticFieldStrength": 3.0,
      "Manufacturer": "SIEMENS",
      "ManufacturerModelName": "Prisma",
      "Modality": "MR",
      "NumberOfAverages": 1.0,
      "NumberOfPhaseEncodingSteps": 100,
      "PercentPhaseFieldOfView": 100.0,
      "PercentSampling": 100.0,
      "PerformedProcedureStepStartTime": "090027.078000",
      "PhotometricInterpretation": "MONOCHROME2",
      "PixelBandwidth": 2380.0,
      "PixelRepresentation": 0,
      "PixelSpacing": [2.0, 2.0],
      "ProtocolName": "bold_100x100_s3_2x2x2_232",
      "RepetitionTime": 2000.0,
      "Rows": 900,
      "SAR": 0.06370307327209,
      "SamplesPerPixel": 1,
      "ScanOptions": "FS",
      "ScanningSequence": "EP",
      "SequenceName": "*epfid2d1_100",
      "SequenceVariant": "SK",
      "SeriesDescription": "bold_100x100_s3_2x2x2_232",
      "SeriesNumber": 9,
      "SeriesTime": "100111.964000",
      "SliceLocation": -72.242628023597,
      "SliceThickness": 2.0,
      "SmallestImagePixelValue": 0,
      "SoftwareVersions": "syngo MR E11",
      "SpacingBetweenSlices": 2.0000000392497,
      "SpecificCharacterSet": "ISO_IR 100",
      "StudyID": "1",
      "StudyTime": "090026.954000",
      "TransmitCoilName": "Body",
      "VariableFlipAngleFlag": "N",
      "WindowCenterWidthExplanation": "Algo1",
      "dBdt": 0.0},
    "slices": {}
  },
  "time": {
    "samples": {
      "AcquisitionNumber": [1, 2, 3, 4, 5, 6, 7, 8, 9, 10, 11, 12, 13, 14, 15, 16, 17, 18, 19, 20, 21, 22, 23, 24, 25, 26, 27, 28, 29, 30, 31, 32, 33, 34, 35, 36, 37, 38, 39, 40, 41, 42, 43, 44, 45, 46, 47, 48, 49, 50, 51, 52, 53, 54, 55, 56, 57, 58, 59, 60, 61, 62, 63, 64, 65, 66, 67, 68, 69, 70, 71, 72, 73, 74, 75, 76, 77, 78, 79, 80, 81, 82, 83, 84, 85, 86, 87, 88, 89, 90, 91, 92, 93, 94, 95, 96, 97, 98, 99, 100, 101, 102, 103, 104, 105, 106, 107, 108, 109, 110, 111, 112, 113, 114, 115, 116, 117, 118, 119, 120, 121, 122, 123, 124, 125, 126, 127, 128, 129, 130, 131, 132, 133, 134, 135, 136, 137, 138, 139, 140, 141, 142, 143, 144, 145, 146, 147, 148, 149, 150, 151, 152, 153, 154, 155, 156, 157, 158, 159, 160, 161, 162, 163, 164, 165, 166, 167, 168, 169, 170, 171, 172, 173, 174, 175, 176, 177, 178, 179, 180, 181, 182, 183, 184, 185, 186, 187, 188, 189, 190, 191, 192, 193, 194, 195, 196, 197, 198, 199, 200, 201, 202, 203, 204, 205, 206, 207, 208, 209, 210, 211, 212, 213, 214, 215, 216, 217, 218, 219, 220, 221, 222, 223, 224, 225, 226, 227, 228, 229, 230, 231, 232],
      "AcquisitionTime": ["100109.260000", "100111.260000", "100113.260000", "100115.260000", "100117.260000", "100119.260000", "100121.260000", "100123.260000", "100125.260000", "100127.260000", "100129.260000", "100131.260000", "100133.260000", "100135.260000", "100137.260000", "100139.260000", "100141.260000", "100143.260000", "100145.260000", "100147.260000", "100149.260000", "100151.260000", "100153.260000", "100155.260000", "100157.260000", "100159.260000", "100201.260000", "100203.260000", "100205.260000", "100207.260000", "100209.260000", "100211.260000", "100213.260000", "100215.260000", "100217.260000", "100219.260000", "100221.260000", "100223.260000", "100225.260000", "100227.260000", "100229.260000", "100231.260000", "100233.260000", "100235.260000", "100237.260000", "100239.260000", "100241.260000", "100243.260000", "100245.260000", "100247.260000", "100249.260000", "100251.260000", "100253.260000", "100255.260000", "100257.260000", "100259.260000", "100301.260000", "100303.260000", "100305.260000", "100307.260000", "100309.260000", "100311.260000", "100313.260000", "100315.260000", "100317.260000", "100319.260000", "100321.260000", "100323.260000", "100325.260000", "100327.260000", "100329.260000", "100331.260000", "100333.260000", "100335.260000", "100337.260000", "100339.260000", "100341.260000", "100343.260000", "100345.260000", "100347.260000", "100349.260000", "100351.260000", "100353.260000", "100355.260000", "100357.260000", "100359.260000", "100401.260000", "100403.260000", "100405.260000", "100407.260000", "100409.260000", "100411.260000", "100413.260000", "100415.260000", "100417.260000", "100419.260000", "100421.260000", "100423.260000", "100425.260000", "100427.260000", "100429.260000", "100431.260000", "100433.260000", "100435.260000", "100437.260000", "100439.260000", "100441.260000", "100443.260000", "100445.260000", "100447.260000", "100449.260000", "100451.260000", "100453.260000", "100455.260000", "100457.260000", "100459.260000", "100501.260000", "100503.260000", "100505.260000", "100507.260000", "100509.260000", "100511.260000", "100513.260000", "100515.260000", "100517.260000", "100519.260000", "100521.260000", "100523.260000", "100525.260000", "100527.260000", "100529.260000", "100531.260000", "100533.260000", "100535.260000", "100537.260000", "100539.260000", "100541.260000", "100543.260000", "100545.260000", "100547.260000", "100549.260000", "100551.260000", "100553.260000", "100555.260000", "100557.260000", "100559.260000", "100601.260000", "100603.260000", "100605.260000", "100607.260000", "100609.260000", "100611.260000", "100613.260000", "100615.260000", "100617.260000", "100619.260000", "100621.260000", "100623.260000", "100625.260000", "100627.260000", "100629.260000", "100631.260000", "100633.260000", "100635.260000", "100637.260000", "100639.260000", "100641.260000", "100643.260000", "100645.260000", "100647.260000", "100649.260000", "100651.260000", "100653.260000", "100655.260000", "100657.260000", "100659.260000", "100701.260000", "100703.260000", "100705.260000", "100707.260000", "100709.260000", "100711.260000", "100713.260000", "100715.260000", "100717.260000", "100719.260000", "100721.260000", "100723.260000", "100725.260000", "100727.260000", "100729.260000", "100731.260000", "100733.260000", "100735.260000", "100737.260000", "100739.260000", "100741.260000", "100743.260000", "100745.260000", "100747.260000", "100749.260000", "100751.260000", "100753.260000", "100755.260000", "100757.260000", "100759.260000", "100801.260000", "100803.260000", "100805.260000", "100807.260000", "100809.260000", "100811.260000", "100813.260000", "100815.260000", "100817.260000", "100819.260000", "100821.260000", "100823.260000", "100825.260000", "100827.260000", "100829.260000", "100831.260000", "100833.260000", "100835.260000", "100837.260000", "100839.260000", "100841.260000", "100843.260000", "100845.260000", "100847.260000", "100849.260000", "100851.260000"],
      "ContentTime": ["100111.968000", "100113.463000", "100115.464000", "100117.464000", "100119.462000", "100121.463000", "100123.462000", "100125.462000", "100127.463000", "100129.464000", "100131.463000", "100133.463000", "100135.463000", "100137.462000", "100139.462000", "100141.462000", "100143.463000", "100145.463000", "100147.463000", "100149.463000", "100151.464000", "100153.462000", "100155.462000", "100157.463000", "100159.462000", "100201.464000", "100203.464000", "100205.463000", "100207.464000", "100209.463000", "100211.462000", "100213.462000", "100215.463000", "100217.463000", "100219.463000", "100221.463000", "100223.463000", "100225.463000", "100227.464000", "100229.462000", "100231.462000", "100233.463000", "100235.462000", "100237.463000", "100239.463000", "100241.463000", "100243.463000", "100245.464000", "100247.462000", "100249.462000", "100251.462000", "100253.463000", "100255.464000", "100257.463000", "100259.463000", "100301.463000", "100303.462000", "100305.462000", "100307.462000", "100309.462000", "100311.463000", "100313.463000", "100315.463000", "100317.464000", "100319.464000", "100321.462000", "100323.463000", "100325.463000", "100327.462000", "100329.463000", "100331.463000", "100333.463000", "100335.463000", "100337.464000", "100339.462000", "100341.462000", "100343.462000", "100345.462000", "100347.464000", "100349.463000", "100351.463000", "100353.463000", "100355.463000", "100357.462000", "100359.462000", "100401.462000", "100403.464000", "100405.463000", "100407.463000", "100409.464000", "100411.464000", "100413.463000", "100415.462000", "100417.462000", "100419.462000", "100421.464000", "100423.463000", "100425.464000", "100427.464000", "100429.463000", "100431.462000", "100433.463000", "100435.462000", "100437.462000", "100439.464000", "100441.463000", "100443.464000", "100445.463000", "100447.463000", "100449.462000", "100451.462000", "100453.463000", "100455.463000", "100457.463000", "100459.463000", "100501.463000", "100503.463000", "100505.464000", "100507.463000", "100509.463000", "100511.462000", "100513.464000", "100515.464000", "100517.463000", "100519.463000", "100521.463000", "100523.463000", "100525.462000", "100527.462000", "100529.462000", "100531.464000", "100533.464000", "100535.463000", "100537.463000", "100539.463000", "100541.462000", "100543.463000", "100545.463000", "100547.462000", "100549.463000", "100551.464000", "100553.464000", "100555.464000", "100557.463000", "100559.463000", "100601.463000", "100603.463000", "100605.463000", "100607.463000", "100609.463000", "100611.463000", "100613.463000", "100615.463000", "100617.462000", "100619.463000", "100621.462000", "100623.463000", "100625.463000", "100627.463000", "100629.463000", "100631.463000", "100633.462000", "100635.463000", "100637.462000", "100639.462000", "100641.464000", "100643.463000", "100645.463000", "100647.463000", "100649.464000", "100651.462000", "100653.462000", "100655.463000", "100657.462000", "100659.463000", "100701.464000", "100703.463000", "100705.463000", "100707.463000", "100709.462000", "100711.463000", "100713.462000", "100715.463000", "100717.463000", "100719.464000", "100721.464000", "100723.463000", "100725.463000", "100727.462000", "100729.463000", "100731.463000", "100733.464000", "100735.463000", "100737.463000", "100739.463000", "100741.463000", "100743.462000", "100745.462000", "100747.462000", "100749.462000", "100751.463000", "100753.463000", "100755.464000", "100757.464000", "100759.464000", "100801.463000", "100803.462000", "100805.463000", "100807.463000", "100809.464000", "100811.463000", "100813.463000", "100815.463000", "100817.464000", "100819.463000", "100821.462000", "100823.462000", "100825.462000", "100827.464000", "100829.463000", "100831.463000", "100833.463000", "100835.463000", "100837.463000", "100839.463000", "100841.462000", "100843.464000", "100845.463000", "100847.463000", "100849.463000", "100851.464000", "100853.200000"],
      "InstanceCreationTime": ["100111.968000", "100113.463000", "100115.464000", "100117.464000", "100119.462000", "100121.463000", "100123.462000", "100125.462000", "100127.463000", "100129.464000", "100131.463000", "100133.463000", "100135.463000", "100137.462000", "100139.462000", "100141.462000", "100143.463000", "100145.463000", "100147.463000", "100149.463000", "100151.464000", "100153.462000", "100155.462000", "100157.463000", "100159.462000", "100201.464000", "100203.464000", "100205.463000", "100207.464000", "100209.463000", "100211.462000", "100213.462000", "100215.463000", "100217.463000", "100219.463000", "100221.463000", "100223.463000", "100225.463000", "100227.464000", "100229.462000", "100231.462000", "100233.463000", "100235.462000", "100237.463000", "100239.463000", "100241.463000", "100243.463000", "100245.464000", "100247.462000", "100249.462000", "100251.462000", "100253.463000", "100255.464000", "100257.463000", "100259.463000", "100301.463000", "100303.462000", "100305.462000", "100307.462000", "100309.462000", "100311.463000", "100313.463000", "100315.463000", "100317.464000", "100319.464000", "100321.462000", "100323.463000", "100325.463000", "100327.462000", "100329.463000", "100331.463000", "100333.463000", "100335.463000", "100337.464000", "100339.462000", "100341.462000", "100343.462000", "100345.462000", "100347.464000", "100349.463000", "100351.463000", "100353.463000", "100355.463000", "100357.462000", "100359.462000", "100401.462000", "100403.464000", "100405.463000", "100407.463000", "100409.464000", "100411.464000", "100413.463000", "100415.462000", "100417.462000", "100419.462000", "100421.464000", "100423.463000", "100425.464000", "100427.464000", "100429.463000", "100431.462000", "100433.463000", "100435.462000", "100437.462000", "100439.464000", "100441.463000", "100443.464000", "100445.463000", "100447.463000", "100449.462000", "100451.462000", "100453.463000", "100455.463000", "100457.463000", "100459.463000", "100501.463000", "100503.463000", "100505.464000", "100507.463000", "100509.463000", "100511.462000", "100513.464000", "100515.464000", "100517.463000", "100519.463000", "100521.463000", "100523.463000", "100525.462000", "100527.462000", "100529.462000", "100531.464000", "100533.464000", "100535.463000", "100537.463000", "100539.463000", "100541.462000", "100543.463000", "100545.463000", "100547.462000", "100549.463000", "100551.464000", "100553.464000", "100555.464000", "100557.463000", "100559.463000", "100601.463000", "100603.463000", "100605.463000", "100607.463000", "100609.463000", "100611.463000", "100613.463000", "100615.463000", "100617.462000", "100619.463000", "100621.462000", "100623.463000", "100625.463000", "100627.463000", "100629.463000", "100631.463000", "100633.462000", "100635.463000", "100637.462000", "100639.462000", "100641.464000", "100643.463000", "100645.463000", "100647.463000", "100649.464000", "100651.462000", "100653.462000", "100655.463000", "100657.462000", "100659.463000", "100701.464000", "100703.463000", "100705.463000", "100707.463000", "100709.462000", "100711.463000", "100713.462000", "100715.463000", "100717.463000", "100719.464000", "100721.464000", "100723.463000", "100725.463000", "100727.462000", "100729.463000", "100731.463000", "100733.464000", "100735.463000", "100737.463000", "100739.463000", "100741.463000", "100743.462000", "100745.462000", "100747.462000", "100749.462000", "100751.463000", "100753.463000", "100755.464000", "100757.464000", "100759.464000", "100801.463000", "100803.462000", "100805.463000", "100807.463000", "100809.464000", "100811.463000", "100813.463000", "100815.463000", "100817.464000", "100819.463000", "100821.462000", "100823.462000", "100825.462000", "100827.464000", "100829.463000", "100831.463000", "100833.463000", "100835.463000", "100837.463000", "100839.463000", "100841.462000", "100843.464000", "100845.463000", "100847.463000", "100849.463000", "100851.464000", "100853.200000"],
      "InstanceNumber": [1, 2, 3, 4, 5, 6, 7, 8, 9, 10, 11, 12, 13, 14, 15, 16, 17, 18, 19, 20, 21, 22, 23, 24, 25, 26, 27, 28, 29, 30, 31, 32, 33, 34, 35, 36, 37, 38, 39, 40, 41, 42, 43, 44, 45, 46, 47, 48, 49, 50, 51, 52, 53, 54, 55, 56, 57, 58, 59, 60, 61, 62, 63, 64, 65, 66, 67, 68, 69, 70, 71, 72, 73, 74, 75, 76, 77, 78, 79, 80, 81, 82, 83, 84, 85, 86, 87, 88, 89, 90, 91, 92, 93, 94, 95, 96, 97, 98, 99, 100, 101, 102, 103, 104, 105, 106, 107, 108, 109, 110, 111, 112, 113, 114, 115, 116, 117, 118, 119, 120, 121, 122, 123, 124, 125, 126, 127, 128, 129, 130, 131, 132, 133, 134, 135, 136, 137, 138, 139, 140, 141, 142, 143, 144, 145, 146, 147, 148, 149, 150, 151, 152, 153, 154, 155, 156, 157, 158, 159, 160, 161, 162, 163, 164, 165, 166, 167, 168, 169, 170, 171, 172, 173, 174, 175, 176, 177, 178, 179, 180, 181, 182, 183, 184, 185, 186, 187, 188, 189, 190, 191, 192, 193, 194, 195, 196, 197, 198, 199, 200, 201, 202, 203, 204, 205, 206, 207, 208, 209, 210, 211, 212, 213, 214, 215, 216, 217, 218, 219, 220, 221, 222, 223, 224, 225, 226, 227, 228, 229, 230, 231, 232],
      "LargestImagePixelValue": [4010, 3907, 3882, 3876, 3857, 3862, 3848, 3849, 3860, 3751, 3759, 3859, 3704, 3551, 3813, 3629, 3852, 3711, 3774, 3809, 3843, 3849, 3849, 3849, 3880, 3846, 3800, 3834, 3800, 3847, 3846, 3802, 3827, 4095, 3923, 3956, 3997, 3997, 4000, 3977, 3923, 3814, 3709, 3776, 3803, 3814, 3847, 3840, 3807, 3734, 3649, 3555, 3566, 3707, 3739, 3730, 3782, 3803, 3847, 3889, 3926, 3888, 3879, 3920, 3884, 3849, 3838, 3802, 3790, 3748, 3827, 3831, 3821, 3885, 3856, 3848, 3827, 3831, 3850, 3846, 3839, 3819, 3804, 3818, 3824, 3777, 3805, 3806, 3841, 3862, 3803, 3801, 3765, 3815, 3818, 3830, 3844, 3841, 3872, 3856, 3851, 3852, 3861, 3882, 3887, 3524, 4095, 3735, 3529, 3941, 3508, 3797, 3762, 3739, 3882, 3806, 3797, 3815, 3786, 3797, 3842, 3849, 3814, 3589, 3764, 3754, 3534, 3914, 3738, 3899, 3816, 3815, 3825, 3822, 3839, 3836, 3825, 3829, 3750, 3677, 3708, 3741, 3735, 3759, 3764, 3762, 3776, 3819, 3785, 3778, 3778, 3793, 3788, 3803, 3823, 3798, 3810, 3787, 3762, 3745, 3804, 3795, 3814, 3806, 3748, 3785, 3783, 3787, 3761, 3688, 3471, 3808, 3766, 3744, 3801, 3850, 3856, 3742, 3693, 3520, 3730, 3550, 3511, 3712, 3696, 3846, 3729, 3783, 3769, 3776, 3758, 3733, 3686, 3965, 3893, 3891, 3937, 3958, 3948, 3956, 3717, 4062, 3819, 3746, 3776, 3776, 3738, 3768, 3752, 3794, 3760, 3736, 3745, 3812, 3740, 3801, 3782, 3900, 3673, 3967, 3789, 3535, 3560, 3736, 3737, 3918, 3829, 3774, 3825, 3821, 3818, 3801],
      "WindowCenter": [822.0, 821.0, 822.0, 821.0, 822.0, 823.0, 823.0, 822.0, 820.0, 815.0, 825.0, 826.0, 824.0, 810.0, 818.0, 816.0, 828.0, 827.0, 827.0, 827.0, 826.0, 826.0, 826.0, 825.0, 825.0, 824.0, 823.0, 823.0, 821.0, 821.0, 820.0, 819.0, 810.0, 832.0, 827.0, 827.0, 827.0, 826.0, 826.0, 826.0, 827.0, 819.0, 822.0, 823.0, 824.0, 824.0, 825.0, 825.0, 821.0, 823.0, 815.0, 816.0, 821.0, 822.0, 820.0, 818.0, 817.0, 815.0, 813.0, 813.0, 814.0, 815.0, 814.0, 815.0, 817.0, 819.0, 822.0, 824.0, 819.0, 820.0, 824.0, 823.0, 821.0, 823.0, 823.0, 825.0, 825.0, 825.0, 825.0, 825.0, 824.0, 825.0, 824.0, 824.0, 822.0, 822.0, 821.0, 820.0, 820.0, 822.0, 823.0, 823.0, 822.0, 822.0, 821.0, 820.0, 820.0, 820.0, 820.0, 820.0, 820.0, 821.0, 820.0, 820.0, 819.0, 804.0, 822.0, 816.0, 812.0, 819.0, 809.0, 823.0, 825.0, 822.0, 824.0, 822.0, 822.0, 823.0, 822.0, 821.0, 810.0, 813.0, 820.0, 814.0, 816.0, 813.0, 814.0, 816.0, 821.0, 824.0, 822.0, 822.0, 822.0, 822.0, 822.0, 823.0, 821.0, 823.0, 822.0, 822.0, 823.0, 823.0, 822.0, 821.0, 821.0, 821.0, 820.0, 820.0, 820.0, 821.0, 821.0, 821.0, 820.0, 820.0, 821.0, 821.0, 822.0, 823.0, 823.0, 822.0, 822.0, 823.0, 823.0, 823.0, 822.0, 823.0, 822.0, 820.0, 813.0, 818.0, 816.0, 820.0, 819.0, 818.0, 816.0, 815.0, 813.0, 813.0, 810.0, 813.0, 815.0, 814.0, 815.0, 817.0, 815.0, 816.0, 816.0, 816.0, 817.0, 818.0, 818.0, 819.0, 807.0, 827.0, 829.0, 831.0, 832.0, 831.0, 831.0, 830.0, 811.0, 828.0, 822.0, 823.0, 824.0, 824.0, 823.0, 824.0, 824.0, 825.0, 825.0, 825.0, 825.0, 824.0, 822.0, 822.0, 809.0, 828.0, 802.0, 824.0, 819.0, 809.0, 817.0, 810.0, 818.0, 825.0, 820.0, 821.0, 821.0, 820.0, 821.0, 822.0],
      "WindowWidth": [1770.0, 1767.0, 1768.0, 1768.0, 1769.0, 1771.0, 1770.0, 1771.0, 1765.0, 1753.0, 1778.0, 1779.0, 1775.0, 1740.0, 1762.0, 1754.0, 1788.0, 1781.0, 1780.0, 1781.0, 1779.0, 1779.0, 1780.0, 1777.0, 1776.0, 1775.0, 1771.0, 1770.0, 1767.0, 1765.0, 1763.0, 1762.0, 1742.0, 1798.0, 1783.0, 1782.0, 1783.0, 1781.0, 1781.0, 1780.0, 1784.0, 1765.0, 1769.0, 1771.0, 1774.0, 1774.0, 1777.0, 1778.0, 1767.0, 1773.0, 1750.0, 1756.0, 1768.0, 1770.0, 1765.0, 1760.0, 1755.0, 1751.0, 1746.0, 1746.0, 1749.0, 1751.0, 1749.0, 1752.0, 1755.0, 1761.0, 1768.0, 1772.0, 1761.0, 1763.0, 1773.0, 1770.0, 1767.0, 1772.0, 1773.0, 1777.0, 1777.0, 1777.0, 1777.0, 1777.0, 1775.0, 1776.0, 1773.0, 1773.0, 1770.0, 1769.0, 1767.0, 1764.0, 1764.0, 1767.0, 1770.0, 1772.0, 1769.0, 1768.0, 1765.0, 1763.0, 1764.0, 1764.0, 1764.0, 1764.0, 1762.0, 1765.0, 1764.0, 1764.0, 1762.0, 1725.0, 1770.0, 1754.0, 1744.0, 1763.0, 1737.0, 1773.0, 1777.0, 1768.0, 1776.0, 1769.0, 1769.0, 1770.0, 1770.0, 1767.0, 1740.0, 1748.0, 1766.0, 1749.0, 1754.0, 1747.0, 1748.0, 1756.0, 1766.0, 1775.0, 1768.0, 1768.0, 1768.0, 1769.0, 1769.0, 1770.0, 1767.0, 1772.0, 1767.0, 1768.0, 1771.0, 1771.0, 1769.0, 1767.0, 1766.0, 1766.0, 1763.0, 1764.0, 1764.0, 1766.0, 1765.0, 1765.0, 1763.0, 1763.0, 1765.0, 1766.0, 1769.0, 1770.0, 1770.0, 1768.0, 1769.0, 1771.0, 1771.0, 1771.0, 1769.0, 1770.0, 1768.0, 1764.0, 1745.0, 1758.0, 1751.0, 1763.0, 1761.0, 1758.0, 1754.0, 1750.0, 1745.0, 1744.0, 1739.0, 1746.0, 1751.0, 1747.0, 1750.0, 1755.0, 1751.0, 1754.0, 1752.0, 1754.0, 1756.0, 1758.0, 1759.0, 1761.0, 1733.0, 1784.0, 1788.0, 1792.0, 1795.0, 1793.0, 1792.0, 1790.0, 1743.0, 1787.0, 1770.0, 1772.0, 1774.0, 1775.0, 1771.0, 1773.0, 1773.0, 1776.0, 1777.0, 1776.0, 1776.0, 1775.0, 1769.0, 1770.0, 1739.0, 1787.0, 1720.0, 1779.0, 1764.0, 1737.0, 1757.0, 1740.0, 1762.0, 1775.0, 1765.0, 1765.0, 1765.0, 1763.0, 1766.0, 1768.0]
    },
    "slices": {}
  }
}