{
  "AcquisitionMatrixPE": 100,
  "AcquisitionNumber": 1,
  "AcquisitionTime": "09:22:49.210000",
  "BandwidthPerPixelPhaseEncode": 18.519,
  "BaseResolution": 100,
  "BodyPartExamined": "BRAIN",
  "ConsistencyInfo": "N4_VE11C_LATEST_20160120",
  "ConversionSoftware": "dcm2niix",
  "ConversionSoftwareVersion": "v1.0.20180622 GCC4.9.2",
  "DerivedVendorReportedEchoSpacing": 0.000539986,
  "DeviceSerialNumber": "166078",
  "DwellTime": 2.1e-06,
  "EchoTime": 0.034,
  "EchoTrainLength": 100,
  "EffectiveEchoSpacing": 0.000539986,
  "FlipAngle": 90,
  "ImageOrientationPatientDICOM": [0.995651, 0.0856847, 0.0365798, -0.0643858, 0.916606, -0.394573],
  "ImageType": [
    "ORIGINAL",
    "PRIMARY",
    "M",
    "ND",
    "MOSAIC"
],
  "InPlanePhaseEncodingDirectionDICOM": "COL",
  "InstitutionAddress": "Street_StreetNo_Bei_Jing_District_CN_ZIP",
  "InstitutionName": "BeiJing_Normal_University",
  "InstitutionalDepartmentName": "Department",
  "MRAcquisitionType": "2D",
  "MagneticFieldStrength": 3,
  "Manufacturer": "Siemens",
  "ManufacturersModelName": "Prisma",
  "Modality": "MR",
  "MultibandAccelerationFactor": 3,
  "PartialFourier": 1,
  "PatientPosition": "HFS",
  "PercentPhaseFOV": 100,
  "PhaseEncodingDirection": "j-",
  "PhaseEncodingSteps": 100,
  "PhaseResolution": 1,
  "PixelBandwidth": 2380,
  "ProcedureStepDescription": "BNU_P2018_64CH_Liu.Jia",
  "ProtocolName": "bold_100x100_s3_2x2x2_232",
  "PulseSequenceDetails": "%SiemensSeq%_ep2d_bold",
  "ReceiveCoilActiveElements": "HC1-7;NC1",
  "ReceiveCoilName": "HeadNeck_64",
  "ReconMatrixPE": 100,
  "RepetitionTime": 2,
  "SAR": 0.0637031,
  "ScanOptions": "FS",
  "ScanningSequence": "EP",
  "SequenceName": "_epfid2d1_100",
  "SequenceVariant": "SK",
  "SeriesDescription": "bold_100x100_s3_2x2x2_232",
  "SeriesNumber": 3,
  "ShimSetting": [-5442, -11491, -1248, 370, 11, -235, -204, 4],
  "SliceThickness": 2,
  "SliceTiming": [1.485, 0, 0.99, 0.0825, 1.0725, 0.165, 1.155, 0.2475, 1.2375, 0.33, 1.32, 0.4125, 1.4025, 0.5775, 1.5675, 0.66, 1.65, 0.7425, 1.7325, 0.825, 1.815, 0.9075, 1.8975, 0.495, 1.485, 0, 0.99, 0.0825, 1.0725, 0.165, 1.155, 0.2475, 1.2375, 0.33, 1.32, 0.4125, 1.4025, 0.5775, 1.5675, 0.66, 1.65, 0.7425, 1.7325, 0.825, 1.815, 0.9075, 1.8975, 0.495, 1.485, 0, 0.99, 0.0825, 1.0725, 0.165, 1.155, 0.2475, 1.2375, 0.33, 1.32, 0.4125, 1.4025, 0.5775, 1.5675, 0.66, 1.65, 0.7425, 1.7325, 0.825, 1.815, 0.9075, 1.8975, 0.495],
  "SoftwareVersions": "syngo_MR_E11",
  "SpacingBetweenSlices": 2,
  "StationName": "AWP166078",
  "TaskName": "motor",
  "TotalReadoutTime": 0.0534586,
  "TxRefAmp": 217.447,
  "dcmmeta_affine": [
    [-1.99130117893219, -0.12877154350280762, 0.13467636704444885, 101.9794692993164],
    [-0.17136947810649872, 1.833211898803711, -0.7810035347938538, -45.96924591064453],
    [0.07315963506698608, 0.7891463041305542, 1.8362722396850586, -105.71505737304688],
    [0.0, 0.0, 0.0, 1.0]
],
  "dcmmeta_reorient_transform": [
    [0.0, -1.0, 0.0, 99.0],
    [1.0, 0.0, 0.0, 0.0],
    [0.0, 0.0, 1.0, 0.0],
    [0.0, 0.0, 0.0, 1.0]
],
  "dcmmeta_shape": [100, 100, 72, 232],
  "dcmmeta_slice_dim": 2,
  "dcmmeta_version": 0.6,
  "global": {
    "const": {
      "AcquisitionMatrix": [100, 0, 0, 100],
      "AngioFlag": "N",
      "BitsAllocated": 16,
      "BitsStored": 12,
      "BodyPartExamined": "BRAIN",
      "Columns": 900,
      "EchoNumbers": 1,
      "EchoTime": 34.0,
      "EchoTrainLength": 100,
      "FlipAngle": 90.0,
      "HighBit": 11,
      "ImageOrientationPatient": [0.9956505621638, 0.08568474136823, 0.03657981902054, -0.0643857727043, 0.91660596769175, -0.3945731519822],
      "ImagePositionPatient": [-834.24292167194, -937.35130337615, 258.80509509394],
      "ImageType": [
        "ORIGINAL",
        "PRIMARY",
        "M",
        "ND",
        "MOSAIC"
],
      "ImagedNucleus": "1H",
      "ImagingFrequency": 123.257844,
      "InPlanePhaseEncodingDirection": "COL",
      "MRAcquisitionType": "2D",
      "MagneticFieldStrength": 3.0,
      "Manufacturer": "SIEMENS",
      "ManufacturerModelName": "Prisma",
      "Modality": "MR",
      "NumberOfAverages": 1.0,
      "NumberOfPhaseEncodingSteps": 100,
      "PercentPhaseFieldOfView": 100.0,
      "PercentSampling": 100.0,
      "PerformedProcedureStepStartTime": "090027.078000",
      "PhotometricInterpretation": "MONOCHROME2",
      "PixelBandwidth": 2380.0,
      "PixelRepresentation": 0,
      "PixelSpacing": [2.0, 2.0],
      "ProtocolName": "bold_100x100_s3_2x2x2_232",
      "RepetitionTime": 2000.0,
      "Rows": 900,
      "SAR": 0.06370307327209,
      "SamplesPerPixel": 1,
      "ScanOptions": "FS",
      "ScanningSequence": "EP",
      "SequenceName": "*epfid2d1_100",
      "SequenceVariant": "SK",
      "SeriesDescription": "bold_100x100_s3_2x2x2_232",
      "SeriesNumber": 3,
      "SeriesTime": "092252.126000",
      "SliceLocation": -72.242628023597,
      "SliceThickness": 2.0,
      "SmallestImagePixelValue": 0,
      "SoftwareVersions": "syngo MR E11",
      "SpacingBetweenSlices": 2.0000000392497,
      "SpecificCharacterSet": "ISO_IR 100",
      "StudyID": "1",
      "StudyTime": "090026.954000",
      "TransmitCoilName": "Body",
      "VariableFlipAngleFlag": "N",
      "WindowCenterWidthExplanation": "Algo1",
      "dBdt": 0.0},
    "slices": {}
  },
  "time": {
    "samples": {
      "AcquisitionNumber": [1, 2, 3, 4, 5, 6, 7, 8, 9, 10, 11, 12, 13, 14, 15, 16, 17, 18, 19, 20, 21, 22, 23, 24, 25, 26, 27, 28, 29, 30, 31, 32, 33, 34, 35, 36, 37, 38, 39, 40, 41, 42, 43, 44, 45, 46, 47, 48, 49, 50, 51, 52, 53, 54, 55, 56, 57, 58, 59, 60, 61, 62, 63, 64, 65, 66, 67, 68, 69, 70, 71, 72, 73, 74, 75, 76, 77, 78, 79, 80, 81, 82, 83, 84, 85, 86, 87, 88, 89, 90, 91, 92, 93, 94, 95, 96, 97, 98, 99, 100, 101, 102, 103, 104, 105, 106, 107, 108, 109, 110, 111, 112, 113, 114, 115, 116, 117, 118, 119, 120, 121, 122, 123, 124, 125, 126, 127, 128, 129, 130, 131, 132, 133, 134, 135, 136, 137, 138, 139, 140, 141, 142, 143, 144, 145, 146, 147, 148, 149, 150, 151, 152, 153, 154, 155, 156, 157, 158, 159, 160, 161, 162, 163, 164, 165, 166, 167, 168, 169, 170, 171, 172, 173, 174, 175, 176, 177, 178, 179, 180, 181, 182, 183, 184, 185, 186, 187, 188, 189, 190, 191, 192, 193, 194, 195, 196, 197, 198, 199, 200, 201, 202, 203, 204, 205, 206, 207, 208, 209, 210, 211, 212, 213, 214, 215, 216, 217, 218, 219, 220, 221, 222, 223, 224, 225, 226, 227, 228, 229, 230, 231, 232],
      "AcquisitionTime": ["092249.210000", "092251.210000", "092253.210000", "092255.210000", "092257.210000", "092259.210000", "092301.210000", "092303.210000", "092305.210000", "092307.210000", "092309.210000", "092311.210000", "092313.210000", "092315.210000", "092317.210000", "092319.210000", "092321.210000", "092323.210000", "092325.210000", "092327.210000", "092329.210000", "092331.210000", "092333.210000", "092335.210000", "092337.210000", "092339.210000", "092341.210000", "092343.210000", "092345.210000", "092347.210000", "092349.210000", "092351.210000", "092353.210000", "092355.210000", "092357.210000", "092359.210000", "092401.210000", "092403.210000", "092405.210000", "092407.210000", "092409.210000", "092411.210000", "092413.210000", "092415.210000", "092417.210000", "092419.210000", "092421.210000", "092423.210000", "092425.210000", "092427.210000", "092429.210000", "092431.210000", "092433.210000", "092435.210000", "092437.210000", "092439.210000", "092441.210000", "092443.210000", "092445.210000", "092447.210000", "092449.210000", "092451.210000", "092453.210000", "092455.210000", "092457.210000", "092459.210000", "092501.210000", "092503.210000", "092505.210000", "092507.210000", "092509.210000", "092511.210000", "092513.210000", "092515.210000", "092517.210000", "092519.210000", "092521.210000", "092523.210000", "092525.210000", "092527.210000", "092529.210000", "092531.210000", "092533.210000", "092535.210000", "092537.210000", "092539.210000", "092541.210000", "092543.210000", "092545.210000", "092547.210000", "092549.210000", "092551.210000", "092553.210000", "092555.210000", "092557.210000", "092559.210000", "092601.210000", "092603.210000", "092605.210000", "092607.210000", "092609.210000", "092611.210000", "092613.210000", "092615.210000", "092617.210000", "092619.210000", "092621.210000", "092623.210000", "092625.210000", "092627.210000", "092629.210000", "092631.210000", "092633.210000", "092635.210000", "092637.210000", "092639.210000", "092641.210000", "092643.210000", "092645.210000", "092647.210000", "092649.210000", "092651.210000", "092653.210000", "092655.210000", "092657.210000", "092659.210000", "092701.210000", "092703.210000", "092705.210000", "092707.210000", "092709.210000", "092711.210000", "092713.210000", "092715.210000", "092717.210000", "092719.210000", "092721.210000", "092723.210000", "092725.210000", "092727.210000", "092729.210000", "092731.210000", "092733.210000", "092735.210000", "092737.210000", "092739.210000", "092741.210000", "092743.210000", "092745.210000", "092747.210000", "092749.210000", "092751.210000", "092753.210000", "092755.210000", "092757.210000", "092759.210000", "092801.210000", "092803.210000", "092805.210000", "092807.210000", "092809.210000", "092811.210000", "092813.210000", "092815.210000", "092817.210000", "092819.210000", "092821.210000", "092823.210000", "092825.210000", "092827.210000", "092829.210000", "092831.210000", "092833.210000", "092835.210000", "092837.210000", "092839.210000", "092841.210000", "092843.210000", "092845.210000", "092847.210000", "092849.210000", "092851.210000", "092853.210000", "092855.210000", "092857.210000", "092859.210000", "092901.210000", "092903.210000", "092905.210000", "092907.210000", "092909.210000", "092911.210000", "092913.210000", "092915.210000", "092917.210000", "092919.210000", "092921.210000", "092923.210000", "092925.210000", "092927.210000", "092929.210000", "092931.210000", "092933.210000", "092935.210000", "092937.210000", "092939.210000", "092941.210000", "092943.210000", "092945.210000", "092947.210000", "092949.210000", "092951.210000", "092953.210000", "092955.210000", "092957.210000", "092959.210000", "093001.210000", "093003.210000", "093005.210000", "093007.210000", "093009.210000", "093011.210000", "093013.210000", "093015.210000", "093017.210000", "093019.210000", "093021.210000", "093023.210000", "093025.210000", "093027.210000", "093029.210000", "093031.210000"],
      "ContentTime": ["092252.129000", "092253.612000", "092255.611000", "092257.611000", "092259.612000", "092301.613000", "092303.612000", "092305.611000", "092307.612000", "092309.611000", "092311.611000", "092313.611000", "092315.612000", "092317.612000", "092319.612000", "092321.612000", "092323.612000", "092325.612000", "092327.611000", "092329.612000", "092331.611000", "092333.613000", "092335.613000", "092337.612000", "092339.612000", "092341.612000", "092343.611000", "092345.612000", "092347.611000", "092349.611000", "092351.612000", "092353.613000", "092355.613000", "092357.612000", "092359.611000", "092401.612000", "092403.612000", "092405.612000", "092407.612000", "092409.612000", "092411.612000", "092413.612000", "092415.612000", "092417.611000", "092419.612000", "092421.612000", "092423.611000", "092425.612000", "092427.612000", "092429.613000", "092431.613000", "092433.611000", "092435.611000", "092437.611000", "092439.612000", "092441.612000", "092443.612000", "092445.613000", "092447.613000", "092449.612000", "092451.612000", "092453.611000", "092455.612000", "092457.612000", "092459.612000", "092501.613000", "092503.613000", "092505.612000", "092507.611000", "092509.611000", "092511.612000", "092513.611000", "092515.611000", "092517.611000", "092519.612000", "092521.613000", "092523.612000", "092525.612000", "092527.611000", "092529.612000", "092531.611000", "092533.612000", "092535.613000", "092537.613000", "092539.613000", "092541.612000", "092543.611000", "092545.611000", "092547.612000", "092549.612000", "092551.611000", "092553.613000", "092555.612000", "092557.613000", "092559.612000", "092601.611000", "092603.612000", "092605.611000", "092607.611000", "092609.612000", "092611.612000", "092613.613000", "092615.613000", "092617.612000", "092619.611000", "092621.611000", "092623.612000", "092625.611000", "092627.611000", "092629.612000", "092631.613000", "092633.613000", "092635.611000", "092637.611000", "092639.611000", "092641.612000", "092643.611000", "092645.613000", "092647.612000", "092649.612000", "092651.612000", "092653.612000", "092655.612000", "092657.612000", "092659.612000", "092701.611000", "092703.613000", "092705.612000", "092707.612000", "092709.612000", "092711.611000", "092713.612000", "092715.611000", "092717.612000", "092719.611000", "092721.612000", "092723.613000", "092725.613000", "092727.611000", "092729.611000", "092731.611000", "092733.613000", "092735.612000", "092737.611000", "092739.612000", "092741.613000", "092743.612000", "092745.611000", "092747.611000", "092749.611000", "092751.612000", "092753.612000", "092755.612000", "092757.612000", "092759.612000", "092801.612000", "092803.611000", "092805.611000", "092807.611000", "092809.611000", "092811.612000", "092813.612000", "092815.612000", "092817.613000", "092819.612000", "092821.611000", "092823.612000", "092825.611000", "092827.611000", "092829.611000", "092831.612000", "092833.612000", "092835.613000", "092837.611000", "092839.611000", "092841.611000", "092843.623000", "092845.611000", "092847.611000", "092849.612000", "092851.612000", "092853.612000", "092855.611000", "092857.611000", "092859.611000", "092901.611000", "092903.611000", "092905.613000", "092907.613000", "092909.613000", "092911.613000", "092913.611000", "092915.612000", "092917.612000", "092919.611000", "092921.612000", "092923.612000", "092925.612000", "092927.612000", "092929.613000", "092931.611000", "092933.612000", "092935.611000", "092937.612000", "092939.612000", "092941.612000", "092943.613000", "092945.612000", "092947.612000", "092949.611000", "092951.612000", "092953.612000", "092955.611000", "092957.612000", "092959.613000", "093001.612000", "093003.612000", "093005.612000", "093007.611000", "093009.612000", "093011.612000", "093013.611000", "093015.612000", "093017.612000", "093019.612000", "093021.612000", "093023.612000", "093025.612000", "093027.611000", "093029.611000", "093031.612000", "093033.264000"],
      "InstanceCreationTime": ["092252.129000", "092253.612000", "092255.611000", "092257.611000", "092259.612000", "092301.613000", "092303.612000", "092305.611000", "092307.612000", "092309.611000", "092311.611000", "092313.611000", "092315.612000", "092317.612000", "092319.612000", "092321.612000", "092323.612000", "092325.612000", "092327.611000", "092329.612000", "092331.611000", "092333.613000", "092335.613000", "092337.612000", "092339.612000", "092341.612000", "092343.611000", "092345.612000", "092347.611000", "092349.611000", "092351.612000", "092353.613000", "092355.613000", "092357.612000", "092359.611000", "092401.612000", "092403.612000", "092405.612000", "092407.612000", "092409.612000", "092411.612000", "092413.612000", "092415.612000", "092417.611000", "092419.612000", "092421.612000", "092423.611000", "092425.612000", "092427.612000", "092429.613000", "092431.613000", "092433.611000", "092435.611000", "092437.611000", "092439.612000", "092441.612000", "092443.612000", "092445.613000", "092447.613000", "092449.612000", "092451.612000", "092453.611000", "092455.612000", "092457.612000", "092459.612000", "092501.613000", "092503.613000", "092505.612000", "092507.611000", "092509.611000", "092511.612000", "092513.611000", "092515.611000", "092517.611000", "092519.612000", "092521.613000", "092523.612000", "092525.612000", "092527.611000", "092529.612000", "092531.611000", "092533.612000", "092535.613000", "092537.613000", "092539.613000", "092541.612000", "092543.611000", "092545.611000", "092547.612000", "092549.612000", "092551.611000", "092553.613000", "092555.612000", "092557.613000", "092559.612000", "092601.611000", "092603.612000", "092605.611000", "092607.611000", "092609.612000", "092611.612000", "092613.613000", "092615.613000", "092617.612000", "092619.611000", "092621.611000", "092623.612000", "092625.611000", "092627.611000", "092629.612000", "092631.613000", "092633.613000", "092635.611000", "092637.611000", "092639.611000", "092641.612000", "092643.611000", "092645.613000", "092647.612000", "092649.612000", "092651.612000", "092653.612000", "092655.612000", "092657.612000", "092659.612000", "092701.611000", "092703.613000", "092705.612000", "092707.612000", "092709.612000", "092711.611000", "092713.612000", "092715.611000", "092717.612000", "092719.611000", "092721.612000", "092723.613000", "092725.613000", "092727.611000", "092729.611000", "092731.611000", "092733.613000", "092735.612000", "092737.611000", "092739.612000", "092741.613000", "092743.612000", "092745.611000", "092747.611000", "092749.611000", "092751.612000", "092753.612000", "092755.612000", "092757.612000", "092759.612000", "092801.612000", "092803.611000", "092805.611000", "092807.611000", "092809.611000", "092811.612000", "092813.612000", "092815.612000", "092817.613000", "092819.612000", "092821.611000", "092823.612000", "092825.611000", "092827.611000", "092829.611000", "092831.612000", "092833.612000", "092835.613000", "092837.611000", "092839.611000", "092841.611000", "092843.623000", "092845.611000", "092847.611000", "092849.612000", "092851.612000", "092853.612000", "092855.611000", "092857.611000", "092859.611000", "092901.611000", "092903.611000", "092905.613000", "092907.613000", "092909.613000", "092911.613000", "092913.611000", "092915.612000", "092917.612000", "092919.611000", "092921.612000", "092923.612000", "092925.612000", "092927.612000", "092929.613000", "092931.611000", "092933.612000", "092935.611000", "092937.612000", "092939.612000", "092941.612000", "092943.613000", "092945.612000", "092947.612000", "092949.611000", "092951.612000", "092953.612000", "092955.611000", "092957.612000", "092959.613000", "093001.612000", "093003.612000", "093005.612000", "093007.611000", "093009.612000", "093011.612000", "093013.611000", "093015.612000", "093017.612000", "093019.612000", "093021.612000", "093023.612000", "093025.612000", "093027.611000", "093029.611000", "093031.612000", "093033.264000"],
      "InstanceNumber": [1, 2, 3, 4, 5, 6, 7, 8, 9, 10, 11, 12, 13, 14, 15, 16, 17, 18, 19, 20, 21, 22, 23, 24, 25, 26, 27, 28, 29, 30, 31, 32, 33, 34, 35, 36, 37, 38, 39, 40, 41, 42, 43, 44, 45, 46, 47, 48, 49, 50, 51, 52, 53, 54, 55, 56, 57, 58, 59, 60, 61, 62, 63, 64, 65, 66, 67, 68, 69, 70, 71, 72, 73, 74, 75, 76, 77, 78, 79, 80, 81, 82, 83, 84, 85, 86, 87, 88, 89, 90, 91, 92, 93, 94, 95, 96, 97, 98, 99, 100, 101, 102, 103, 104, 105, 106, 107, 108, 109, 110, 111, 112, 113, 114, 115, 116, 117, 118, 119, 120, 121, 122, 123, 124, 125, 126, 127, 128, 129, 130, 131, 132, 133, 134, 135, 136, 137, 138, 139, 140, 141, 142, 143, 144, 145, 146, 147, 148, 149, 150, 151, 152, 153, 154, 155, 156, 157, 158, 159, 160, 161, 162, 163, 164, 165, 166, 167, 168, 169, 170, 171, 172, 173, 174, 175, 176, 177, 178, 179, 180, 181, 182, 183, 184, 185, 186, 187, 188, 189, 190, 191, 192, 193, 194, 195, 196, 197, 198, 199, 200, 201, 202, 203, 204, 205, 206, 207, 208, 209, 210, 211, 212, 213, 214, 215, 216, 217, 218, 219, 220, 221, 222, 223, 224, 225, 226, 227, 228, 229, 230, 231, 232],
      "LargestImagePixelValue": [3847, 3826, 3798, 3808, 3814, 3800, 3788, 3771, 3780, 3749, 3724, 3716, 3689, 3699, 3674, 3673, 3693, 3662, 3657, 3678, 3693, 3697, 3693, 3684, 3686, 3699, 3684, 3665, 3702, 3635, 3658, 3636, 3670, 3668, 3703, 3694, 3653, 3683, 3689, 3679, 3583, 3697, 3623, 3620, 3613, 3683, 3637, 3658, 3669, 3950, 3871, 3841, 3824, 3811, 4057, 3956, 3877, 3755, 3689, 3729, 3702, 3694, 3742, 3714, 3726, 3703, 3569, 3398, 3417, 3448, 3433, 3500, 3484, 3443, 3527, 3468, 3470, 3517, 3509, 3520, 3506, 3532, 3515, 3544, 3522, 3550, 3560, 3512, 3686, 3732, 3964, 3992, 4062, 4074, 4088, 4083, 4055, 4085, 3977, 3735, 3881, 3988, 3489, 4095, 3841, 3713, 3622, 3630, 3645, 3691, 3670, 3631, 3681, 3732, 3654, 3692, 3654, 3714, 3637, 3690, 3681, 3689, 3738, 3726, 3735, 3770, 3697, 3750, 3732, 3904, 3930, 3928, 3775, 3954, 3791, 3964, 3665, 4095, 3932, 3907, 3860, 3784, 3901, 3860, 3856, 3915, 3852, 3855, 3724, 3720, 3825, 3706, 3807, 3773, 3802, 3750, 3813, 3775, 3816, 3800, 3803, 3941, 3951, 3894, 3841, 3983, 3676, 4025, 4007, 3903, 3961, 3808, 3679, 3693, 3609, 3654, 3754, 3695, 3760, 3639, 3734, 3842, 3752, 3778, 3818, 3603, 3570, 3635, 3673, 3606, 3600, 3624, 3703, 3723, 3683, 3719, 3712, 3730, 3761, 3766, 3736, 3683, 3678, 3682, 3685, 3722, 3708, 3705, 3690, 3735, 3718, 3734, 3748, 3739, 3698, 3734, 3705, 3660, 3620, 3656, 3643, 3623, 3667, 3653, 3698, 3640, 3653, 3713, 3688, 3703, 3672, 3633],
      "WindowCenter": [828.0, 825.0, 824.0, 824.0, 824.0, 826.0, 826.0, 826.0, 825.0, 825.0, 826.0, 826.0, 825.0, 826.0, 825.0, 826.0, 825.0, 825.0, 826.0, 826.0, 827.0, 828.0, 827.0, 828.0, 828.0, 827.0, 827.0, 827.0, 826.0, 827.0, 827.0, 828.0, 829.0, 829.0, 828.0, 828.0, 827.0, 827.0, 827.0, 827.0, 821.0, 829.0, 829.0, 828.0, 826.0, 826.0, 826.0, 827.0, 823.0, 824.0, 824.0, 823.0, 821.0, 817.0, 822.0, 822.0, 829.0, 827.0, 827.0, 828.0, 828.0, 828.0, 827.0, 827.0, 827.0, 824.0, 823.0, 822.0, 823.0, 819.0, 821.0, 818.0, 821.0, 821.0, 821.0, 821.0, 821.0, 822.0, 824.0, 823.0, 822.0, 821.0, 821.0, 823.0, 824.0, 825.0, 825.0, 825.0, 820.0, 816.0, 836.0, 833.0, 833.0, 832.0, 832.0, 833.0, 833.0, 832.0, 832.0, 816.0, 820.0, 827.0, 823.0, 826.0, 819.0, 830.0, 825.0, 826.0, 825.0, 825.0, 824.0, 824.0, 826.0, 827.0, 827.0, 825.0, 823.0, 825.0, 825.0, 825.0, 824.0, 823.0, 824.0, 824.0, 825.0, 826.0, 825.0, 825.0, 818.0, 829.0, 819.0, 826.0, 818.0, 821.0, 825.0, 828.0, 813.0, 833.0, 828.0, 830.0, 832.0, 832.0, 833.0, 831.0, 831.0, 831.0, 831.0, 832.0, 832.0, 832.0, 833.0, 832.0, 832.0, 830.0, 830.0, 830.0, 831.0, 831.0, 830.0, 830.0, 830.0, 818.0, 832.0, 828.0, 829.0, 830.0, 825.0, 830.0, 830.0, 829.0, 831.0, 826.0, 825.0, 828.0, 828.0, 829.0, 826.0, 823.0, 823.0, 822.0, 821.0, 826.0, 826.0, 822.0, 820.0, 826.0, 823.0, 825.0, 825.0, 824.0, 823.0, 823.0, 823.0, 824.0, 823.0, 824.0, 824.0, 824.0, 824.0, 825.0, 825.0, 824.0, 824.0, 824.0, 824.0, 825.0, 825.0, 825.0, 825.0, 825.0, 826.0, 827.0, 826.0, 826.0, 825.0, 825.0, 825.0, 825.0, 825.0, 825.0, 825.0, 825.0, 825.0, 825.0, 824.0, 824.0, 825.0, 825.0, 825.0, 825.0, 824.0, 823.0],
      "WindowWidth": [1789.0, 1779.0, 1778.0, 1777.0, 1778.0, 1783.0, 1781.0, 1782.0, 1780.0, 1779.0, 1781.0, 1781.0, 1780.0, 1783.0, 1780.0, 1781.0, 1781.0, 1780.0, 1781.0, 1783.0, 1785.0, 1786.0, 1785.0, 1787.0, 1786.0, 1785.0, 1783.0, 1783.0, 1782.0, 1784.0, 1785.0, 1787.0, 1789.0, 1788.0, 1788.0, 1786.0, 1784.0, 1784.0, 1785.0, 1785.0, 1770.0, 1791.0, 1789.0, 1785.0, 1781.0, 1782.0, 1782.0, 1784.0, 1774.0, 1778.0, 1777.0, 1774.0, 1769.0, 1760.0, 1773.0, 1774.0, 1790.0, 1783.0, 1783.0, 1785.0, 1785.0, 1785.0, 1783.0, 1782.0, 1782.0, 1777.0, 1772.0, 1769.0, 1771.0, 1761.0, 1765.0, 1759.0, 1766.0, 1767.0, 1768.0, 1766.0, 1766.0, 1771.0, 1773.0, 1771.0, 1769.0, 1768.0, 1767.0, 1772.0, 1775.0, 1776.0, 1777.0, 1776.0, 1765.0, 1759.0, 1809.0, 1800.0, 1799.0, 1797.0, 1796.0, 1801.0, 1799.0, 1799.0, 1797.0, 1755.0, 1766.0, 1786.0, 1773.0, 1783.0, 1766.0, 1791.0, 1777.0, 1779.0, 1778.0, 1778.0, 1775.0, 1776.0, 1779.0, 1784.0, 1782.0, 1778.0, 1773.0, 1776.0, 1777.0, 1778.0, 1773.0, 1773.0, 1774.0, 1775.0, 1777.0, 1781.0, 1779.0, 1777.0, 1762.0, 1790.0, 1763.0, 1781.0, 1761.0, 1767.0, 1778.0, 1785.0, 1747.0, 1800.0, 1786.0, 1792.0, 1795.0, 1795.0, 1798.0, 1794.0, 1795.0, 1794.0, 1794.0, 1797.0, 1795.0, 1796.0, 1799.0, 1795.0, 1794.0, 1791.0, 1789.0, 1791.0, 1794.0, 1793.0, 1791.0, 1791.0, 1789.0, 1761.0, 1794.0, 1785.0, 1787.0, 1788.0, 1776.0, 1789.0, 1791.0, 1786.0, 1794.0, 1781.0, 1776.0, 1783.0, 1783.0, 1785.0, 1777.0, 1771.0, 1770.0, 1769.0, 1767.0, 1781.0, 1780.0, 1770.0, 1765.0, 1779.0, 1771.0, 1775.0, 1775.0, 1771.0, 1771.0, 1770.0, 1770.0, 1774.0, 1771.0, 1773.0, 1773.0, 1774.0, 1774.0, 1777.0, 1775.0, 1773.0, 1773.0, 1773.0, 1772.0, 1776.0, 1776.0, 1776.0, 1776.0, 1777.0, 1779.0, 1780.0, 1779.0, 1778.0, 1775.0, 1775.0, 1775.0, 1777.0, 1776.0, 1774.0, 1776.0, 1776.0, 1774.0, 1775.0, 1774.0, 1773.0, 1776.0, 1777.0, 1775.0, 1776.0, 1773.0, 1770.0]
    },
    "slices": {}
  }
}