{
  "AcquisitionMatrixPE": 100,
  "AcquisitionNumber": 1,
  "AcquisitionTime": "09:40:16.390000",
  "BandwidthPerPixelPhaseEncode": 18.519,
  "BaseResolution": 100,
  "BodyPartExamined": "BRAIN",
  "ConsistencyInfo": "N4_VE11C_LATEST_20160120",
  "ConversionSoftware": "dcm2niix",
  "ConversionSoftwareVersion": "v1.0.20180622 GCC4.9.2",
  "DerivedVendorReportedEchoSpacing": 0.000539986,
  "DeviceSerialNumber": "166078",
  "DwellTime": 2.1e-06,
  "EchoTime": 0.034,
  "EchoTrainLength": 100,
  "EffectiveEchoSpacing": 0.000539986,
  "FlipAngle": 90,
  "ImageOrientationPatientDICOM": [0.995651, 0.0856847, 0.0365798, -0.0643858, 0.916606, -0.394573],
  "ImageType": [
    "ORIGINAL",
    "PRIMARY",
    "M",
    "ND",
    "MOSAIC"
],
  "InPlanePhaseEncodingDirectionDICOM": "COL",
  "InstitutionAddress": "Street_StreetNo_Bei_Jing_District_CN_ZIP",
  "InstitutionName": "BeiJing_Normal_University",
  "InstitutionalDepartmentName": "Department",
  "MRAcquisitionType": "2D",
  "MagneticFieldStrength": 3,
  "Manufacturer": "Siemens",
  "ManufacturersModelName": "Prisma",
  "Modality": "MR",
  "MultibandAccelerationFactor": 3,
  "PartialFourier": 1,
  "PatientPosition": "HFS",
  "PercentPhaseFOV": 100,
  "PhaseEncodingDirection": "j-",
  "PhaseEncodingSteps": 100,
  "PhaseResolution": 1,
  "PixelBandwidth": 2380,
  "ProcedureStepDescription": "BNU_P2018_64CH_Liu.Jia",
  "ProtocolName": "bold_100x100_s3_2x2x2_232",
  "PulseSequenceDetails": "%SiemensSeq%_ep2d_bold",
  "ReceiveCoilActiveElements": "HC1-7;NC1",
  "ReceiveCoilName": "HeadNeck_64",
  "ReconMatrixPE": 100,
  "RepetitionTime": 2,
  "SAR": 0.0637031,
  "ScanOptions": "FS",
  "ScanningSequence": "EP",
  "SequenceName": "_epfid2d1_100",
  "SequenceVariant": "SK",
  "SeriesDescription": "bold_100x100_s3_2x2x2_232",
  "SeriesNumber": 5,
  "ShimSetting": [-5442, -11491, -1248, 370, 11, -235, -204, 4],
  "SliceThickness": 2,
  "SliceTiming": [1.485, 0, 0.99, 0.0825, 1.0725, 0.165, 1.155, 0.2475, 1.2375, 0.33, 1.32, 0.4125, 1.4025, 0.5775, 1.5675, 0.66, 1.65, 0.7425, 1.7325, 0.825, 1.815, 0.9075, 1.8975, 0.495, 1.485, 0, 0.99, 0.0825, 1.0725, 0.165, 1.155, 0.2475, 1.2375, 0.33, 1.32, 0.4125, 1.4025, 0.5775, 1.5675, 0.66, 1.65, 0.7425, 1.7325, 0.825, 1.815, 0.9075, 1.8975, 0.495, 1.485, 0, 0.99, 0.0825, 1.0725, 0.165, 1.155, 0.2475, 1.2375, 0.33, 1.32, 0.4125, 1.4025, 0.5775, 1.5675, 0.66, 1.65, 0.7425, 1.7325, 0.825, 1.815, 0.9075, 1.8975, 0.495],
  "SoftwareVersions": "syngo_MR_E11",
  "SpacingBetweenSlices": 2,
  "StationName": "AWP166078",
  "TaskName": "motor",
  "TotalReadoutTime": 0.0534586,
  "TxRefAmp": 217.447,
  "dcmmeta_affine": [
    [-1.99130117893219, -0.12877154350280762, 0.13467636704444885, 101.9794692993164],
    [-0.17136947810649872, 1.833211898803711, -0.7810035347938538, -45.96924591064453],
    [0.07315963506698608, 0.7891463041305542, 1.8362722396850586, -105.71505737304688],
    [0.0, 0.0, 0.0, 1.0]
],
  "dcmmeta_reorient_transform": [
    [0.0, -1.0, 0.0, 99.0],
    [1.0, 0.0, 0.0, 0.0],
    [0.0, 0.0, 1.0, 0.0],
    [0.0, 0.0, 0.0, 1.0]
],
  "dcmmeta_shape": [100, 100, 72, 232],
  "dcmmeta_slice_dim": 2,
  "dcmmeta_version": 0.6,
  "global": {
    "const": {
      "AcquisitionMatrix": [100, 0, 0, 100],
      "AngioFlag": "N",
      "BitsAllocated": 16,
      "BitsStored": 12,
      "BodyPartExamined": "BRAIN",
      "Columns": 900,
      "EchoNumbers": 1,
      "EchoTime": 34.0,
      "EchoTrainLength": 100,
      "FlipAngle": 90.0,
      "HighBit": 11,
      "ImageOrientationPatient": [0.9956505621638, 0.08568474136823, 0.03657981902054, -0.0643857727043, 0.91660596769175, -0.3945731519822],
      "ImagePositionPatient": [-834.24292167194, -937.35130337615, 258.80509509394],
      "ImageType": [
        "ORIGINAL",
        "PRIMARY",
        "M",
        "ND",
        "MOSAIC"
],
      "ImagedNucleus": "1H",
      "ImagingFrequency": 123.257861,
      "InPlanePhaseEncodingDirection": "COL",
      "MRAcquisitionType": "2D",
      "MagneticFieldStrength": 3.0,
      "Manufacturer": "SIEMENS",
      "ManufacturerModelName": "Prisma",
      "Modality": "MR",
      "NumberOfAverages": 1.0,
      "NumberOfPhaseEncodingSteps": 100,
      "PercentPhaseFieldOfView": 100.0,
      "PercentSampling": 100.0,
      "PerformedProcedureStepStartTime": "090027.078000",
      "PhotometricInterpretation": "MONOCHROME2",
      "PixelBandwidth": 2380.0,
      "PixelRepresentation": 0,
      "PixelSpacing": [2.0, 2.0],
      "ProtocolName": "bold_100x100_s3_2x2x2_232",
      "RepetitionTime": 2000.0,
      "Rows": 900,
      "SAR": 0.06370307327209,
      "SamplesPerPixel": 1,
      "ScanOptions": "FS",
      "ScanningSequence": "EP",
      "SequenceName": "*epfid2d1_100",
      "SequenceVariant": "SK",
      "SeriesDescription": "bold_100x100_s3_2x2x2_232",
      "SeriesNumber": 5,
      "SeriesTime": "094019.279000",
      "SliceLocation": -72.242628023597,
      "SliceThickness": 2.0,
      "SmallestImagePixelValue": 0,
      "SoftwareVersions": "syngo MR E11",
      "SpacingBetweenSlices": 2.0000000392497,
      "SpecificCharacterSet": "ISO_IR 100",
      "StudyID": "1",
      "StudyTime": "090026.954000",
      "TransmitCoilName": "Body",
      "VariableFlipAngleFlag": "N",
      "WindowCenterWidthExplanation": "Algo1",
      "dBdt": 0.0},
    "slices": {}
  },
  "time": {
    "samples": {
      "AcquisitionNumber": [1, 2, 3, 4, 5, 6, 7, 8, 9, 10, 11, 12, 13, 14, 15, 16, 17, 18, 19, 20, 21, 22, 23, 24, 25, 26, 27, 28, 29, 30, 31, 32, 33, 34, 35, 36, 37, 38, 39, 40, 41, 42, 43, 44, 45, 46, 47, 48, 49, 50, 51, 52, 53, 54, 55, 56, 57, 58, 59, 60, 61, 62, 63, 64, 65, 66, 67, 68, 69, 70, 71, 72, 73, 74, 75, 76, 77, 78, 79, 80, 81, 82, 83, 84, 85, 86, 87, 88, 89, 90, 91, 92, 93, 94, 95, 96, 97, 98, 99, 100, 101, 102, 103, 104, 105, 106, 107, 108, 109, 110, 111, 112, 113, 114, 115, 116, 117, 118, 119, 120, 121, 122, 123, 124, 125, 126, 127, 128, 129, 130, 131, 132, 133, 134, 135, 136, 137, 138, 139, 140, 141, 142, 143, 144, 145, 146, 147, 148, 149, 150, 151, 152, 153, 154, 155, 156, 157, 158, 159, 160, 161, 162, 163, 164, 165, 166, 167, 168, 169, 170, 171, 172, 173, 174, 175, 176, 177, 178, 179, 180, 181, 182, 183, 184, 185, 186, 187, 188, 189, 190, 191, 192, 193, 194, 195, 196, 197, 198, 199, 200, 201, 202, 203, 204, 205, 206, 207, 208, 209, 210, 211, 212, 213, 214, 215, 216, 217, 218, 219, 220, 221, 222, 223, 224, 225, 226, 227, 228, 229, 230, 231, 232],
      "AcquisitionTime": ["094016.390000", "094018.390000", "094020.390000", "094022.390000", "094024.390000", "094026.390000", "094028.390000", "094030.390000", "094032.390000", "094034.390000", "094036.390000", "094038.390000", "094040.390000", "094042.390000", "094044.390000", "094046.390000", "094048.390000", "094050.390000", "094052.390000", "094054.390000", "094056.390000", "094058.390000", "094100.390000", "094102.390000", "094104.390000", "094106.390000", "094108.390000", "094110.390000", "094112.390000", "094114.390000", "094116.390000", "094118.390000", "094120.390000", "094122.390000", "094124.390000", "094126.390000", "094128.390000", "094130.390000", "094132.390000", "094134.390000", "094136.390000", "094138.390000", "094140.390000", "094142.390000", "094144.390000", "094146.390000", "094148.390000", "094150.390000", "094152.390000", "094154.390000", "094156.390000", "094158.390000", "094200.390000", "094202.390000", "094204.390000", "094206.390000", "094208.390000", "094210.390000", "094212.390000", "094214.390000", "094216.390000", "094218.390000", "094220.390000", "094222.390000", "094224.390000", "094226.390000", "094228.390000", "094230.390000", "094232.390000", "094234.390000", "094236.390000", "094238.390000", "094240.390000", "094242.390000", "094244.390000", "094246.390000", "094248.390000", "094250.390000", "094252.390000", "094254.390000", "094256.390000", "094258.390000", "094300.390000", "094302.390000", "094304.390000", "094306.390000", "094308.390000", "094310.390000", "094312.390000", "094314.390000", "094316.390000", "094318.390000", "094320.390000", "094322.390000", "094324.390000", "094326.390000", "094328.390000", "094330.390000", "094332.390000", "094334.390000", "094336.390000", "094338.390000", "094340.390000", "094342.390000", "094344.390000", "094346.390000", "094348.390000", "094350.390000", "094352.390000", "094354.390000", "094356.390000", "094358.390000", "094400.390000", "094402.390000", "094404.390000", "094406.390000", "094408.390000", "094410.390000", "094412.390000", "094414.390000", "094416.390000", "094418.390000", "094420.390000", "094422.390000", "094424.390000", "094426.390000", "094428.390000", "094430.390000", "094432.390000", "094434.390000", "094436.390000", "094438.390000", "094440.390000", "094442.390000", "094444.390000", "094446.390000", "094448.390000", "094450.390000", "094452.390000", "094454.390000", "094456.390000", "094458.390000", "094500.390000", "094502.390000", "094504.390000", "094506.390000", "094508.390000", "094510.390000", "094512.390000", "094514.390000", "094516.390000", "094518.390000", "094520.390000", "094522.390000", "094524.390000", "094526.390000", "094528.390000", "094530.390000", "094532.390000", "094534.390000", "094536.390000", "094538.390000", "094540.390000", "094542.390000", "094544.390000", "094546.390000", "094548.390000", "094550.390000", "094552.390000", "094554.390000", "094556.390000", "094558.390000", "094600.390000", "094602.390000", "094604.390000", "094606.390000", "094608.390000", "094610.390000", "094612.390000", "094614.390000", "094616.390000", "094618.390000", "094620.390000", "094622.390000", "094624.390000", "094626.390000", "094628.390000", "094630.390000", "094632.390000", "094634.390000", "094636.390000", "094638.390000", "094640.390000", "094642.390000", "094644.390000", "094646.390000", "094648.390000", "094650.390000", "094652.390000", "094654.390000", "094656.390000", "094658.390000", "094700.390000", "094702.390000", "094704.390000", "094706.390000", "094708.390000", "094710.390000", "094712.390000", "094714.390000", "094716.390000", "094718.390000", "094720.390000", "094722.390000", "094724.390000", "094726.390000", "094728.390000", "094730.390000", "094732.390000", "094734.390000", "094736.390000", "094738.390000", "094740.390000", "094742.390000", "094744.390000", "094746.390000", "094748.390000", "094750.390000", "094752.390000", "094754.390000", "094756.390000", "094758.390000"],
      "ContentTime": ["094019.283000", "094020.779000", "094022.778000", "094024.778000", "094026.777000", "094028.779000", "094030.778000", "094032.779000", "094034.778000", "094036.778000", "094038.778000", "094040.777000", "094042.778000", "094044.778000", "094046.779000", "094048.778000", "094050.779000", "094052.778000", "094054.778000", "094056.778000", "094058.777000", "094100.778000", "094102.779000", "094104.779000", "094106.779000", "094108.778000", "094110.779000", "094112.778000", "094114.779000", "094116.778000", "094119.278000", "094120.779000", "094122.779000", "094124.779000", "094126.779000", "094128.779000", "094130.779000", "094132.779000", "094134.777000", "094136.778000", "094138.778000", "094140.779000", "094142.778000", "094144.778000", "094146.778000", "094148.779000", "094150.778000", "094152.777000", "094154.778000", "094157.278000", "094158.779000", "094200.779000", "094202.778000", "094204.778000", "094206.778000", "094208.778000", "094210.778000", "094212.779000", "094214.778000", "094216.779000", "094218.778000", "094220.778000", "094222.779000", "094224.778000", "094226.778000", "094228.778000", "094230.778000", "094232.779000", "094234.779000", "094236.778000", "094238.778000", "094240.778000", "094242.779000", "094244.778000", "094246.778000", "094248.778000", "094250.779000", "094252.778000", "094254.778000", "094256.779000", "094258.779000", "094300.777000", "094302.777000", "094304.778000", "094306.779000", "094308.779000", "094310.778000", "094312.778000", "094314.778000", "094316.779000", "094318.777000", "094320.777000", "094322.779000", "094324.778000", "094326.778000", "094328.778000", "094330.779000", "094332.778000", "094334.778000", "094336.778000", "094338.778000", "094340.779000", "094342.779000", "094344.778000", "094346.778000", "094348.778000", "094350.779000", "094352.779000", "094354.778000", "094356.778000", "094358.779000", "094400.778000", "094402.779000", "094404.779000", "094406.778000", "094408.779000", "094410.777000", "094412.778000", "094414.778000", "094416.778000", "094418.779000", "094420.779000", "094422.778000", "094424.779000", "094426.778000", "094428.777000", "094430.778000", "094432.778000", "094434.779000", "094436.778000", "094438.778000", "094440.779000", "094442.779000", "094444.778000", "094446.778000", "094448.777000", "094450.779000", "094452.779000", "094454.778000", "094456.779000", "094458.778000", "094500.779000", "094502.779000", "094504.778000", "094506.777000", "094508.779000", "094510.778000", "094512.779000", "094514.779000", "094516.778000", "094518.779000", "094520.777000", "094522.777000", "094524.779000", "094526.778000", "094528.778000", "094530.779000", "094532.779000", "094534.779000", "094536.779000", "094538.778000", "094540.778000", "094542.779000", "094544.778000", "094546.778000", "094548.779000", "094550.779000", "094552.779000", "094554.779000", "094556.778000", "094558.777000", "094600.779000", "094602.778000", "094604.778000", "094606.779000", "094608.779000", "094610.779000", "094612.778000", "094614.778000", "094616.779000", "094618.779000", "094620.778000", "094622.778000", "094624.778000", "094626.779000", "094628.778000", "094630.778000", "094632.778000", "094634.779000", "094636.779000", "094638.778000", "094640.779000", "094642.779000", "094644.779000", "094646.779000", "094648.778000", "094650.778000", "094652.779000", "094654.779000", "094656.779000", "094658.779000", "094700.779000", "094702.779000", "094704.779000", "094706.777000", "094708.778000", "094710.779000", "094712.779000", "094714.778000", "094716.779000", "094718.779000", "094720.779000", "094722.779000", "094724.777000", "094726.779000", "094728.779000", "094730.778000", "094732.778000", "094734.779000", "094736.778000", "094738.779000", "094740.778000", "094742.777000", "094744.778000", "094746.779000", "094748.779000", "094750.778000", "094752.778000", "094754.779000", "094756.778000", "094758.778000", "094800.628000"],
      "InstanceCreationTime": ["094019.283000", "094020.779000", "094022.778000", "094024.778000", "094026.777000", "094028.779000", "094030.778000", "094032.779000", "094034.778000", "094036.778000", "094038.778000", "094040.777000", "094042.778000", "094044.778000", "094046.779000", "094048.778000", "094050.779000", "094052.778000", "094054.778000", "094056.778000", "094058.777000", "094100.778000", "094102.779000", "094104.779000", "094106.779000", "094108.778000", "094110.779000", "094112.778000", "094114.779000", "094116.778000", "094119.278000", "094120.779000", "094122.779000", "094124.779000", "094126.779000", "094128.779000", "094130.779000", "094132.779000", "094134.777000", "094136.778000", "094138.778000", "094140.779000", "094142.778000", "094144.778000", "094146.778000", "094148.779000", "094150.778000", "094152.777000", "094154.778000", "094157.278000", "094158.779000", "094200.779000", "094202.778000", "094204.778000", "094206.778000", "094208.778000", "094210.778000", "094212.779000", "094214.778000", "094216.779000", "094218.778000", "094220.778000", "094222.779000", "094224.778000", "094226.778000", "094228.778000", "094230.778000", "094232.779000", "094234.779000", "094236.778000", "094238.778000", "094240.778000", "094242.779000", "094244.778000", "094246.778000", "094248.778000", "094250.779000", "094252.778000", "094254.778000", "094256.779000", "094258.779000", "094300.777000", "094302.777000", "094304.778000", "094306.779000", "094308.779000", "094310.778000", "094312.778000", "094314.778000", "094316.779000", "094318.777000", "094320.777000", "094322.779000", "094324.778000", "094326.778000", "094328.778000", "094330.779000", "094332.778000", "094334.778000", "094336.778000", "094338.778000", "094340.779000", "094342.779000", "094344.778000", "094346.778000", "094348.778000", "094350.779000", "094352.779000", "094354.778000", "094356.778000", "094358.779000", "094400.778000", "094402.779000", "094404.779000", "094406.778000", "094408.779000", "094410.777000", "094412.778000", "094414.778000", "094416.778000", "094418.779000", "094420.779000", "094422.778000", "094424.779000", "094426.778000", "094428.777000", "094430.778000", "094432.778000", "094434.779000", "094436.778000", "094438.778000", "094440.779000", "094442.779000", "094444.778000", "094446.778000", "094448.777000", "094450.779000", "094452.779000", "094454.778000", "094456.779000", "094458.778000", "094500.779000", "094502.779000", "094504.778000", "094506.777000", "094508.779000", "094510.778000", "094512.779000", "094514.779000", "094516.778000", "094518.779000", "094520.777000", "094522.777000", "094524.779000", "094526.778000", "094528.778000", "094530.779000", "094532.779000", "094534.779000", "094536.779000", "094538.778000", "094540.778000", "094542.779000", "094544.778000", "094546.778000", "094548.779000", "094550.779000", "094552.779000", "094554.779000", "094556.778000", "094558.777000", "094600.779000", "094602.778000", "094604.778000", "094606.779000", "094608.779000", "094610.779000", "094612.778000", "094614.778000", "094616.779000", "094618.779000", "094620.778000", "094622.778000", "094624.778000", "094626.779000", "094628.778000", "094630.778000", "094632.778000", "094634.779000", "094636.779000", "094638.778000", "094640.779000", "094642.779000", "094644.779000", "094646.779000", "094648.778000", "094650.778000", "094652.779000", "094654.779000", "094656.779000", "094658.779000", "094700.779000", "094702.779000", "094704.779000", "094706.777000", "094708.778000", "094710.779000", "094712.779000", "094714.778000", "094716.779000", "094718.779000", "094720.779000", "094722.779000", "094724.777000", "094726.779000", "094728.779000", "094730.778000", "094732.778000", "094734.779000", "094736.778000", "094738.779000", "094740.778000", "094742.777000", "094744.778000", "094746.779000", "094748.779000", "094750.778000", "094752.778000", "094754.779000", "094756.778000", "094758.778000", "094800.628000"],
      "InstanceNumber": [1, 2, 3, 4, 5, 6, 7, 8, 9, 10, 11, 12, 13, 14, 15, 16, 17, 18, 19, 20, 21, 22, 23, 24, 25, 26, 27, 28, 29, 30, 31, 32, 33, 34, 35, 36, 37, 38, 39, 40, 41, 42, 43, 44, 45, 46, 47, 48, 49, 50, 51, 52, 53, 54, 55, 56, 57, 58, 59, 60, 61, 62, 63, 64, 65, 66, 67, 68, 69, 70, 71, 72, 73, 74, 75, 76, 77, 78, 79, 80, 81, 82, 83, 84, 85, 86, 87, 88, 89, 90, 91, 92, 93, 94, 95, 96, 97, 98, 99, 100, 101, 102, 103, 104, 105, 106, 107, 108, 109, 110, 111, 112, 113, 114, 115, 116, 117, 118, 119, 120, 121, 122, 123, 124, 125, 126, 127, 128, 129, 130, 131, 132, 133, 134, 135, 136, 137, 138, 139, 140, 141, 142, 143, 144, 145, 146, 147, 148, 149, 150, 151, 152, 153, 154, 155, 156, 157, 158, 159, 160, 161, 162, 163, 164, 165, 166, 167, 168, 169, 170, 171, 172, 173, 174, 175, 176, 177, 178, 179, 180, 181, 182, 183, 184, 185, 186, 187, 188, 189, 190, 191, 192, 193, 194, 195, 196, 197, 198, 199, 200, 201, 202, 203, 204, 205, 206, 207, 208, 209, 210, 211, 212, 213, 214, 215, 216, 217, 218, 219, 220, 221, 222, 223, 224, 225, 226, 227, 228, 229, 230, 231, 232],
      "LargestImagePixelValue": [3812, 3800, 3815, 3817, 3843, 3785, 3825, 3872, 3877, 3859, 3728, 3877, 3788, 3929, 3717, 3881, 3749, 3699, 3653, 3718, 3718, 3710, 3734, 3787, 3753, 3776, 3718, 3729, 3785, 3756, 3807, 3813, 3761, 3771, 3612, 3642, 3623, 3662, 3655, 3638, 3849, 4019, 3930, 4021, 3982, 3941, 4020, 3972, 3902, 3683, 3660, 3718, 3689, 3681, 3680, 3636, 3744, 3707, 3803, 3855, 3725, 3657, 3736, 3732, 3711, 3866, 3734, 3771, 3765, 3747, 3773, 3773, 3809, 4066, 3963, 3678, 4046, 3835, 3756, 3921, 3736, 3724, 3702, 3747, 3765, 3803, 3801, 3825, 3763, 3769, 3804, 3773, 3784, 3744, 3777, 3751, 3764, 3773, 3756, 3744, 3769, 3789, 3794, 3799, 3768, 3747, 3715, 3707, 3740, 3742, 3782, 3764, 3525, 3785, 3838, 3740, 3738, 3778, 3737, 3738, 3769, 3717, 3750, 3746, 3754, 3738, 3733, 3715, 3755, 3778, 3762, 3723, 3740, 3779, 3757, 3741, 3745, 3772, 3753, 3765, 3760, 3781, 3726, 3748, 3807, 3753, 3752, 3751, 3800, 3787, 3757, 3755, 3817, 4038, 3763, 3781, 3720, 3797, 3676, 3836, 3649, 3860, 3862, 3828, 3820, 3824, 3838, 3842, 3737, 3730, 3709, 3770, 3751, 3748, 3752, 3790, 3751, 3769, 3758, 3806, 3782, 3779, 3772, 3788, 3780, 3988, 3967, 4023, 4019, 4063, 4056, 3835, 4095, 3885, 3793, 3783, 3646, 3658, 3672, 3580, 3666, 3653, 3700, 3714, 3731, 3672, 3700, 3648, 3701, 3638, 3668, 3685, 3727, 3784, 3798, 3771, 3535, 4095, 4095, 3895, 3877, 3941, 3802, 3831, 4045, 3724, 3747, 3803, 3795, 3864, 3854, 3863],
      "WindowCenter": [830.0, 826.0, 824.0, 822.0, 821.0, 821.0, 822.0, 822.0, 820.0, 820.0, 815.0, 827.0, 817.0, 829.0, 823.0, 832.0, 831.0, 829.0, 830.0, 832.0, 833.0, 833.0, 833.0, 831.0, 829.0, 829.0, 830.0, 830.0, 829.0, 828.0, 828.0, 828.0, 828.0, 828.0, 826.0, 824.0, 825.0, 825.0, 820.0, 823.0, 810.0, 829.0, 825.0, 827.0, 828.0, 829.0, 831.0, 832.0, 827.0, 830.0, 826.0, 827.0, 828.0, 829.0, 829.0, 831.0, 832.0, 828.0, 831.0, 826.0, 831.0, 827.0, 828.0, 828.0, 825.0, 828.0, 830.0, 831.0, 830.0, 830.0, 829.0, 829.0, 826.0, 824.0, 825.0, 818.0, 829.0, 826.0, 824.0, 825.0, 824.0, 824.0, 824.0, 825.0, 825.0, 827.0, 828.0, 828.0, 827.0, 828.0, 829.0, 830.0, 829.0, 828.0, 828.0, 828.0, 828.0, 830.0, 830.0, 832.0, 831.0, 828.0, 828.0, 828.0, 828.0, 829.0, 829.0, 829.0, 829.0, 829.0, 829.0, 829.0, 821.0, 827.0, 826.0, 823.0, 823.0, 824.0, 823.0, 821.0, 820.0, 819.0, 821.0, 821.0, 822.0, 824.0, 826.0, 826.0, 828.0, 828.0, 828.0, 827.0, 828.0, 827.0, 828.0, 828.0, 828.0, 829.0, 829.0, 830.0, 830.0, 830.0, 829.0, 829.0, 829.0, 830.0, 830.0, 830.0, 830.0, 828.0, 828.0, 827.0, 828.0, 824.0, 826.0, 823.0, 824.0, 821.0, 825.0, 822.0, 804.0, 823.0, 826.0, 825.0, 824.0, 825.0, 826.0, 828.0, 827.0, 826.0, 826.0, 827.0, 827.0, 826.0, 827.0, 829.0, 828.0, 828.0, 828.0, 828.0, 829.0, 829.0, 829.0, 828.0, 822.0, 832.0, 831.0, 834.0, 835.0, 835.0, 833.0, 831.0, 818.0, 823.0, 821.0, 823.0, 820.0, 811.0, 819.0, 817.0, 817.0, 819.0, 821.0, 821.0, 824.0, 824.0, 826.0, 827.0, 828.0, 826.0, 829.0, 828.0, 831.0, 830.0, 828.0, 827.0, 815.0, 818.0, 831.0, 819.0, 821.0, 830.0, 820.0, 823.0, 826.0, 831.0, 831.0, 832.0, 832.0, 831.0, 830.0, 830.0],
      "WindowWidth": [1792.0, 1782.0, 1776.0, 1770.0, 1768.0, 1767.0, 1771.0, 1771.0, 1765.0, 1768.0, 1754.0, 1786.0, 1760.0, 1789.0, 1773.0, 1797.0, 1793.0, 1788.0, 1791.0, 1796.0, 1799.0, 1799.0, 1798.0, 1793.0, 1789.0, 1790.0, 1790.0, 1790.0, 1789.0, 1787.0, 1786.0, 1785.0, 1787.0, 1785.0, 1780.0, 1774.0, 1777.0, 1776.0, 1763.0, 1772.0, 1741.0, 1790.0, 1780.0, 1783.0, 1786.0, 1788.0, 1795.0, 1798.0, 1785.0, 1792.0, 1780.0, 1782.0, 1785.0, 1787.0, 1788.0, 1792.0, 1795.0, 1786.0, 1793.0, 1782.0, 1792.0, 1782.0, 1785.0, 1785.0, 1779.0, 1787.0, 1789.0, 1793.0, 1792.0, 1790.0, 1789.0, 1788.0, 1781.0, 1778.0, 1781.0, 1763.0, 1791.0, 1781.0, 1775.0, 1777.0, 1776.0, 1773.0, 1775.0, 1776.0, 1778.0, 1783.0, 1785.0, 1785.0, 1784.0, 1786.0, 1789.0, 1791.0, 1789.0, 1786.0, 1786.0, 1786.0, 1787.0, 1792.0, 1791.0, 1796.0, 1792.0, 1786.0, 1787.0, 1786.0, 1787.0, 1788.0, 1788.0, 1788.0, 1788.0, 1789.0, 1788.0, 1789.0, 1769.0, 1784.0, 1779.0, 1772.0, 1772.0, 1774.0, 1772.0, 1767.0, 1763.0, 1762.0, 1767.0, 1767.0, 1771.0, 1775.0, 1779.0, 1781.0, 1784.0, 1785.0, 1785.0, 1783.0, 1785.0, 1783.0, 1785.0, 1786.0, 1786.0, 1788.0, 1787.0, 1791.0, 1791.0, 1790.0, 1787.0, 1787.0, 1789.0, 1790.0, 1791.0, 1791.0, 1790.0, 1785.0, 1784.0, 1782.0, 1786.0, 1778.0, 1782.0, 1773.0, 1775.0, 1768.0, 1777.0, 1771.0, 1727.0, 1777.0, 1782.0, 1776.0, 1774.0, 1776.0, 1780.0, 1784.0, 1782.0, 1779.0, 1781.0, 1781.0, 1783.0, 1780.0, 1783.0, 1786.0, 1785.0, 1785.0, 1784.0, 1786.0, 1787.0, 1787.0, 1786.0, 1784.0, 1771.0, 1799.0, 1793.0, 1800.0, 1803.0, 1803.0, 1800.0, 1793.0, 1765.0, 1773.0, 1769.0, 1773.0, 1764.0, 1740.0, 1762.0, 1756.0, 1758.0, 1763.0, 1768.0, 1769.0, 1774.0, 1776.0, 1781.0, 1783.0, 1784.0, 1779.0, 1788.0, 1786.0, 1792.0, 1789.0, 1787.0, 1783.0, 1753.0, 1765.0, 1801.0, 1765.0, 1770.0, 1793.0, 1768.0, 1774.0, 1781.0, 1795.0, 1792.0, 1797.0, 1795.0, 1792.0, 1789.0, 1790.0]
    },
    "slices": {}
  }
}