{
  "AcquisitionMatrixPE": 100,
  "AcquisitionNumber": 1,
  "AcquisitionTime": "10:25:34.130000",
  "BandwidthPerPixelPhaseEncode": 18.519,
  "BaseResolution": 100,
  "BodyPartExamined": "BRAIN",
  "ConsistencyInfo": "N4_VE11C_LATEST_20160120",
  "ConversionSoftware": "dcm2niix",
  "ConversionSoftwareVersion": "v1.0.20180622 GCC4.9.2",
  "DerivedVendorReportedEchoSpacing": 0.000539986,
  "DeviceSerialNumber": "166078",
  "DwellTime": 2.1e-06,
  "EchoTime": 0.034,
  "EchoTrainLength": 100,
  "EffectiveEchoSpacing": 0.000539986,
  "FlipAngle": 90,
  "ImageOrientationPatientDICOM": [0.999781, -0.000438311, 0.0209279, -3.13353e-08, 0.999781, 0.0209408],
  "ImageType": [
    "ORIGINAL",
    "PRIMARY",
    "M",
    "ND",
    "MOSAIC"
],
  "InPlanePhaseEncodingDirectionDICOM": "COL",
  "InstitutionAddress": "Street_StreetNo_Bei_Jing_District_CN_ZIP",
  "InstitutionName": "BeiJing_Normal_University",
  "InstitutionalDepartmentName": "Department",
  "MRAcquisitionType": "2D",
  "MagneticFieldStrength": 3,
  "Manufacturer": "Siemens",
  "ManufacturersModelName": "Prisma",
  "Modality": "MR",
  "MultibandAccelerationFactor": 3,
  "PartialFourier": 1,
  "PatientPosition": "HFS",
  "PercentPhaseFOV": 100,
  "PhaseEncodingDirection": "j-",
  "PhaseEncodingSteps": 100,
  "PhaseResolution": 1,
  "PixelBandwidth": 2380,
  "ProcedureStepDescription": "BNU_P2018_64CH_Liu.Jia",
  "ProtocolName": "bold_100x100_s3_2x2x2_232",
  "PulseSequenceDetails": "%SiemensSeq%_ep2d_bold",
  "ReceiveCoilActiveElements": "HC1-7;NC1",
  "ReceiveCoilName": "HeadNeck_64",
  "ReconMatrixPE": 100,
  "RepetitionTime": 2,
  "SAR": 0.0634312,
  "ScanOptions": "FS",
  "ScanningSequence": "EP",
  "SequenceName": "_epfid2d1_100",
  "SequenceVariant": "SK",
  "SeriesDescription": "bold_100x100_s3_2x2x2_232",
  "SeriesNumber": 3,
  "ShimSetting": [-5457, -11493, -1277, 388, -21, -264, -66, -22],
  "SliceThickness": 2,
  "SliceTiming": [1.485, 0, 0.99, 0.0825, 1.0725, 0.165, 1.155, 0.2475, 1.2375, 0.33, 1.32, 0.4125, 1.4025, 0.5775, 1.5675, 0.66, 1.65, 0.7425, 1.7325, 0.825, 1.815, 0.9075, 1.8975, 0.495, 1.485, 0, 0.99, 0.0825, 1.0725, 0.165, 1.155, 0.2475, 1.2375, 0.33, 1.32, 0.4125, 1.4025, 0.5775, 1.5675, 0.66, 1.65, 0.7425, 1.7325, 0.825, 1.815, 0.9075, 1.8975, 0.495, 1.485, 0, 0.99, 0.0825, 1.0725, 0.165, 1.155, 0.2475, 1.2375, 0.33, 1.32, 0.4125, 1.4025, 0.5775, 1.5675, 0.66, 1.65, 0.7425, 1.7325, 0.825, 1.815, 0.9075, 1.8975, 0.495],
  "SoftwareVersions": "syngo_MR_E11",
  "SpacingBetweenSlices": 2,
  "StationName": "AWP166078",
  "TaskName": "motor",
  "TotalReadoutTime": 0.0534586,
  "TxRefAmp": 208.693,
  "dcmmeta_affine": [
    [-1.9995617866516113, -6.26706793127596e-08, 0.04186495020985603, 100.4040756225586],
    [0.0008766210521571338, 1.9995614290237427, 0.04187233746051788, -96.31405639648438],
    [0.041855767369270325, -0.041881512850522995, 1.9991233348846436, -78.87147521972656],
    [0.0, 0.0, 0.0, 1.0]
],
  "dcmmeta_reorient_transform": [
    [0.0, -1.0, 0.0, 99.0],
    [1.0, 0.0, 0.0, 0.0],
    [0.0, 0.0, 1.0, 0.0],
    [0.0, 0.0, 0.0, 1.0]
],
  "dcmmeta_shape": [100, 100, 72, 232],
  "dcmmeta_slice_dim": 2,
  "dcmmeta_version": 0.6,
  "global": {
    "const": {
      "AcquisitionMatrix": [100, 0, 0, 100],
      "AngioFlag": "N",
      "BitsAllocated": 16,
      "BitsStored": 12,
      "BodyPartExamined": "BRAIN",
      "Columns": 900,
      "EchoNumbers": 1,
      "EchoTime": 34.0,
      "EchoTrainLength": 100,
      "FlipAngle": 90.0,
      "HighBit": 11,
      "ImageOrientationPatient": [0.99978089176286, -0.0004383105209, 0.02092788450237, -3.1335341e-08, 0.99978071831387, 0.02094075661965],
      "ImagePositionPatient": [-900.22875694945, -901.11644948435, -116.51265622124],
      "ImageType": [
        "ORIGINAL",
        "PRIMARY",
        "M",
        "ND",
        "MOSAIC"
],
      "ImagedNucleus": "1H",
      "ImagingFrequency": 123.257805,
      "InPlanePhaseEncodingDirection": "COL",
      "MRAcquisitionType": "2D",
      "MagneticFieldStrength": 3.0,
      "Manufacturer": "SIEMENS",
      "ManufacturerModelName": "Prisma",
      "Modality": "MR",
      "NumberOfAverages": 1.0,
      "NumberOfPhaseEncodingSteps": 100,
      "PercentPhaseFieldOfView": 100.0,
      "PercentSampling": 100.0,
      "PerformedProcedureStepStartTime": "102248.997000",
      "PhotometricInterpretation": "MONOCHROME2",
      "PixelBandwidth": 2380.0,
      "PixelRepresentation": 0,
      "PixelSpacing": [2.0, 2.0],
      "ProtocolName": "bold_100x100_s3_2x2x2_232",
      "RepetitionTime": 2000.0,
      "Rows": 900,
      "SAR": 0.06343117222618,
      "SamplesPerPixel": 1,
      "ScanOptions": "FS",
      "ScanningSequence": "EP",
      "SequenceName": "*epfid2d1_100",
      "SequenceVariant": "SK",
      "SeriesDescription": "bold_100x100_s3_2x2x2_232",
      "SeriesNumber": 3,
      "SeriesTime": "102537.030000",
      "SliceLocation": -78.751642575378,
      "SliceThickness": 2.0,
      "SmallestImagePixelValue": 0,
      "SoftwareVersions": "syngo MR E11",
      "SpacingBetweenSlices": 2.0000000554864,
      "SpecificCharacterSet": "ISO_IR 100",
      "StudyID": "1",
      "StudyTime": "102248.938000",
      "TransmitCoilName": "Body",
      "VariableFlipAngleFlag": "N",
      "WindowCenterWidthExplanation": "Algo1",
      "dBdt": 0.0},
    "slices": {}
  },
  "time": {
    "samples": {
      "AcquisitionNumber": [1, 2, 3, 4, 5, 6, 7, 8, 9, 10, 11, 12, 13, 14, 15, 16, 17, 18, 19, 20, 21, 22, 23, 24, 25, 26, 27, 28, 29, 30, 31, 32, 33, 34, 35, 36, 37, 38, 39, 40, 41, 42, 43, 44, 45, 46, 47, 48, 49, 50, 51, 52, 53, 54, 55, 56, 57, 58, 59, 60, 61, 62, 63, 64, 65, 66, 67, 68, 69, 70, 71, 72, 73, 74, 75, 76, 77, 78, 79, 80, 81, 82, 83, 84, 85, 86, 87, 88, 89, 90, 91, 92, 93, 94, 95, 96, 97, 98, 99, 100, 101, 102, 103, 104, 105, 106, 107, 108, 109, 110, 111, 112, 113, 114, 115, 116, 117, 118, 119, 120, 121, 122, 123, 124, 125, 126, 127, 128, 129, 130, 131, 132, 133, 134, 135, 136, 137, 138, 139, 140, 141, 142, 143, 144, 145, 146, 147, 148, 149, 150, 151, 152, 153, 154, 155, 156, 157, 158, 159, 160, 161, 162, 163, 164, 165, 166, 167, 168, 169, 170, 171, 172, 173, 174, 175, 176, 177, 178, 179, 180, 181, 182, 183, 184, 185, 186, 187, 188, 189, 190, 191, 192, 193, 194, 195, 196, 197, 198, 199, 200, 201, 202, 203, 204, 205, 206, 207, 208, 209, 210, 211, 212, 213, 214, 215, 216, 217, 218, 219, 220, 221, 222, 223, 224, 225, 226, 227, 228, 229, 230, 231, 232],
      "AcquisitionTime": ["102534.130000", "102536.130000", "102538.130000", "102540.130000", "102542.130000", "102544.130000", "102546.130000", "102548.130000", "102550.130000", "102552.130000", "102554.130000", "102556.130000", "102558.130000", "102600.130000", "102602.130000", "102604.130000", "102606.130000", "102608.130000", "102610.130000", "102612.130000", "102614.130000", "102616.130000", "102618.130000", "102620.130000", "102622.130000", "102624.130000", "102626.130000", "102628.130000", "102630.130000", "102632.130000", "102634.130000", "102636.130000", "102638.130000", "102640.130000", "102642.130000", "102644.130000", "102646.130000", "102648.130000", "102650.130000", "102652.130000", "102654.130000", "102656.130000", "102658.130000", "102700.130000", "102702.130000", "102704.130000", "102706.130000", "102708.130000", "102710.130000", "102712.130000", "102714.130000", "102716.130000", "102718.130000", "102720.130000", "102722.130000", "102724.130000", "102726.130000", "102728.130000", "102730.130000", "102732.130000", "102734.130000", "102736.130000", "102738.130000", "102740.130000", "102742.130000", "102744.130000", "102746.130000", "102748.130000", "102750.130000", "102752.130000", "102754.130000", "102756.130000", "102758.130000", "102800.130000", "102802.130000", "102804.130000", "102806.130000", "102808.130000", "102810.130000", "102812.130000", "102814.130000", "102816.130000", "102818.130000", "102820.130000", "102822.130000", "102824.130000", "102826.130000", "102828.130000", "102830.130000", "102832.130000", "102834.130000", "102836.130000", "102838.130000", "102840.130000", "102842.130000", "102844.130000", "102846.130000", "102848.130000", "102850.130000", "102852.130000", "102854.130000", "102856.130000", "102858.130000", "102900.130000", "102902.130000", "102904.130000", "102906.130000", "102908.130000", "102910.130000", "102912.130000", "102914.130000", "102916.130000", "102918.130000", "102920.130000", "102922.130000", "102924.130000", "102926.130000", "102928.130000", "102930.130000", "102932.130000", "102934.130000", "102936.130000", "102938.130000", "102940.130000", "102942.130000", "102944.130000", "102946.130000", "102948.130000", "102950.130000", "102952.130000", "102954.130000", "102956.130000", "102958.130000", "103000.130000", "103002.130000", "103004.130000", "103006.130000", "103008.130000", "103010.130000", "103012.130000", "103014.130000", "103016.130000", "103018.130000", "103020.130000", "103022.130000", "103024.130000", "103026.130000", "103028.130000", "103030.130000", "103032.130000", "103034.130000", "103036.130000", "103038.130000", "103040.130000", "103042.130000", "103044.130000", "103046.130000", "103048.130000", "103050.130000", "103052.130000", "103054.130000", "103056.130000", "103058.130000", "103100.130000", "103102.130000", "103104.130000", "103106.130000", "103108.130000", "103110.130000", "103112.130000", "103114.130000", "103116.130000", "103118.130000", "103120.130000", "103122.130000", "103124.130000", "103126.130000", "103128.130000", "103130.130000", "103132.130000", "103134.130000", "103136.130000", "103138.130000", "103140.130000", "103142.130000", "103144.130000", "103146.130000", "103148.130000", "103150.130000", "103152.130000", "103154.130000", "103156.130000", "103158.130000", "103200.130000", "103202.130000", "103204.130000", "103206.130000", "103208.130000", "103210.130000", "103212.130000", "103214.130000", "103216.130000", "103218.130000", "103220.130000", "103222.130000", "103224.130000", "103226.130000", "103228.130000", "103230.130000", "103232.130000", "103234.130000", "103236.130000", "103238.130000", "103240.130000", "103242.130000", "103244.130000", "103246.130000", "103248.130000", "103250.130000", "103252.130000", "103254.130000", "103256.130000", "103258.130000", "103300.130000", "103302.130000", "103304.130000", "103306.130000", "103308.130000", "103310.130000", "103312.130000", "103314.130000", "103316.130000"],
      "ContentTime": ["102537.034000", "102538.529000", "102540.529000", "102542.529000", "102544.528000", "102546.529000", "102548.528000", "102550.529000", "102552.530000", "102554.530000", "102556.529000", "102558.529000", "102600.528000", "102602.528000", "102604.528000", "102606.528000", "102608.528000", "102610.529000", "102612.529000", "102614.529000", "102616.529000", "102618.528000", "102620.529000", "102622.528000", "102624.528000", "102626.528000", "102628.529000", "102630.529000", "102632.529000", "102634.529000", "102636.528000", "102638.528000", "102640.528000", "102642.529000", "102644.529000", "102646.529000", "102648.529000", "102650.529000", "102652.528000", "102654.528000", "102656.528000", "102658.529000", "102700.528000", "102702.529000", "102704.529000", "102706.529000", "102708.530000", "102710.528000", "102712.529000", "102714.528000", "102716.529000", "102718.528000", "102720.529000", "102722.529000", "102724.529000", "102726.529000", "102728.529000", "102730.528000", "102732.529000", "102734.528000", "102736.528000", "102738.529000", "102740.529000", "102742.530000", "102744.530000", "102746.528000", "102748.529000", "102750.528000", "102752.528000", "102754.530000", "102756.530000", "102758.529000", "102800.529000", "102802.529000", "102804.528000", "102806.529000", "102808.528000", "102810.528000", "102812.529000", "102814.529000", "102816.529000", "102818.529000", "102820.529000", "102822.528000", "102824.529000", "102826.528000", "102828.528000", "102830.529000", "102832.530000", "102834.530000", "102836.530000", "102838.528000", "102840.528000", "102842.528000", "102844.528000", "102846.529000", "102848.529000", "102850.529000", "102852.530000", "102854.529000", "102856.528000", "102858.528000", "102900.529000", "102902.528000", "102904.529000", "102906.529000", "102908.529000", "102910.530000", "102912.528000", "102914.528000", "102916.528000", "102918.528000", "102920.528000", "102922.529000", "102924.529000", "102926.530000", "102928.529000", "102930.528000", "102932.528000", "102934.528000", "102936.528000", "102938.528000", "102940.529000", "102942.530000", "102944.530000", "102946.529000", "102948.528000", "102950.528000", "102952.528000", "102954.528000", "102956.528000", "102958.529000", "103000.529000", "103002.529000", "103004.530000", "103006.528000", "103008.528000", "103010.528000", "103012.528000", "103014.529000", "103016.529000", "103018.529000", "103020.529000", "103022.529000", "103024.528000", "103026.528000", "103028.528000", "103030.528000", "103032.529000", "103034.529000", "103036.529000", "103038.529000", "103040.529000", "103042.528000", "103044.528000", "103046.528000", "103048.528000", "103050.530000", "103052.530000", "103054.529000", "103056.529000", "103058.529000", "103100.528000", "103102.529000", "103104.528000", "103106.529000", "103108.529000", "103110.529000", "103112.529000", "103114.529000", "103116.528000", "103118.529000", "103120.528000", "103122.529000", "103124.529000", "103126.530000", "103128.530000", "103130.530000", "103132.528000", "103134.529000", "103136.528000", "103138.528000", "103140.528000", "103142.529000", "103144.529000", "103146.529000", "103148.530000", "103150.539000", "103152.528000", "103154.529000", "103156.528000", "103158.528000", "103200.529000", "103202.529000", "103204.529000", "103206.530000", "103208.528000", "103210.529000", "103212.529000", "103214.529000", "103216.528000", "103218.530000", "103220.529000", "103222.529000", "103224.530000", "103226.529000", "103228.528000", "103230.528000", "103232.528000", "103234.529000", "103236.529000", "103238.529000", "103240.530000", "103242.528000", "103244.529000", "103246.528000", "103248.528000", "103250.528000", "103252.530000", "103254.529000", "103256.530000", "103258.529000", "103300.529000", "103302.529000", "103304.529000", "103306.529000", "103308.529000", "103310.529000", "103312.529000", "103314.529000", "103316.530000", "103318.152000"],
      "InstanceCreationTime": ["102537.034000", "102538.529000", "102540.529000", "102542.529000", "102544.528000", "102546.529000", "102548.528000", "102550.529000", "102552.530000", "102554.530000", "102556.529000", "102558.529000", "102600.528000", "102602.528000", "102604.528000", "102606.528000", "102608.528000", "102610.529000", "102612.529000", "102614.529000", "102616.529000", "102618.528000", "102620.529000", "102622.528000", "102624.528000", "102626.528000", "102628.529000", "102630.529000", "102632.529000", "102634.529000", "102636.528000", "102638.528000", "102640.528000", "102642.529000", "102644.529000", "102646.529000", "102648.529000", "102650.529000", "102652.528000", "102654.528000", "102656.528000", "102658.529000", "102700.528000", "102702.529000", "102704.529000", "102706.529000", "102708.530000", "102710.528000", "102712.529000", "102714.528000", "102716.529000", "102718.528000", "102720.529000", "102722.529000", "102724.529000", "102726.529000", "102728.529000", "102730.528000", "102732.529000", "102734.528000", "102736.528000", "102738.529000", "102740.529000", "102742.530000", "102744.530000", "102746.528000", "102748.529000", "102750.528000", "102752.528000", "102754.530000", "102756.530000", "102758.529000", "102800.529000", "102802.529000", "102804.528000", "102806.529000", "102808.528000", "102810.528000", "102812.529000", "102814.529000", "102816.529000", "102818.529000", "102820.529000", "102822.528000", "102824.529000", "102826.528000", "102828.528000", "102830.529000", "102832.530000", "102834.530000", "102836.530000", "102838.528000", "102840.528000", "102842.528000", "102844.528000", "102846.529000", "102848.529000", "102850.529000", "102852.530000", "102854.529000", "102856.528000", "102858.528000", "102900.529000", "102902.528000", "102904.529000", "102906.529000", "102908.529000", "102910.530000", "102912.528000", "102914.528000", "102916.528000", "102918.528000", "102920.528000", "102922.529000", "102924.529000", "102926.530000", "102928.529000", "102930.528000", "102932.528000", "102934.528000", "102936.528000", "102938.528000", "102940.529000", "102942.530000", "102944.530000", "102946.529000", "102948.528000", "102950.528000", "102952.528000", "102954.528000", "102956.528000", "102958.529000", "103000.529000", "103002.529000", "103004.530000", "103006.528000", "103008.528000", "103010.528000", "103012.528000", "103014.529000", "103016.529000", "103018.529000", "103020.529000", "103022.529000", "103024.528000", "103026.528000", "103028.528000", "103030.528000", "103032.529000", "103034.529000", "103036.529000", "103038.529000", "103040.529000", "103042.528000", "103044.528000", "103046.528000", "103048.528000", "103050.530000", "103052.530000", "103054.529000", "103056.529000", "103058.529000", "103100.528000", "103102.529000", "103104.528000", "103106.529000", "103108.529000", "103110.529000", "103112.529000", "103114.529000", "103116.528000", "103118.529000", "103120.528000", "103122.529000", "103124.529000", "103126.530000", "103128.530000", "103130.530000", "103132.528000", "103134.529000", "103136.528000", "103138.528000", "103140.528000", "103142.529000", "103144.529000", "103146.529000", "103148.530000", "103150.539000", "103152.528000", "103154.529000", "103156.528000", "103158.528000", "103200.529000", "103202.529000", "103204.529000", "103206.530000", "103208.528000", "103210.529000", "103212.529000", "103214.529000", "103216.528000", "103218.530000", "103220.529000", "103222.529000", "103224.530000", "103226.529000", "103228.528000", "103230.528000", "103232.528000", "103234.529000", "103236.529000", "103238.529000", "103240.530000", "103242.528000", "103244.529000", "103246.528000", "103248.528000", "103250.528000", "103252.530000", "103254.529000", "103256.530000", "103258.529000", "103300.529000", "103302.529000", "103304.529000", "103306.529000", "103308.529000", "103310.529000", "103312.529000", "103314.529000", "103316.530000", "103318.152000"],
      "InstanceNumber": [1, 2, 3, 4, 5, 6, 7, 8, 9, 10, 11, 12, 13, 14, 15, 16, 17, 18, 19, 20, 21, 22, 23, 24, 25, 26, 27, 28, 29, 30, 31, 32, 33, 34, 35, 36, 37, 38, 39, 40, 41, 42, 43, 44, 45, 46, 47, 48, 49, 50, 51, 52, 53, 54, 55, 56, 57, 58, 59, 60, 61, 62, 63, 64, 65, 66, 67, 68, 69, 70, 71, 72, 73, 74, 75, 76, 77, 78, 79, 80, 81, 82, 83, 84, 85, 86, 87, 88, 89, 90, 91, 92, 93, 94, 95, 96, 97, 98, 99, 100, 101, 102, 103, 104, 105, 106, 107, 108, 109, 110, 111, 112, 113, 114, 115, 116, 117, 118, 119, 120, 121, 122, 123, 124, 125, 126, 127, 128, 129, 130, 131, 132, 133, 134, 135, 136, 137, 138, 139, 140, 141, 142, 143, 144, 145, 146, 147, 148, 149, 150, 151, 152, 153, 154, 155, 156, 157, 158, 159, 160, 161, 162, 163, 164, 165, 166, 167, 168, 169, 170, 171, 172, 173, 174, 175, 176, 177, 178, 179, 180, 181, 182, 183, 184, 185, 186, 187, 188, 189, 190, 191, 192, 193, 194, 195, 196, 197, 198, 199, 200, 201, 202, 203, 204, 205, 206, 207, 208, 209, 210, 211, 212, 213, 214, 215, 216, 217, 218, 219, 220, 221, 222, 223, 224, 225, 226, 227, 228, 229, 230, 231, 232],
      "LargestImagePixelValue": [3325, 3302, 3233, 3176, 3201, 3191, 3198, 3181, 3177, 3141, 3164, 3116, 3152, 3164, 3147, 3130, 3141, 3166, 3145, 3201, 3162, 3193, 3165, 3118, 3059, 3060, 3099, 3056, 3131, 3124, 3154, 3260, 3163, 3115, 3058, 3011, 3060, 3071, 3101, 3070, 3059, 3024, 3347, 3077, 3009, 3170, 3000, 3144, 3191, 3024, 3071, 3074, 3013, 3042, 3009, 3005, 3021, 2985, 3042, 2998, 3055, 2995, 3028, 3003, 2998, 3037, 3035, 3009, 3016, 3026, 2998, 3046, 3022, 3012, 3013, 3008, 3016, 3019, 3029, 3038, 3018, 3018, 3042, 3025, 3038, 3010, 3059, 3049, 3145, 3099, 3123, 3095, 3117, 3113, 3110, 3115, 3090, 3186, 2925, 3250, 3041, 3182, 3095, 3061, 3202, 3157, 3106, 3072, 3077, 3052, 3074, 3039, 3028, 3045, 3032, 3073, 3109, 3078, 3092, 3062, 3031, 3015, 3002, 3000, 2989, 2996, 3003, 2986, 3017, 3046, 3077, 3070, 3088, 3179, 3101, 3124, 2969, 2934, 3003, 3009, 3030, 3011, 3060, 3051, 2996, 3040, 2950, 3027, 3007, 3047, 3035, 3023, 3018, 2978, 3034, 2976, 2996, 3051, 2993, 2999, 3040, 2983, 2976, 3039, 3037, 3038, 3058, 3071, 3090, 3099, 3112, 3094, 3057, 3057, 3062, 3044, 3101, 3066, 3061, 3018, 3116, 3046, 3064, 3038, 3055, 3165, 3164, 3041, 3110, 3074, 2969, 3137, 3091, 2972, 2903, 2922, 2907, 3030, 2960, 3004, 2944, 2969, 2997, 2970, 3046, 3010, 2925, 2989, 2940, 2975, 2910, 3117, 3018, 3129, 2974, 2902, 3038, 2926, 3023, 2960, 2936, 2936, 2954, 2930, 2920, 2991, 2890, 2921, 2915, 3014, 2931, 2933],
      "WindowCenter": [750.0, 747.0, 746.0, 747.0, 749.0, 748.0, 747.0, 745.0, 743.0, 742.0, 743.0, 744.0, 744.0, 745.0, 746.0, 746.0, 747.0, 748.0, 748.0, 748.0, 747.0, 747.0, 749.0, 748.0, 746.0, 745.0, 746.0, 746.0, 747.0, 746.0, 747.0, 749.0, 747.0, 745.0, 742.0, 743.0, 744.0, 745.0, 745.0, 746.0, 746.0, 738.0, 740.0, 737.0, 746.0, 739.0, 738.0, 745.0, 739.0, 745.0, 746.0, 746.0, 745.0, 745.0, 745.0, 745.0, 745.0, 744.0, 745.0, 745.0, 746.0, 744.0, 744.0, 744.0, 742.0, 741.0, 740.0, 740.0, 741.0, 740.0, 741.0, 741.0, 742.0, 743.0, 743.0, 743.0, 744.0, 745.0, 745.0, 745.0, 744.0, 744.0, 746.0, 746.0, 745.0, 745.0, 745.0, 745.0, 747.0, 746.0, 746.0, 746.0, 746.0, 746.0, 745.0, 745.0, 745.0, 741.0, 735.0, 746.0, 741.0, 747.0, 741.0, 745.0, 746.0, 745.0, 745.0, 745.0, 745.0, 744.0, 744.0, 744.0, 744.0, 744.0, 744.0, 744.0, 745.0, 744.0, 743.0, 741.0, 741.0, 743.0, 743.0, 743.0, 742.0, 742.0, 741.0, 741.0, 739.0, 738.0, 741.0, 743.0, 742.0, 744.0, 744.0, 744.0, 741.0, 741.0, 744.0, 744.0, 744.0, 744.0, 745.0, 745.0, 745.0, 744.0, 743.0, 744.0, 743.0, 742.0, 742.0, 741.0, 742.0, 742.0, 742.0, 741.0, 742.0, 743.0, 744.0, 743.0, 742.0, 740.0, 740.0, 741.0, 741.0, 741.0, 743.0, 743.0, 744.0, 745.0, 745.0, 745.0, 743.0, 742.0, 741.0, 741.0, 744.0, 744.0, 743.0, 742.0, 742.0, 742.0, 741.0, 740.0, 741.0, 741.0, 742.0, 740.0, 739.0, 739.0, 737.0, 741.0, 738.0, 742.0, 741.0, 742.0, 742.0, 743.0, 743.0, 743.0, 742.0, 742.0, 741.0, 742.0, 741.0, 741.0, 739.0, 740.0, 740.0, 741.0, 740.0, 742.0, 742.0, 743.0, 742.0, 741.0, 743.0, 742.0, 742.0, 741.0, 740.0, 741.0, 742.0, 742.0, 741.0, 742.0, 741.0, 740.0, 740.0, 741.0, 740.0, 741.0],
      "WindowWidth": [1636.0, 1630.0, 1626.0, 1628.0, 1633.0, 1632.0, 1627.0, 1621.0, 1617.0, 1615.0, 1617.0, 1618.0, 1621.0, 1623.0, 1625.0, 1626.0, 1629.0, 1631.0, 1630.0, 1630.0, 1629.0, 1630.0, 1634.0, 1632.0, 1625.0, 1622.0, 1624.0, 1625.0, 1627.0, 1626.0, 1628.0, 1634.0, 1627.0, 1623.0, 1615.0, 1615.0, 1620.0, 1623.0, 1624.0, 1625.0, 1625.0, 1606.0, 1612.0, 1602.0, 1624.0, 1606.0, 1605.0, 1623.0, 1608.0, 1622.0, 1625.0, 1626.0, 1623.0, 1622.0, 1623.0, 1623.0, 1622.0, 1619.0, 1622.0, 1622.0, 1624.0, 1619.0, 1619.0, 1618.0, 1615.0, 1611.0, 1608.0, 1608.0, 1610.0, 1609.0, 1610.0, 1612.0, 1613.0, 1616.0, 1616.0, 1617.0, 1620.0, 1623.0, 1622.0, 1621.0, 1619.0, 1621.0, 1625.0, 1624.0, 1622.0, 1621.0, 1622.0, 1623.0, 1628.0, 1625.0, 1625.0, 1625.0, 1626.0, 1626.0, 1623.0, 1623.0, 1623.0, 1611.0, 1598.0, 1626.0, 1612.0, 1628.0, 1611.0, 1621.0, 1626.0, 1623.0, 1621.0, 1621.0, 1621.0, 1620.0, 1620.0, 1620.0, 1619.0, 1619.0, 1619.0, 1621.0, 1622.0, 1619.0, 1617.0, 1612.0, 1611.0, 1615.0, 1616.0, 1616.0, 1615.0, 1613.0, 1612.0, 1610.0, 1605.0, 1604.0, 1611.0, 1615.0, 1614.0, 1619.0, 1619.0, 1619.0, 1612.0, 1612.0, 1619.0, 1618.0, 1620.0, 1619.0, 1623.0, 1622.0, 1622.0, 1619.0, 1617.0, 1618.0, 1617.0, 1615.0, 1613.0, 1611.0, 1612.0, 1613.0, 1613.0, 1612.0, 1614.0, 1617.0, 1618.0, 1617.0, 1613.0, 1608.0, 1608.0, 1611.0, 1611.0, 1612.0, 1615.0, 1616.0, 1620.0, 1621.0, 1622.0, 1621.0, 1616.0, 1612.0, 1611.0, 1611.0, 1618.0, 1619.0, 1616.0, 1612.0, 1615.0, 1612.0, 1610.0, 1608.0, 1609.0, 1612.0, 1613.0, 1608.0, 1606.0, 1604.0, 1600.0, 1611.0, 1605.0, 1613.0, 1609.0, 1613.0, 1613.0, 1616.0, 1615.0, 1616.0, 1613.0, 1613.0, 1611.0, 1612.0, 1611.0, 1610.0, 1606.0, 1607.0, 1606.0, 1609.0, 1608.0, 1614.0, 1614.0, 1617.0, 1613.0, 1612.0, 1617.0, 1613.0, 1612.0, 1609.0, 1608.0, 1610.0, 1613.0, 1613.0, 1611.0, 1612.0, 1610.0, 1608.0, 1607.0, 1609.0, 1608.0, 1610.0]
    },
    "slices": {}
  }
}