{
  "AcquisitionMatrixPE": 100,
  "AcquisitionNumber": 1,
  "AcquisitionTime": "11:46:10.500000",
  "BandwidthPerPixelPhaseEncode": 18.519,
  "BaseResolution": 100,
  "BodyPartExamined": "BRAIN",
  "ConsistencyInfo": "N4_VE11C_LATEST_20160120",
  "ConversionSoftware": "dcm2niix",
  "ConversionSoftwareVersion": "v1.0.20180622 GCC4.9.2",
  "DerivedVendorReportedEchoSpacing": 0.000539986,
  "DeviceSerialNumber": "166078",
  "DwellTime": 2.1e-06,
  "EchoTime": 0.034,
  "EchoTrainLength": 100,
  "EffectiveEchoSpacing": 0.000539986,
  "FlipAngle": 90,
  "ImageOrientationPatientDICOM": [0.999196, 0.00412314, 0.0398916, 6.4703e-08, 0.994701, -0.102813],
  "ImageType": [
    "ORIGINAL",
    "PRIMARY",
    "M",
    "ND",
    "MOSAIC"
],
  "InPlanePhaseEncodingDirectionDICOM": "COL",
  "InstitutionAddress": "Street_StreetNo_Bei_Jing_District_CN_ZIP",
  "InstitutionName": "BeiJing_Normal_University",
  "InstitutionalDepartmentName": "Department",
  "MRAcquisitionType": "2D",
  "MagneticFieldStrength": 3,
  "Manufacturer": "Siemens",
  "ManufacturersModelName": "Prisma",
  "Modality": "MR",
  "MultibandAccelerationFactor": 3,
  "PartialFourier": 1,
  "PatientPosition": "HFS",
  "PercentPhaseFOV": 100,
  "PhaseEncodingDirection": "j-",
  "PhaseEncodingSteps": 100,
  "PhaseResolution": 1,
  "PixelBandwidth": 2380,
  "ProcedureStepDescription": "BNU_P2018_64CH_Liu.Jia",
  "ProtocolName": "bold_100x100_s3_2x2x2_232",
  "PulseSequenceDetails": "%SiemensSeq%_ep2d_bold",
  "ReceiveCoilActiveElements": "HC1-7;NC1",
  "ReceiveCoilName": "HeadNeck_64",
  "ReconMatrixPE": 100,
  "RepetitionTime": 2,
  "SAR": 0.0724747,
  "ScanOptions": "FS",
  "ScanningSequence": "EP",
  "SequenceName": "_epfid2d1_100",
  "SequenceVariant": "SK",
  "SeriesDescription": "bold_100x100_s3_2x2x2_232",
  "SeriesNumber": 5,
  "ShimSetting": [-5469, -11497, -1229, 379, -90, -86, -66, 22],
  "SliceThickness": 2,
  "SliceTiming": [1.485, 0, 0.99, 0.0825, 1.0725, 0.165, 1.155, 0.2475, 1.2375, 0.33, 1.32, 0.4125, 1.4025, 0.5775, 1.5675, 0.66, 1.65, 0.7425, 1.7325, 0.825, 1.815, 0.9075, 1.8975, 0.495, 1.485, 0, 0.99, 0.0825, 1.0725, 0.165, 1.155, 0.2475, 1.2375, 0.33, 1.32, 0.4125, 1.4025, 0.5775, 1.5675, 0.66, 1.65, 0.7425, 1.7325, 0.825, 1.815, 0.9075, 1.8975, 0.495, 1.485, 0, 0.99, 0.0825, 1.0725, 0.165, 1.155, 0.2475, 1.2375, 0.33, 1.32, 0.4125, 1.4025, 0.5775, 1.5675, 0.66, 1.65, 0.7425, 1.7325, 0.825, 1.815, 0.9075, 1.8975, 0.495],
  "SoftwareVersions": "syngo_MR_E11",
  "SpacingBetweenSlices": 2,
  "StationName": "AWP166078",
  "TaskName": "motor",
  "TotalReadoutTime": 0.0534586,
  "TxRefAmp": 230.737,
  "dcmmeta_affine": [
    [-1.998391032218933, 1.2940593308030657e-07, 0.08020813763141632, 101.77566528320312],
    [-0.008246281184256077, 1.9894014596939087, -0.2054598480463028, -83.47876739501953],
    [0.0797831118106842, 0.2056252658367157, 1.9878010749816895, -88.33299255371094],
    [0.0, 0.0, 0.0, 1.0]
],
  "dcmmeta_reorient_transform": [
    [0.0, -1.0, 0.0, 99.0],
    [1.0, 0.0, 0.0, 0.0],
    [0.0, 0.0, 1.0, 0.0],
    [0.0, 0.0, 0.0, 1.0]
],
  "dcmmeta_shape": [100, 100, 72, 232],
  "dcmmeta_slice_dim": 2,
  "dcmmeta_version": 0.6,
  "global": {
    "const": {
      "AcquisitionMatrix": [100, 0, 0, 100],
      "AngioFlag": "N",
      "BitsAllocated": 16,
      "BitsStored": 12,
      "BodyPartExamined": "BRAIN",
      "Columns": 900,
      "EchoNumbers": 1,
      "EchoTime": 34.0,
      "EchoTrainLength": 100,
      "FlipAngle": 90.0,
      "HighBit": 11,
      "ImageOrientationPatient": [0.99919550818988, 0.00412314056888, 0.03989155455766, 6.4702968e-08, 0.99470074050864, -0.1028126297278],
      "ImagePositionPatient": [-901.13213785889, -912.53108781078, -17.639228452798],
      "ImageType": [
        "ORIGINAL",
        "PRIMARY",
        "M",
        "ND",
        "MOSAIC"
],
      "ImagedNucleus": "1H",
      "ImagingFrequency": 123.25782,
      "InPlanePhaseEncodingDirection": "COL",
      "MRAcquisitionType": "2D",
      "MagneticFieldStrength": 3.0,
      "Manufacturer": "SIEMENS",
      "ManufacturerModelName": "Prisma",
      "Modality": "MR",
      "NumberOfAverages": 1.0,
      "NumberOfPhaseEncodingSteps": 100,
      "PercentPhaseFieldOfView": 100.0,
      "PercentSampling": 100.0,
      "PerformedProcedureStepStartTime": "113240.922000",
      "PhotometricInterpretation": "MONOCHROME2",
      "PixelBandwidth": 2380.0,
      "PixelRepresentation": 0,
      "PixelSpacing": [2.0, 2.0],
      "ProtocolName": "bold_100x100_s3_2x2x2_232",
      "RepetitionTime": 2000.0,
      "Rows": 900,
      "SAR": 0.07247468076734,
      "SamplesPerPixel": 1,
      "ScanOptions": "FS",
      "ScanningSequence": "EP",
      "SequenceName": "*epfid2d1_100",
      "SequenceVariant": "SK",
      "SeriesDescription": "bold_100x100_s3_2x2x2_232",
      "SeriesNumber": 5,
      "SeriesTime": "114612.953000",
      "SliceLocation": -75.136818048183,
      "SliceThickness": 2.0,
      "SmallestImagePixelValue": 0,
      "SoftwareVersions": "syngo MR E11",
      "SpacingBetweenSlices": 2.0000000048141,
      "SpecificCharacterSet": "ISO_IR 100",
      "StudyID": "1",
      "StudyTime": "113240.852000",
      "TransmitCoilName": "Body",
      "VariableFlipAngleFlag": "N",
      "WindowCenterWidthExplanation": "Algo1",
      "dBdt": 0.0},
    "slices": {}
  },
  "time": {
    "samples": {
      "AcquisitionNumber": [1, 2, 3, 4, 5, 6, 7, 8, 9, 10, 11, 12, 13, 14, 15, 16, 17, 18, 19, 20, 21, 22, 23, 24, 25, 26, 27, 28, 29, 30, 31, 32, 33, 34, 35, 36, 37, 38, 39, 40, 41, 42, 43, 44, 45, 46, 47, 48, 49, 50, 51, 52, 53, 54, 55, 56, 57, 58, 59, 60, 61, 62, 63, 64, 65, 66, 67, 68, 69, 70, 71, 72, 73, 74, 75, 76, 77, 78, 79, 80, 81, 82, 83, 84, 85, 86, 87, 88, 89, 90, 91, 92, 93, 94, 95, 96, 97, 98, 99, 100, 101, 102, 103, 104, 105, 106, 107, 108, 109, 110, 111, 112, 113, 114, 115, 116, 117, 118, 119, 120, 121, 122, 123, 124, 125, 126, 127, 128, 129, 130, 131, 132, 133, 134, 135, 136, 137, 138, 139, 140, 141, 142, 143, 144, 145, 146, 147, 148, 149, 150, 151, 152, 153, 154, 155, 156, 157, 158, 159, 160, 161, 162, 163, 164, 165, 166, 167, 168, 169, 170, 171, 172, 173, 174, 175, 176, 177, 178, 179, 180, 181, 182, 183, 184, 185, 186, 187, 188, 189, 190, 191, 192, 193, 194, 195, 196, 197, 198, 199, 200, 201, 202, 203, 204, 205, 206, 207, 208, 209, 210, 211, 212, 213, 214, 215, 216, 217, 218, 219, 220, 221, 222, 223, 224, 225, 226, 227, 228, 229, 230, 231, 232],
      "AcquisitionTime": ["114610.500000", "114612.500000", "114614.500000", "114616.500000", "114618.500000", "114620.500000", "114622.500000", "114624.500000", "114626.500000", "114628.500000", "114630.500000", "114632.500000", "114634.500000", "114636.500000", "114638.500000", "114640.500000", "114642.500000", "114644.500000", "114646.500000", "114648.500000", "114650.500000", "114652.500000", "114654.500000", "114656.500000", "114658.500000", "114700.500000", "114702.500000", "114704.500000", "114706.500000", "114708.500000", "114710.500000", "114712.500000", "114714.500000", "114716.500000", "114718.500000", "114720.500000", "114722.500000", "114724.500000", "114726.500000", "114728.500000", "114730.500000", "114732.500000", "114734.500000", "114736.500000", "114738.500000", "114740.500000", "114742.500000", "114744.500000", "114746.500000", "114748.500000", "114750.500000", "114752.500000", "114754.500000", "114756.500000", "114758.500000", "114800.500000", "114802.500000", "114804.500000", "114806.500000", "114808.500000", "114810.500000", "114812.500000", "114814.500000", "114816.500000", "114818.500000", "114820.500000", "114822.500000", "114824.500000", "114826.500000", "114828.500000", "114830.500000", "114832.500000", "114834.500000", "114836.500000", "114838.500000", "114840.500000", "114842.500000", "114844.500000", "114846.500000", "114848.500000", "114850.500000", "114852.500000", "114854.500000", "114856.500000", "114858.500000", "114900.500000", "114902.500000", "114904.500000", "114906.500000", "114908.500000", "114910.500000", "114912.500000", "114914.500000", "114916.500000", "114918.500000", "114920.500000", "114922.500000", "114924.500000", "114926.500000", "114928.500000", "114930.500000", "114932.500000", "114934.500000", "114936.500000", "114938.500000", "114940.500000", "114942.500000", "114944.500000", "114946.500000", "114948.500000", "114950.500000", "114952.500000", "114954.500000", "114956.500000", "114958.500000", "115000.500000", "115002.500000", "115004.500000", "115006.500000", "115008.500000", "115010.500000", "115012.500000", "115014.500000", "115016.500000", "115018.500000", "115020.500000", "115022.500000", "115024.500000", "115026.500000", "115028.500000", "115030.500000", "115032.500000", "115034.500000", "115036.500000", "115038.500000", "115040.500000", "115042.500000", "115044.500000", "115046.500000", "115048.500000", "115050.500000", "115052.500000", "115054.500000", "115056.500000", "115058.500000", "115100.500000", "115102.500000", "115104.500000", "115106.500000", "115108.500000", "115110.500000", "115112.500000", "115114.500000", "115116.500000", "115118.500000", "115120.500000", "115122.500000", "115124.500000", "115126.500000", "115128.500000", "115130.500000", "115132.500000", "115134.500000", "115136.500000", "115138.500000", "115140.500000", "115142.500000", "115144.500000", "115146.500000", "115148.500000", "115150.500000", "115152.500000", "115154.500000", "115156.500000", "115158.500000", "115200.500000", "115202.500000", "115204.500000", "115206.500000", "115208.500000", "115210.500000", "115212.500000", "115214.500000", "115216.500000", "115218.500000", "115220.500000", "115222.500000", "115224.500000", "115226.500000", "115228.500000", "115230.500000", "115232.500000", "115234.500000", "115236.500000", "115238.500000", "115240.500000", "115242.500000", "115244.500000", "115246.500000", "115248.500000", "115250.500000", "115252.500000", "115254.500000", "115256.500000", "115258.500000", "115300.500000", "115302.500000", "115304.500000", "115306.500000", "115308.500000", "115310.500000", "115312.500000", "115314.500000", "115316.500000", "115318.500000", "115320.500000", "115322.500000", "115324.500000", "115326.500000", "115328.500000", "115330.500000", "115332.500000", "115334.500000", "115336.500000", "115338.500000", "115340.500000", "115342.500000", "115344.500000", "115346.500000", "115348.500000", "115350.500000", "115352.500000"],
      "ContentTime": ["114612.956000", "114614.951000", "114616.451000", "114618.953000", "114620.952000", "114622.452000", "114624.952000", "114626.452000", "114628.452000", "114630.452000", "114632.951000", "114634.451000", "114636.952000", "114638.453000", "114640.952000", "114642.452000", "114644.452000", "114646.452000", "114648.951000", "114650.952000", "114652.451000", "114654.953000", "114656.952000", "114658.452000", "114700.452000", "114702.952000", "114704.452000", "114706.951000", "114708.951000", "114710.951000", "114712.953000", "114714.952000", "114716.452000", "114718.952000", "114720.452000", "114722.452000", "114724.451000", "114726.951000", "114728.952000", "114730.452000", "114732.452000", "114734.952000", "114736.953000", "114738.953000", "114740.952000", "114742.951000", "114744.951000", "114746.952000", "114748.452000", "114750.453000", "114752.452000", "114754.952000", "114756.452000", "114758.952000", "114800.952000", "114802.951000", "114804.953000", "114806.952000", "114808.952000", "114810.952000", "114812.452000", "114814.953000", "114816.951000", "114818.451000", "114820.952000", "114822.952000", "114824.452000", "114826.953000", "114828.452000", "114830.952000", "114832.952000", "114834.451000", "114836.952000", "114838.953000", "114840.452000", "114842.452000", "114844.952000", "114846.952000", "114848.952000", "114850.951000", "114852.451000", "114854.451000", "114856.452000", "114858.953000", "114900.953000", "114902.952000", "114904.452000", "114906.952000", "114908.952000", "114910.952000", "114912.952000", "114914.452000", "114916.953000", "114918.952000", "114920.952000", "114922.953000", "114924.952000", "114926.951000", "114928.452000", "114930.952000", "114932.952000", "114934.452000", "114936.953000", "114938.952000", "114940.953000", "114942.953000", "114944.951000", "114946.952000", "114948.953000", "114950.452000", "114952.952000", "114954.952000", "114956.452000", "114958.453000", "115000.951000", "115002.951000", "115004.952000", "115006.952000", "115008.952000", "115010.452000", "115012.953000", "115014.952000", "115016.953000", "115018.951000", "115020.451000", "115022.451000", "115024.453000", "115026.452000", "115028.452000", "115030.452000", "115032.453000", "115034.953000", "115036.451000", "115038.951000", "115040.953000", "115042.952000", "115044.952000", "115046.952000", "115048.952000", "115050.453000", "115052.952000", "115054.951000", "115056.951000", "115058.953000", "115100.952000", "115102.952000", "115104.452000", "115106.952000", "115108.952000", "115110.951000", "115112.952000", "115114.451000", "115116.952000", "115118.952000", "115120.452000", "115122.452000", "115124.952000", "115126.953000", "115128.452000", "115130.951000", "115132.452000", "115134.952000", "115136.952000", "115138.952000", "115140.952000", "115142.953000", "115144.452000", "115146.952000", "115148.952000", "115150.952000", "115152.953000", "115154.952000", "115156.952000", "115158.952000", "115200.952000", "115202.953000", "115204.452000", "115206.451000", "115208.452000", "115210.953000", "115212.952000", "115214.452000", "115216.953000", "115218.953000", "115220.952000", "115222.451000", "115224.951000", "115226.952000", "115228.452000", "115230.952000", "115232.952000", "115234.952000", "115236.952000", "115238.951000", "115240.451000", "115242.951000", "115244.452000", "115246.952000", "115248.953000", "115250.452000", "115252.452000", "115254.452000", "115256.451000", "115258.451000", "115300.452000", "115302.952000", "115304.953000", "115306.953000", "115308.952000", "115310.952000", "115312.452000", "115314.451000", "115316.951000", "115318.953000", "115320.453000", "115322.952000", "115324.452000", "115326.952000", "115328.953000", "115330.452000", "115332.952000", "115334.451000", "115336.952000", "115338.952000", "115340.952000", "115342.952000", "115344.952000", "115346.952000", "115348.951000", "115350.451000", "115352.451000", "115354.405000"],
      "InstanceCreationTime": ["114612.956000", "114614.951000", "114616.451000", "114618.953000", "114620.952000", "114622.452000", "114624.952000", "114626.452000", "114628.452000", "114630.452000", "114632.951000", "114634.451000", "114636.952000", "114638.453000", "114640.952000", "114642.452000", "114644.452000", "114646.452000", "114648.951000", "114650.952000", "114652.451000", "114654.953000", "114656.952000", "114658.452000", "114700.452000", "114702.952000", "114704.452000", "114706.951000", "114708.951000", "114710.951000", "114712.953000", "114714.952000", "114716.452000", "114718.952000", "114720.452000", "114722.452000", "114724.451000", "114726.951000", "114728.952000", "114730.452000", "114732.452000", "114734.952000", "114736.953000", "114738.953000", "114740.952000", "114742.951000", "114744.951000", "114746.952000", "114748.452000", "114750.453000", "114752.452000", "114754.952000", "114756.452000", "114758.952000", "114800.952000", "114802.951000", "114804.953000", "114806.952000", "114808.952000", "114810.952000", "114812.452000", "114814.953000", "114816.951000", "114818.451000", "114820.952000", "114822.952000", "114824.452000", "114826.953000", "114828.452000", "114830.952000", "114832.952000", "114834.451000", "114836.952000", "114838.953000", "114840.452000", "114842.452000", "114844.952000", "114846.952000", "114848.952000", "114850.951000", "114852.451000", "114854.451000", "114856.452000", "114858.953000", "114900.953000", "114902.952000", "114904.452000", "114906.952000", "114908.952000", "114910.952000", "114912.952000", "114914.452000", "114916.953000", "114918.952000", "114920.952000", "114922.953000", "114924.952000", "114926.951000", "114928.452000", "114930.952000", "114932.952000", "114934.452000", "114936.953000", "114938.952000", "114940.953000", "114942.953000", "114944.951000", "114946.952000", "114948.953000", "114950.452000", "114952.952000", "114954.952000", "114956.452000", "114958.453000", "115000.951000", "115002.951000", "115004.952000", "115006.952000", "115008.952000", "115010.452000", "115012.953000", "115014.952000", "115016.953000", "115018.951000", "115020.451000", "115022.451000", "115024.453000", "115026.452000", "115028.452000", "115030.452000", "115032.453000", "115034.953000", "115036.451000", "115038.951000", "115040.953000", "115042.952000", "115044.952000", "115046.952000", "115048.952000", "115050.453000", "115052.952000", "115054.951000", "115056.951000", "115058.953000", "115100.952000", "115102.952000", "115104.452000", "115106.952000", "115108.952000", "115110.951000", "115112.952000", "115114.451000", "115116.952000", "115118.952000", "115120.452000", "115122.452000", "115124.952000", "115126.953000", "115128.452000", "115130.951000", "115132.452000", "115134.952000", "115136.952000", "115138.952000", "115140.952000", "115142.953000", "115144.452000", "115146.952000", "115148.952000", "115150.952000", "115152.953000", "115154.952000", "115156.952000", "115158.952000", "115200.952000", "115202.953000", "115204.452000", "115206.451000", "115208.452000", "115210.953000", "115212.952000", "115214.452000", "115216.953000", "115218.953000", "115220.952000", "115222.451000", "115224.951000", "115226.952000", "115228.452000", "115230.952000", "115232.952000", "115234.952000", "115236.952000", "115238.951000", "115240.451000", "115242.951000", "115244.452000", "115246.952000", "115248.953000", "115250.452000", "115252.452000", "115254.452000", "115256.451000", "115258.451000", "115300.452000", "115302.952000", "115304.953000", "115306.953000", "115308.952000", "115310.952000", "115312.452000", "115314.451000", "115316.951000", "115318.953000", "115320.453000", "115322.952000", "115324.452000", "115326.952000", "115328.953000", "115330.452000", "115332.952000", "115334.451000", "115336.952000", "115338.952000", "115340.952000", "115342.952000", "115344.952000", "115346.952000", "115348.951000", "115350.451000", "115352.451000", "115354.405000"],
      "InstanceNumber": [1, 2, 3, 4, 5, 6, 7, 8, 9, 10, 11, 12, 13, 14, 15, 16, 17, 18, 19, 20, 21, 22, 23, 24, 25, 26, 27, 28, 29, 30, 31, 32, 33, 34, 35, 36, 37, 38, 39, 40, 41, 42, 43, 44, 45, 46, 47, 48, 49, 50, 51, 52, 53, 54, 55, 56, 57, 58, 59, 60, 61, 62, 63, 64, 65, 66, 67, 68, 69, 70, 71, 72, 73, 74, 75, 76, 77, 78, 79, 80, 81, 82, 83, 84, 85, 86, 87, 88, 89, 90, 91, 92, 93, 94, 95, 96, 97, 98, 99, 100, 101, 102, 103, 104, 105, 106, 107, 108, 109, 110, 111, 112, 113, 114, 115, 116, 117, 118, 119, 120, 121, 122, 123, 124, 125, 126, 127, 128, 129, 130, 131, 132, 133, 134, 135, 136, 137, 138, 139, 140, 141, 142, 143, 144, 145, 146, 147, 148, 149, 150, 151, 152, 153, 154, 155, 156, 157, 158, 159, 160, 161, 162, 163, 164, 165, 166, 167, 168, 169, 170, 171, 172, 173, 174, 175, 176, 177, 178, 179, 180, 181, 182, 183, 184, 185, 186, 187, 188, 189, 190, 191, 192, 193, 194, 195, 196, 197, 198, 199, 200, 201, 202, 203, 204, 205, 206, 207, 208, 209, 210, 211, 212, 213, 214, 215, 216, 217, 218, 219, 220, 221, 222, 223, 224, 225, 226, 227, 228, 229, 230, 231, 232],
      "LargestImagePixelValue": [3789, 3272, 3241, 3285, 3244, 3292, 3289, 3274, 3259, 3292, 3286, 3278, 3273, 3275, 3285, 3277, 3317, 3288, 3344, 3286, 3288, 3283, 3276, 3288, 3259, 3270, 3288, 3245, 3194, 3206, 3148, 3121, 3124, 3125, 3119, 3194, 3133, 3145, 3166, 3118, 3127, 3106, 3121, 3131, 3123, 3121, 3128, 3125, 3136, 3172, 3119, 3137, 3128, 3134, 3106, 3119, 3102, 3164, 3195, 3266, 3254, 3281, 3255, 3263, 3273, 3285, 3295, 3294, 3307, 3308, 3281, 3268, 3278, 3301, 3484, 3259, 3257, 3250, 3264, 3280, 3281, 3249, 3260, 3275, 3256, 3278, 3271, 3252, 3264, 3284, 3300, 3285, 3286, 3287, 3276, 3287, 3227, 3281, 3254, 3207, 3228, 3260, 3286, 3247, 3250, 3264, 3217, 3183, 3188, 3134, 3134, 3185, 3168, 3272, 3246, 3280, 3262, 3258, 3265, 3291, 3291, 3247, 3233, 3232, 3211, 3207, 3210, 3135, 3169, 3173, 3140, 3214, 3260, 3190, 3187, 3209, 3210, 3169, 3209, 3244, 3140, 3182, 3186, 3178, 3231, 3148, 3130, 3196, 3149, 3163, 3144, 3160, 3113, 3121, 3130, 3107, 3144, 3131, 3108, 3138, 3211, 3150, 3243, 3185, 3198, 3161, 3257, 3219, 3254, 3250, 3270, 3287, 3272, 3272, 3291, 3254, 3285, 3267, 3255, 3251, 3253, 3256, 3225, 3242, 3226, 3247, 3241, 3195, 3154, 3177, 3163, 3205, 3171, 3227, 3226, 3180, 3195, 3168, 3239, 3191, 3244, 3149, 3211, 3324, 3104, 3088, 3122, 3111, 3097, 3119, 3159, 3129, 3139, 3218, 3123, 3141, 3140, 3088, 3138, 3188, 3165, 3125, 3120, 3219, 3188, 3239, 3245, 3236, 3262, 3259, 3279, 3286],
      "WindowCenter": [779.0, 774.0, 773.0, 774.0, 774.0, 774.0, 773.0, 772.0, 771.0, 770.0, 770.0, 770.0, 771.0, 771.0, 771.0, 770.0, 769.0, 769.0, 772.0, 773.0, 772.0, 773.0, 772.0, 772.0, 772.0, 772.0, 772.0, 773.0, 773.0, 773.0, 772.0, 770.0, 771.0, 771.0, 771.0, 772.0, 772.0, 771.0, 770.0, 768.0, 768.0, 768.0, 768.0, 767.0, 766.0, 766.0, 766.0, 768.0, 768.0, 768.0, 767.0, 767.0, 767.0, 768.0, 768.0, 768.0, 769.0, 771.0, 772.0, 773.0, 772.0, 771.0, 770.0, 770.0, 771.0, 771.0, 770.0, 769.0, 769.0, 771.0, 771.0, 770.0, 770.0, 770.0, 773.0, 771.0, 772.0, 772.0, 772.0, 772.0, 771.0, 771.0, 772.0, 771.0, 771.0, 771.0, 772.0, 771.0, 771.0, 772.0, 773.0, 773.0, 774.0, 773.0, 772.0, 770.0, 771.0, 770.0, 770.0, 768.0, 769.0, 769.0, 769.0, 769.0, 770.0, 770.0, 770.0, 771.0, 771.0, 770.0, 770.0, 770.0, 770.0, 772.0, 772.0, 772.0, 772.0, 771.0, 772.0, 772.0, 772.0, 771.0, 771.0, 771.0, 771.0, 769.0, 769.0, 768.0, 769.0, 769.0, 769.0, 771.0, 770.0, 771.0, 770.0, 770.0, 771.0, 770.0, 770.0, 771.0, 770.0, 771.0, 771.0, 769.0, 769.0, 768.0, 768.0, 769.0, 767.0, 768.0, 768.0, 769.0, 769.0, 770.0, 771.0, 770.0, 771.0, 770.0, 769.0, 769.0, 770.0, 768.0, 769.0, 768.0, 769.0, 768.0, 770.0, 768.0, 770.0, 771.0, 772.0, 771.0, 771.0, 771.0, 772.0, 771.0, 771.0, 770.0, 770.0, 770.0, 769.0, 770.0, 770.0, 770.0, 770.0, 771.0, 772.0, 772.0, 772.0, 772.0, 771.0, 771.0, 771.0, 771.0, 770.0, 770.0, 771.0, 770.0, 770.0, 770.0, 770.0, 769.0, 770.0, 772.0, 770.0, 769.0, 770.0, 770.0, 770.0, 770.0, 770.0, 770.0, 769.0, 769.0, 767.0, 767.0, 767.0, 767.0, 768.0, 768.0, 768.0, 768.0, 769.0, 770.0, 770.0, 770.0, 773.0, 773.0, 774.0, 772.0, 773.0, 771.0],
      "WindowWidth": [1686.0, 1671.0, 1668.0, 1670.0, 1672.0, 1671.0, 1669.0, 1665.0, 1664.0, 1662.0, 1661.0, 1662.0, 1665.0, 1664.0, 1662.0, 1660.0, 1659.0, 1659.0, 1665.0, 1668.0, 1667.0, 1668.0, 1666.0, 1665.0, 1665.0, 1667.0, 1666.0, 1667.0, 1667.0, 1667.0, 1664.0, 1661.0, 1661.0, 1663.0, 1662.0, 1665.0, 1665.0, 1663.0, 1660.0, 1656.0, 1655.0, 1655.0, 1655.0, 1653.0, 1651.0, 1650.0, 1650.0, 1654.0, 1655.0, 1654.0, 1652.0, 1651.0, 1653.0, 1656.0, 1655.0, 1656.0, 1657.0, 1662.0, 1665.0, 1667.0, 1665.0, 1663.0, 1660.0, 1661.0, 1662.0, 1662.0, 1660.0, 1657.0, 1658.0, 1662.0, 1663.0, 1661.0, 1660.0, 1661.0, 1668.0, 1665.0, 1666.0, 1666.0, 1665.0, 1665.0, 1664.0, 1664.0, 1665.0, 1664.0, 1663.0, 1663.0, 1665.0, 1663.0, 1664.0, 1665.0, 1667.0, 1668.0, 1669.0, 1667.0, 1666.0, 1660.0, 1662.0, 1660.0, 1661.0, 1657.0, 1659.0, 1658.0, 1659.0, 1658.0, 1660.0, 1660.0, 1660.0, 1661.0, 1663.0, 1661.0, 1661.0, 1660.0, 1660.0, 1665.0, 1664.0, 1666.0, 1664.0, 1664.0, 1665.0, 1665.0, 1664.0, 1662.0, 1664.0, 1663.0, 1661.0, 1658.0, 1658.0, 1656.0, 1657.0, 1657.0, 1657.0, 1663.0, 1661.0, 1661.0, 1659.0, 1660.0, 1661.0, 1661.0, 1661.0, 1662.0, 1659.0, 1661.0, 1662.0, 1658.0, 1658.0, 1655.0, 1655.0, 1658.0, 1653.0, 1654.0, 1656.0, 1659.0, 1657.0, 1660.0, 1662.0, 1661.0, 1661.0, 1659.0, 1657.0, 1658.0, 1659.0, 1655.0, 1657.0, 1655.0, 1656.0, 1656.0, 1660.0, 1656.0, 1660.0, 1662.0, 1665.0, 1661.0, 1661.0, 1662.0, 1664.0, 1663.0, 1661.0, 1660.0, 1659.0, 1659.0, 1659.0, 1660.0, 1659.0, 1660.0, 1661.0, 1663.0, 1665.0, 1664.0, 1664.0, 1664.0, 1662.0, 1661.0, 1662.0, 1661.0, 1660.0, 1661.0, 1662.0, 1660.0, 1660.0, 1659.0, 1660.0, 1657.0, 1659.0, 1664.0, 1658.0, 1656.0, 1659.0, 1659.0, 1659.0, 1660.0, 1659.0, 1658.0, 1657.0, 1657.0, 1653.0, 1651.0, 1653.0, 1650.0, 1653.0, 1655.0, 1655.0, 1655.0, 1657.0, 1661.0, 1660.0, 1661.0, 1667.0, 1666.0, 1668.0, 1664.0, 1666.0, 1662.0]
    },
    "slices": {}
  }
}