{
  "AcquisitionMatrixPE": 100,
  "AcquisitionNumber": 1,
  "AcquisitionTime": "12:23:25.155000",
  "BandwidthPerPixelPhaseEncode": 18.519,
  "BaseResolution": 100,
  "BodyPartExamined": "BRAIN",
  "ConsistencyInfo": "N4_VE11C_LATEST_20160120",
  "ConversionSoftware": "dcm2niix",
  "ConversionSoftwareVersion": "v1.0.20180622 GCC4.9.2",
  "DerivedVendorReportedEchoSpacing": 0.000539986,
  "DeviceSerialNumber": "166078",
  "DwellTime": 2.1e-06,
  "EchoTime": 0.034,
  "EchoTrainLength": 100,
  "EffectiveEchoSpacing": 0.000539986,
  "FlipAngle": 90,
  "ImageOrientationPatientDICOM": [0.999196, 0.00412314, 0.0398916, 6.4703e-08, 0.994701, -0.102813],
  "ImageType": [
    "ORIGINAL",
    "PRIMARY",
    "M",
    "ND",
    "MOSAIC"
],
  "InPlanePhaseEncodingDirectionDICOM": "COL",
  "InstitutionAddress": "Street_StreetNo_Bei_Jing_District_CN_ZIP",
  "InstitutionName": "BeiJing_Normal_University",
  "InstitutionalDepartmentName": "Department",
  "MRAcquisitionType": "2D",
  "MagneticFieldStrength": 3,
  "Manufacturer": "Siemens",
  "ManufacturersModelName": "Prisma",
  "Modality": "MR",
  "MultibandAccelerationFactor": 3,
  "PartialFourier": 1,
  "PatientPosition": "HFS",
  "PercentPhaseFOV": 100,
  "PhaseEncodingDirection": "j-",
  "PhaseEncodingSteps": 100,
  "PhaseResolution": 1,
  "PixelBandwidth": 2380,
  "ProcedureStepDescription": "BNU_P2018_64CH_Liu.Jia",
  "ProtocolName": "bold_100x100_s3_2x2x2_232",
  "PulseSequenceDetails": "%SiemensSeq%_ep2d_bold",
  "ReceiveCoilActiveElements": "HC1-7;NC1",
  "ReceiveCoilName": "HeadNeck_64",
  "ReconMatrixPE": 100,
  "RepetitionTime": 2,
  "SAR": 0.0724747,
  "ScanOptions": "FS",
  "ScanningSequence": "EP",
  "SequenceName": "_epfid2d1_100",
  "SequenceVariant": "SK",
  "SeriesDescription": "bold_100x100_s3_2x2x2_232",
  "SeriesNumber": 11,
  "ShimSetting": [-5469, -11497, -1229, 379, -90, -86, -66, 22],
  "SliceThickness": 2,
  "SliceTiming": [1.485, 0, 0.99, 0.0825, 1.0725, 0.165, 1.155, 0.2475, 1.2375, 0.33, 1.32, 0.4125, 1.4025, 0.5775, 1.5675, 0.66, 1.65, 0.7425, 1.7325, 0.825, 1.815, 0.9075, 1.8975, 0.495, 1.485, 0, 0.99, 0.0825, 1.0725, 0.165, 1.155, 0.2475, 1.2375, 0.33, 1.32, 0.4125, 1.4025, 0.5775, 1.5675, 0.66, 1.65, 0.7425, 1.7325, 0.825, 1.815, 0.9075, 1.8975, 0.495, 1.485, 0, 0.99, 0.0825, 1.0725, 0.165, 1.155, 0.2475, 1.2375, 0.33, 1.32, 0.4125, 1.4025, 0.5775, 1.5675, 0.66, 1.65, 0.7425, 1.7325, 0.825, 1.815, 0.9075, 1.8975, 0.495],
  "SoftwareVersions": "syngo_MR_E11",
  "SpacingBetweenSlices": 2,
  "StationName": "AWP166078",
  "TaskName": "motor",
  "TotalReadoutTime": 0.0534586,
  "TxRefAmp": 230.737,
  "dcmmeta_affine": [
    [-1.998391032218933, 1.2940593308030657e-07, 0.08020813763141632, 101.77566528320312],
    [-0.008246281184256077, 1.9894014596939087, -0.2054598480463028, -83.47876739501953],
    [0.0797831118106842, 0.2056252658367157, 1.9878010749816895, -88.33299255371094],
    [0.0, 0.0, 0.0, 1.0]
],
  "dcmmeta_reorient_transform": [
    [0.0, -1.0, 0.0, 99.0],
    [1.0, 0.0, 0.0, 0.0],
    [0.0, 0.0, 1.0, 0.0],
    [0.0, 0.0, 0.0, 1.0]
],
  "dcmmeta_shape": [100, 100, 72, 232],
  "dcmmeta_slice_dim": 2,
  "dcmmeta_version": 0.6,
  "global": {
    "const": {
      "AcquisitionMatrix": [100, 0, 0, 100],
      "AngioFlag": "N",
      "BitsAllocated": 16,
      "BitsStored": 12,
      "BodyPartExamined": "BRAIN",
      "Columns": 900,
      "EchoNumbers": 1,
      "EchoTime": 34.0,
      "EchoTrainLength": 100,
      "FlipAngle": 90.0,
      "HighBit": 11,
      "ImageOrientationPatient": [0.99919550818988, 0.00412314056888, 0.03989155455766, 6.4702968e-08, 0.99470074050864, -0.1028126297278],
      "ImagePositionPatient": [-901.13213785889, -912.53108781078, -17.639228452798],
      "ImageType": [
        "ORIGINAL",
        "PRIMARY",
        "M",
        "ND",
        "MOSAIC"
],
      "ImagedNucleus": "1H",
      "ImagingFrequency": 123.257831,
      "InPlanePhaseEncodingDirection": "COL",
      "MRAcquisitionType": "2D",
      "MagneticFieldStrength": 3.0,
      "Manufacturer": "SIEMENS",
      "ManufacturerModelName": "Prisma",
      "Modality": "MR",
      "NumberOfAverages": 1.0,
      "NumberOfPhaseEncodingSteps": 100,
      "PercentPhaseFieldOfView": 100.0,
      "PercentSampling": 100.0,
      "PerformedProcedureStepStartTime": "113240.922000",
      "PhotometricInterpretation": "MONOCHROME2",
      "PixelBandwidth": 2380.0,
      "PixelRepresentation": 0,
      "PixelSpacing": [2.0, 2.0],
      "ProtocolName": "bold_100x100_s3_2x2x2_232",
      "RepetitionTime": 2000.0,
      "Rows": 900,
      "SAR": 0.07247468076734,
      "SamplesPerPixel": 1,
      "ScanOptions": "FS",
      "ScanningSequence": "EP",
      "SequenceName": "*epfid2d1_100",
      "SequenceVariant": "SK",
      "SeriesDescription": "bold_100x100_s3_2x2x2_232",
      "SeriesNumber": 11,
      "SeriesTime": "122327.767000",
      "SliceLocation": -75.136818048183,
      "SliceThickness": 2.0,
      "SmallestImagePixelValue": 0,
      "SoftwareVersions": "syngo MR E11",
      "SpacingBetweenSlices": 2.0000000048141,
      "SpecificCharacterSet": "ISO_IR 100",
      "StudyID": "1",
      "StudyTime": "113240.852000",
      "TransmitCoilName": "Body",
      "VariableFlipAngleFlag": "N",
      "WindowCenterWidthExplanation": "Algo1",
      "dBdt": 0.0},
    "slices": {}
  },
  "time": {
    "samples": {
      "AcquisitionNumber": [1, 2, 3, 4, 5, 6, 7, 8, 9, 10, 11, 12, 13, 14, 15, 16, 17, 18, 19, 20, 21, 22, 23, 24, 25, 26, 27, 28, 29, 30, 31, 32, 33, 34, 35, 36, 37, 38, 39, 40, 41, 42, 43, 44, 45, 46, 47, 48, 49, 50, 51, 52, 53, 54, 55, 56, 57, 58, 59, 60, 61, 62, 63, 64, 65, 66, 67, 68, 69, 70, 71, 72, 73, 74, 75, 76, 77, 78, 79, 80, 81, 82, 83, 84, 85, 86, 87, 88, 89, 90, 91, 92, 93, 94, 95, 96, 97, 98, 99, 100, 101, 102, 103, 104, 105, 106, 107, 108, 109, 110, 111, 112, 113, 114, 115, 116, 117, 118, 119, 120, 121, 122, 123, 124, 125, 126, 127, 128, 129, 130, 131, 132, 133, 134, 135, 136, 137, 138, 139, 140, 141, 142, 143, 144, 145, 146, 147, 148, 149, 150, 151, 152, 153, 154, 155, 156, 157, 158, 159, 160, 161, 162, 163, 164, 165, 166, 167, 168, 169, 170, 171, 172, 173, 174, 175, 176, 177, 178, 179, 180, 181, 182, 183, 184, 185, 186, 187, 188, 189, 190, 191, 192, 193, 194, 195, 196, 197, 198, 199, 200, 201, 202, 203, 204, 205, 206, 207, 208, 209, 210, 211, 212, 213, 214, 215, 216, 217, 218, 219, 220, 221, 222, 223, 224, 225, 226, 227, 228, 229, 230, 231, 232],
      "AcquisitionTime": ["122325.155000", "122327.155000", "122329.155000", "122331.155000", "122333.155000", "122335.155000", "122337.155000", "122339.155000", "122341.155000", "122343.155000", "122345.155000", "122347.155000", "122349.155000", "122351.155000", "122353.155000", "122355.155000", "122357.155000", "122359.155000", "122401.155000", "122403.155000", "122405.155000", "122407.155000", "122409.155000", "122411.155000", "122413.155000", "122415.155000", "122417.155000", "122419.155000", "122421.155000", "122423.155000", "122425.155000", "122427.155000", "122429.155000", "122431.155000", "122433.155000", "122435.155000", "122437.155000", "122439.155000", "122441.155000", "122443.155000", "122445.155000", "122447.155000", "122449.155000", "122451.155000", "122453.155000", "122455.155000", "122457.155000", "122459.155000", "122501.155000", "122503.155000", "122505.155000", "122507.155000", "122509.155000", "122511.155000", "122513.155000", "122515.155000", "122517.155000", "122519.155000", "122521.155000", "122523.155000", "122525.155000", "122527.155000", "122529.155000", "122531.155000", "122533.155000", "122535.155000", "122537.155000", "122539.155000", "122541.155000", "122543.155000", "122545.155000", "122547.155000", "122549.155000", "122551.155000", "122553.155000", "122555.155000", "122557.155000", "122559.155000", "122601.155000", "122603.155000", "122605.155000", "122607.155000", "122609.155000", "122611.155000", "122613.155000", "122615.155000", "122617.155000", "122619.155000", "122621.155000", "122623.155000", "122625.155000", "122627.155000", "122629.155000", "122631.155000", "122633.155000", "122635.155000", "122637.155000", "122639.155000", "122641.155000", "122643.155000", "122645.155000", "122647.155000", "122649.155000", "122651.155000", "122653.155000", "122655.155000", "122657.155000", "122659.155000", "122701.155000", "122703.155000", "122705.155000", "122707.155000", "122709.155000", "122711.155000", "122713.155000", "122715.155000", "122717.155000", "122719.155000", "122721.155000", "122723.155000", "122725.155000", "122727.155000", "122729.155000", "122731.155000", "122733.155000", "122735.155000", "122737.155000", "122739.155000", "122741.155000", "122743.155000", "122745.155000", "122747.155000", "122749.155000", "122751.155000", "122753.155000", "122755.155000", "122757.155000", "122759.155000", "122801.155000", "122803.155000", "122805.155000", "122807.155000", "122809.155000", "122811.155000", "122813.155000", "122815.155000", "122817.155000", "122819.155000", "122821.155000", "122823.155000", "122825.155000", "122827.155000", "122829.155000", "122831.155000", "122833.155000", "122835.155000", "122837.155000", "122839.155000", "122841.155000", "122843.155000", "122845.155000", "122847.155000", "122849.155000", "122851.155000", "122853.155000", "122855.155000", "122857.155000", "122859.155000", "122901.155000", "122903.155000", "122905.155000", "122907.155000", "122909.155000", "122911.155000", "122913.155000", "122915.155000", "122917.155000", "122919.155000", "122921.155000", "122923.155000", "122925.155000", "122927.155000", "122929.155000", "122931.155000", "122933.155000", "122935.155000", "122937.155000", "122939.155000", "122941.155000", "122943.155000", "122945.155000", "122947.155000", "122949.155000", "122951.155000", "122953.155000", "122955.155000", "122957.155000", "122959.155000", "123001.155000", "123003.155000", "123005.155000", "123007.155000", "123009.155000", "123011.155000", "123013.155000", "123015.155000", "123017.155000", "123019.155000", "123021.155000", "123023.155000", "123025.155000", "123027.155000", "123029.155000", "123031.155000", "123033.155000", "123035.155000", "123037.155000", "123039.155000", "123041.155000", "123043.155000", "123045.155000", "123047.155000", "123049.155000", "123051.155000", "123053.155000", "123055.155000", "123057.155000", "123059.155000", "123101.155000", "123103.155000", "123105.155000", "123107.155000"],
      "ContentTime": ["122327.770000", "122329.265000", "122331.266000", "122333.265000", "122335.265000", "122337.266000", "122339.267000", "122341.266000", "122343.266000", "122345.267000", "122347.265000", "122349.266000", "122351.265000", "122353.265000", "122355.266000", "122357.266000", "122359.266000", "122401.266000", "122403.266000", "122405.265000", "122407.266000", "122409.265000", "122411.265000", "122413.266000", "122415.267000", "122417.266000", "122419.266000", "122421.267000", "122423.266000", "122425.265000", "122427.266000", "122429.266000", "122431.266000", "122433.266000", "122435.266000", "122437.267000", "122439.266000", "122441.265000", "122443.265000", "122445.266000", "122447.267000", "122449.266000", "122451.267000", "122453.266000", "122455.267000", "122457.265000", "122459.265000", "122501.266000", "122503.265000", "122505.266000", "122507.266000", "122509.267000", "122511.266000", "122513.266000", "122515.265000", "122517.265000", "122519.265000", "122521.265000", "122523.266000", "122525.267000", "122527.267000", "122529.267000", "122531.266000", "122533.265000", "122535.266000", "122537.265000", "122539.267000", "122541.267000", "122543.266000", "122545.266000", "122547.266000", "122549.266000", "122551.266000", "122553.265000", "122555.265000", "122557.266000", "122559.267000", "122601.266000", "122603.266000", "122605.266000", "122607.266000", "122609.265000", "122611.265000", "122613.265000", "122615.267000", "122617.267000", "122619.267000", "122621.267000", "122623.267000", "122625.266000", "122627.265000", "122629.265000", "122631.265000", "122633.266000", "122635.266000", "122637.266000", "122639.266000", "122641.267000", "122643.266000", "122645.265000", "122647.265000", "122649.266000", "122651.266000", "122653.266000", "122655.266000", "122657.266000", "122659.265000", "122701.266000", "122703.266000", "122705.265000", "122707.266000", "122709.266000", "122711.266000", "122713.266000", "122715.267000", "122717.265000", "122719.265000", "122721.266000", "122723.265000", "122725.266000", "122727.266000", "122729.266000", "122731.266000", "122733.266000", "122735.265000", "122737.265000", "122739.265000", "122741.267000", "122743.266000", "122745.267000", "122747.266000", "122749.267000", "122751.267000", "122753.265000", "122755.265000", "122757.266000", "122759.266000", "122801.266000", "122803.266000", "122805.266000", "122807.267000", "122809.265000", "122811.266000", "122813.265000", "122815.265000", "122817.266000", "122819.266000", "122821.267000", "122823.266000", "122825.266000", "122827.265000", "122829.265000", "122831.265000", "122833.265000", "122835.267000", "122837.266000", "122839.266000", "122841.267000", "122843.266000", "122845.265000", "122847.265000", "122849.265000", "122851.267000", "122853.267000", "122855.266000", "122857.267000", "122859.266000", "122901.267000", "122903.265000", "122905.266000", "122907.266000", "122909.267000", "122911.266000", "122913.266000", "122915.267000", "122917.267000", "122919.266000", "122921.266000", "122923.265000", "122925.266000", "122927.267000", "122929.266000", "122931.266000", "122933.266000", "122935.266000", "122937.266000", "122939.266000", "122941.266000", "122943.265000", "122945.267000", "122947.266000", "122949.267000", "122951.266000", "122953.267000", "122955.265000", "122957.265000", "122959.265000", "123001.266000", "123003.267000", "123005.267000", "123007.266000", "123009.266000", "123011.267000", "123013.265000", "123015.265000", "123017.265000", "123019.267000", "123021.266000", "123023.266000", "123025.267000", "123027.267000", "123029.265000", "123031.265000", "123033.265000", "123035.265000", "123037.267000", "123039.266000", "123041.266000", "123043.267000", "123045.266000", "123047.266000", "123049.265000", "123051.265000", "123053.266000", "123055.266000", "123057.267000", "123059.266000", "123101.267000", "123103.266000", "123105.266000", "123107.266000", "123108.869000"],
      "InstanceCreationTime": ["122327.770000", "122329.265000", "122331.266000", "122333.265000", "122335.265000", "122337.266000", "122339.267000", "122341.266000", "122343.266000", "122345.267000", "122347.265000", "122349.266000", "122351.265000", "122353.265000", "122355.266000", "122357.266000", "122359.266000", "122401.266000", "122403.266000", "122405.265000", "122407.266000", "122409.265000", "122411.265000", "122413.266000", "122415.267000", "122417.266000", "122419.266000", "122421.267000", "122423.266000", "122425.265000", "122427.266000", "122429.266000", "122431.266000", "122433.266000", "122435.266000", "122437.267000", "122439.266000", "122441.265000", "122443.265000", "122445.266000", "122447.267000", "122449.266000", "122451.267000", "122453.266000", "122455.267000", "122457.265000", "122459.265000", "122501.266000", "122503.265000", "122505.266000", "122507.266000", "122509.267000", "122511.266000", "122513.266000", "122515.265000", "122517.265000", "122519.265000", "122521.265000", "122523.266000", "122525.267000", "122527.267000", "122529.267000", "122531.266000", "122533.265000", "122535.266000", "122537.265000", "122539.267000", "122541.267000", "122543.266000", "122545.266000", "122547.266000", "122549.266000", "122551.266000", "122553.265000", "122555.265000", "122557.266000", "122559.267000", "122601.266000", "122603.266000", "122605.266000", "122607.266000", "122609.265000", "122611.265000", "122613.265000", "122615.267000", "122617.267000", "122619.267000", "122621.267000", "122623.267000", "122625.266000", "122627.265000", "122629.265000", "122631.265000", "122633.266000", "122635.266000", "122637.266000", "122639.266000", "122641.267000", "122643.266000", "122645.265000", "122647.265000", "122649.266000", "122651.266000", "122653.266000", "122655.266000", "122657.266000", "122659.265000", "122701.266000", "122703.266000", "122705.265000", "122707.266000", "122709.266000", "122711.266000", "122713.266000", "122715.267000", "122717.265000", "122719.265000", "122721.266000", "122723.265000", "122725.266000", "122727.266000", "122729.266000", "122731.266000", "122733.266000", "122735.265000", "122737.265000", "122739.265000", "122741.267000", "122743.266000", "122745.267000", "122747.266000", "122749.267000", "122751.267000", "122753.265000", "122755.265000", "122757.266000", "122759.266000", "122801.266000", "122803.266000", "122805.266000", "122807.267000", "122809.265000", "122811.266000", "122813.265000", "122815.265000", "122817.266000", "122819.266000", "122821.267000", "122823.266000", "122825.266000", "122827.265000", "122829.265000", "122831.265000", "122833.265000", "122835.267000", "122837.266000", "122839.266000", "122841.267000", "122843.266000", "122845.265000", "122847.265000", "122849.265000", "122851.267000", "122853.267000", "122855.266000", "122857.267000", "122859.266000", "122901.267000", "122903.265000", "122905.266000", "122907.266000", "122909.267000", "122911.266000", "122913.266000", "122915.267000", "122917.267000", "122919.266000", "122921.266000", "122923.265000", "122925.266000", "122927.267000", "122929.266000", "122931.266000", "122933.266000", "122935.266000", "122937.266000", "122939.266000", "122941.266000", "122943.265000", "122945.267000", "122947.266000", "122949.267000", "122951.266000", "122953.267000", "122955.265000", "122957.265000", "122959.265000", "123001.266000", "123003.267000", "123005.267000", "123007.266000", "123009.266000", "123011.267000", "123013.265000", "123015.265000", "123017.265000", "123019.267000", "123021.266000", "123023.266000", "123025.267000", "123027.267000", "123029.265000", "123031.265000", "123033.265000", "123035.265000", "123037.267000", "123039.266000", "123041.266000", "123043.267000", "123045.266000", "123047.266000", "123049.265000", "123051.265000", "123053.266000", "123055.266000", "123057.267000", "123059.266000", "123101.267000", "123103.266000", "123105.266000", "123107.266000", "123108.869000"],
      "InstanceNumber": [1, 2, 3, 4, 5, 6, 7, 8, 9, 10, 11, 12, 13, 14, 15, 16, 17, 18, 19, 20, 21, 22, 23, 24, 25, 26, 27, 28, 29, 30, 31, 32, 33, 34, 35, 36, 37, 38, 39, 40, 41, 42, 43, 44, 45, 46, 47, 48, 49, 50, 51, 52, 53, 54, 55, 56, 57, 58, 59, 60, 61, 62, 63, 64, 65, 66, 67, 68, 69, 70, 71, 72, 73, 74, 75, 76, 77, 78, 79, 80, 81, 82, 83, 84, 85, 86, 87, 88, 89, 90, 91, 92, 93, 94, 95, 96, 97, 98, 99, 100, 101, 102, 103, 104, 105, 106, 107, 108, 109, 110, 111, 112, 113, 114, 115, 116, 117, 118, 119, 120, 121, 122, 123, 124, 125, 126, 127, 128, 129, 130, 131, 132, 133, 134, 135, 136, 137, 138, 139, 140, 141, 142, 143, 144, 145, 146, 147, 148, 149, 150, 151, 152, 153, 154, 155, 156, 157, 158, 159, 160, 161, 162, 163, 164, 165, 166, 167, 168, 169, 170, 171, 172, 173, 174, 175, 176, 177, 178, 179, 180, 181, 182, 183, 184, 185, 186, 187, 188, 189, 190, 191, 192, 193, 194, 195, 196, 197, 198, 199, 200, 201, 202, 203, 204, 205, 206, 207, 208, 209, 210, 211, 212, 213, 214, 215, 216, 217, 218, 219, 220, 221, 222, 223, 224, 225, 226, 227, 228, 229, 230, 231, 232],
      "LargestImagePixelValue": [3343, 3269, 3239, 3241, 3204, 3238, 3229, 3252, 3220, 3248, 3244, 3236, 3237, 3216, 3242, 3226, 3226, 3220, 3224, 3229, 3239, 3241, 3248, 3240, 3233, 3194, 3185, 3168, 3187, 3191, 3166, 3174, 3219, 3328, 3132, 3129, 3129, 3114, 3155, 3140, 3155, 3155, 3118, 3101, 3162, 3137, 3150, 3147, 3172, 3172, 3186, 3189, 3174, 3191, 3175, 3206, 3191, 3248, 3226, 3234, 3182, 3236, 3193, 3194, 3201, 3178, 3154, 3160, 3146, 3152, 3152, 3125, 3155, 3103, 3108, 3074, 3125, 3097, 3139, 3114, 3132, 3141, 3125, 3087, 3106, 3092, 3098, 3095, 3093, 3103, 3087, 3127, 3239, 3108, 3112, 3094, 3122, 3131, 3120, 3132, 3084, 3106, 3126, 3152, 3158, 3152, 3163, 3108, 3117, 3154, 3128, 3075, 3168, 3115, 3106, 3083, 3112, 3116, 3118, 3071, 3106, 3105, 3090, 3054, 3128, 3064, 3116, 3092, 3103, 3079, 3094, 3075, 3067, 3109, 3145, 3171, 3146, 3167, 3126, 3165, 3098, 3114, 3112, 3092, 3090, 3138, 3274, 3108, 3154, 3105, 3115, 3149, 3103, 3093, 3093, 3076, 3165, 3045, 3150, 3111, 3137, 3104, 3115, 3093, 3069, 3063, 3226, 3169, 3155, 3144, 3137, 3141, 3168, 3140, 3134, 3148, 3118, 3138, 3128, 3375, 3136, 3188, 3146, 3170, 3203, 3201, 3183, 3212, 3161, 3367, 3142, 3163, 3200, 3192, 3187, 3179, 3214, 3187, 3216, 3183, 3213, 3135, 3107, 3108, 3090, 3143, 3082, 3129, 3174, 3132, 3105, 3081, 3106, 3092, 3070, 3092, 3101, 3071, 3099, 3135, 3130, 3111, 3125, 3136, 3145, 3111, 3154, 3144, 3142, 3106, 3159, 3136],
      "WindowCenter": [775.0, 773.0, 772.0, 772.0, 769.0, 769.0, 769.0, 769.0, 770.0, 770.0, 771.0, 772.0, 772.0, 771.0, 771.0, 770.0, 769.0, 769.0, 769.0, 769.0, 769.0, 769.0, 770.0, 770.0, 771.0, 771.0, 771.0, 770.0, 770.0, 770.0, 768.0, 768.0, 767.0, 771.0, 769.0, 769.0, 771.0, 770.0, 771.0, 770.0, 771.0, 771.0, 770.0, 768.0, 772.0, 769.0, 768.0, 767.0, 767.0, 764.0, 765.0, 765.0, 766.0, 769.0, 769.0, 772.0, 771.0, 772.0, 772.0, 772.0, 772.0, 772.0, 771.0, 770.0, 770.0, 769.0, 768.0, 768.0, 768.0, 770.0, 769.0, 770.0, 771.0, 770.0, 770.0, 771.0, 771.0, 768.0, 767.0, 765.0, 763.0, 763.0, 764.0, 764.0, 765.0, 766.0, 768.0, 768.0, 768.0, 767.0, 768.0, 770.0, 770.0, 770.0, 769.0, 769.0, 769.0, 768.0, 767.0, 768.0, 769.0, 769.0, 767.0, 768.0, 768.0, 769.0, 769.0, 768.0, 769.0, 770.0, 769.0, 767.0, 768.0, 768.0, 768.0, 766.0, 768.0, 767.0, 767.0, 765.0, 765.0, 766.0, 766.0, 766.0, 767.0, 766.0, 767.0, 765.0, 766.0, 766.0, 766.0, 766.0, 764.0, 765.0, 766.0, 767.0, 765.0, 766.0, 768.0, 768.0, 769.0, 769.0, 768.0, 767.0, 768.0, 767.0, 769.0, 766.0, 766.0, 765.0, 766.0, 765.0, 766.0, 766.0, 767.0, 767.0, 768.0, 765.0, 767.0, 765.0, 766.0, 766.0, 765.0, 766.0, 767.0, 767.0, 769.0, 767.0, 769.0, 769.0, 770.0, 768.0, 769.0, 767.0, 767.0, 765.0, 766.0, 767.0, 768.0, 771.0, 767.0, 769.0, 769.0, 770.0, 769.0, 770.0, 769.0, 771.0, 770.0, 773.0, 770.0, 770.0, 770.0, 769.0, 769.0, 768.0, 769.0, 768.0, 769.0, 767.0, 768.0, 767.0, 766.0, 767.0, 767.0, 768.0, 765.0, 766.0, 767.0, 766.0, 767.0, 767.0, 769.0, 769.0, 770.0, 770.0, 771.0, 771.0, 772.0, 771.0, 771.0, 768.0, 767.0, 768.0, 767.0, 767.0, 768.0, 767.0, 768.0, 769.0, 770.0, 769.0],
      "WindowWidth": [1673.0, 1668.0, 1665.0, 1664.0, 1657.0, 1655.0, 1656.0, 1657.0, 1659.0, 1660.0, 1663.0, 1665.0, 1665.0, 1660.0, 1661.0, 1659.0, 1657.0, 1656.0, 1657.0, 1658.0, 1657.0, 1657.0, 1659.0, 1660.0, 1661.0, 1660.0, 1660.0, 1659.0, 1659.0, 1658.0, 1653.0, 1654.0, 1652.0, 1661.0, 1656.0, 1656.0, 1661.0, 1659.0, 1660.0, 1659.0, 1662.0, 1660.0, 1657.0, 1653.0, 1663.0, 1655.0, 1654.0, 1651.0, 1651.0, 1644.0, 1646.0, 1645.0, 1649.0, 1655.0, 1656.0, 1662.0, 1662.0, 1664.0, 1662.0, 1663.0, 1663.0, 1663.0, 1660.0, 1658.0, 1658.0, 1657.0, 1652.0, 1652.0, 1654.0, 1657.0, 1657.0, 1658.0, 1661.0, 1659.0, 1659.0, 1661.0, 1660.0, 1653.0, 1651.0, 1645.0, 1640.0, 1642.0, 1642.0, 1642.0, 1646.0, 1649.0, 1652.0, 1652.0, 1652.0, 1652.0, 1653.0, 1658.0, 1659.0, 1658.0, 1656.0, 1656.0, 1657.0, 1652.0, 1651.0, 1652.0, 1654.0, 1654.0, 1650.0, 1651.0, 1652.0, 1654.0, 1655.0, 1652.0, 1656.0, 1656.0, 1655.0, 1650.0, 1653.0, 1652.0, 1652.0, 1648.0, 1652.0, 1650.0, 1650.0, 1646.0, 1647.0, 1648.0, 1648.0, 1647.0, 1650.0, 1648.0, 1649.0, 1646.0, 1648.0, 1648.0, 1648.0, 1649.0, 1643.0, 1646.0, 1648.0, 1650.0, 1646.0, 1648.0, 1652.0, 1654.0, 1655.0, 1654.0, 1653.0, 1651.0, 1652.0, 1650.0, 1655.0, 1649.0, 1648.0, 1645.0, 1647.0, 1646.0, 1647.0, 1649.0, 1649.0, 1649.0, 1654.0, 1645.0, 1650.0, 1646.0, 1647.0, 1647.0, 1646.0, 1649.0, 1649.0, 1649.0, 1655.0, 1650.0, 1654.0, 1656.0, 1657.0, 1654.0, 1656.0, 1652.0, 1651.0, 1647.0, 1648.0, 1652.0, 1653.0, 1661.0, 1651.0, 1655.0, 1657.0, 1659.0, 1655.0, 1657.0, 1657.0, 1662.0, 1659.0, 1666.0, 1657.0, 1658.0, 1657.0, 1655.0, 1655.0, 1652.0, 1655.0, 1652.0, 1655.0, 1652.0, 1653.0, 1650.0, 1649.0, 1651.0, 1651.0, 1652.0, 1646.0, 1648.0, 1649.0, 1649.0, 1650.0, 1652.0, 1656.0, 1657.0, 1657.0, 1659.0, 1661.0, 1662.0, 1663.0, 1659.0, 1660.0, 1653.0, 1651.0, 1653.0, 1650.0, 1650.0, 1653.0, 1652.0, 1654.0, 1655.0, 1657.0, 1656.0]
    },
    "slices": {}
  }
}